#wls	flux	fluxerr
1.587144E+03	4.604193E-04	2.623828E-05
1.626823E+03	4.625639E-04	2.633870E-05
1.666501E+03	4.648310E-04	2.644533E-05
1.706180E+03	4.673862E-04	2.656754E-05
1.745859E+03	4.701542E-04	2.670099E-05
1.785537E+03	4.730602E-04	2.684139E-05
1.825216E+03	4.762719E-04	2.699819E-05
1.864894E+03	4.797964E-04	2.717173E-05
1.904573E+03	4.835608E-04	2.735780E-05
1.944252E+03	4.875738E-04	2.755683E-05
1.983930E+03	4.920074E-04	2.777847E-05
2.023609E+03	4.967915E-04	2.801864E-05
2.063287E+03	5.019381E-04	2.827793E-05
2.102966E+03	5.074605E-04	2.855699E-05
2.142645E+03	5.135380E-04	2.886579E-05
2.182323E+03	5.200232E-04	2.919591E-05
2.222002E+03	5.270173E-04	2.955289E-05
2.261680E+03	5.346241E-04	2.994242E-05
2.301359E+03	5.427846E-04	3.036100E-05
2.341038E+03	5.516921E-04	3.081927E-05
2.380716E+03	5.612096E-04	3.130938E-05
2.420395E+03	5.716226E-04	3.184703E-05
2.460073E+03	5.828014E-04	3.242473E-05
2.499752E+03	5.949582E-04	3.305405E-05
2.539431E+03	6.081428E-04	3.373743E-05
2.579109E+03	6.224108E-04	3.447762E-05
2.618788E+03	6.379113E-04	3.528253E-05
2.658466E+03	6.546287E-04	3.615088E-05
2.698145E+03	6.729061E-04	3.710119E-05
2.737824E+03	6.927492E-04	3.813325E-05
2.777502E+03	7.143519E-04	3.925718E-05
2.817181E+03	7.378332E-04	4.047891E-05
2.856859E+03	7.634193E-04	4.181016E-05
2.896538E+03	7.913566E-04	4.326366E-05
2.936217E+03	8.219151E-04	4.485331E-05
2.975895E+03	8.553917E-04	4.659434E-05
2.985815E+03	8.642008E-04	4.705225E-05
2.995735E+03	8.732220E-04	4.752116E-05
3.005654E+03	8.824594E-04	4.800127E-05
3.015574E+03	8.919173E-04	4.849279E-05
3.025494E+03	9.015997E-04	4.899593E-05
3.035413E+03	9.115114E-04	4.951091E-05
3.045333E+03	9.216567E-04	5.003796E-05
3.055252E+03	9.320403E-04	5.057730E-05
3.065172E+03	9.426671E-04	5.112918E-05
3.075092E+03	9.535420E-04	5.169385E-05
3.085011E+03	9.646699E-04	5.227154E-05
3.094931E+03	9.760562E-04	5.286252E-05
3.104851E+03	9.877061E-04	5.346706E-05
3.114770E+03	9.996252E-04	5.408542E-05
3.124690E+03	1.011819E-03	5.471788E-05
3.134610E+03	1.024293E-03	5.536472E-05
3.144529E+03	1.037158E-03	5.603186E-05
3.154449E+03	1.050211E-03	5.670839E-05
3.164369E+03	1.063668E-03	5.740586E-05
3.174288E+03	1.077432E-03	5.811899E-05
3.184208E+03	1.091508E-03	5.884810E-05
3.194128E+03	1.106010E-03	5.959926E-05
3.204047E+03	1.120732E-03	6.036136E-05
3.213967E+03	1.135895E-03	6.114624E-05
3.223887E+03	1.151400E-03	6.194855E-05
3.233806E+03	1.167363E-03	6.277447E-05
3.243726E+03	1.183575E-03	6.361272E-05
3.253645E+03	1.200261E-03	6.447542E-05
3.263565E+03	1.217432E-03	6.536306E-05
3.273485E+03	1.234875E-03	6.626415E-05
3.283404E+03	1.252820E-03	6.719105E-05
3.293324E+03	1.271278E-03	6.814427E-05
3.303244E+03	1.290146E-03	6.911829E-05
3.313163E+03	1.309433E-03	7.011347E-05
3.323083E+03	1.329147E-03	7.113025E-05
3.333003E+03	1.349533E-03	7.218161E-05
3.342922E+03	1.370250E-03	7.324941E-05
3.352842E+03	1.391543E-03	7.434654E-05
3.362762E+03	1.413423E-03	7.547368E-05
3.372681E+03	1.435785E-03	7.662504E-05
3.382601E+03	1.458757E-03	7.780749E-05
3.392521E+03	1.482233E-03	7.901524E-05
3.402440E+03	1.506344E-03	8.025528E-05
3.412360E+03	1.531106E-03	8.152836E-05
3.422280E+03	1.556405E-03	8.282835E-05
3.432199E+03	1.582255E-03	8.415598E-05
3.442119E+03	1.608918E-03	8.552507E-05
3.452038E+03	1.636157E-03	8.692293E-05
3.461958E+03	1.664112E-03	8.835706E-05
3.471878E+03	1.692670E-03	8.982120E-05
3.481797E+03	1.721970E-03	9.132283E-05
3.491717E+03	1.752030E-03	9.286275E-05
3.501637E+03	1.782864E-03	9.444158E-05
3.511556E+03	1.814488E-03	9.606016E-05
3.521476E+03	1.846783E-03	9.771207E-05
3.531396E+03	1.879898E-03	9.940514E-05
3.541315E+03	1.913847E-03	1.011401E-04
3.551235E+03	1.948648E-03	1.029176E-04
3.561155E+03	1.984179E-03	1.047313E-04
3.571074E+03	2.020730E-03	1.065964E-04
3.580994E+03	2.058043E-03	1.084991E-04
3.590914E+03	2.096411E-03	1.104548E-04
3.600833E+03	2.135571E-03	1.124496E-04
3.610753E+03	2.175678E-03	1.144915E-04
3.620673E+03	2.216753E-03	1.165815E-04
3.630592E+03	2.258807E-03	1.187201E-04
3.640512E+03	2.301860E-03	1.209083E-04
3.650432E+03	2.345928E-03	1.231467E-04
3.660351E+03	2.391030E-03	1.254363E-04
3.670271E+03	2.437177E-03	1.277776E-04
3.680190E+03	2.484391E-03	1.301715E-04
3.690110E+03	2.532685E-03	1.326186E-04
3.700030E+03	2.582232E-03	1.351280E-04
3.709949E+03	2.632735E-03	1.376838E-04
3.719869E+03	2.684366E-03	1.402950E-04
3.729789E+03	2.737138E-03	1.429623E-04
3.739708E+03	2.791068E-03	1.456862E-04
3.749628E+03	2.846169E-03	1.484673E-04
3.759548E+03	2.902453E-03	1.513063E-04
3.769467E+03	2.960101E-03	1.542123E-04
3.779387E+03	3.018794E-03	1.571686E-04
3.789307E+03	3.078705E-03	1.601841E-04
3.799226E+03	3.140021E-03	1.632684E-04
3.809146E+03	3.202405E-03	1.664039E-04
3.819066E+03	3.266215E-03	1.696089E-04
3.828985E+03	3.331106E-03	1.728654E-04
3.838905E+03	3.397438E-03	1.761921E-04
3.848825E+03	3.464861E-03	1.795705E-04
3.858744E+03	3.533552E-03	1.830099E-04
3.868664E+03	3.603702E-03	1.865197E-04
3.878583E+03	3.674940E-03	1.900808E-04
3.888503E+03	3.747447E-03	1.937025E-04
3.898423E+03	3.821410E-03	1.973941E-04
3.908342E+03	3.896444E-03	2.011356E-04
3.918262E+03	3.972729E-03	2.049363E-04
3.928182E+03	4.050253E-03	2.087954E-04
3.938101E+03	4.128805E-03	2.127018E-04
3.948021E+03	4.208760E-03	2.166748E-04
3.957941E+03	4.289701E-03	2.206928E-04
3.967860E+03	4.371803E-03	2.247646E-04
3.977780E+03	4.454834E-03	2.288782E-04
3.987700E+03	4.539167E-03	2.330527E-04
3.997619E+03	4.624358E-03	2.372651E-04
4.007539E+03	4.710364E-03	2.415131E-04
4.017459E+03	4.797344E-03	2.458048E-04
4.027378E+03	4.885250E-03	2.501377E-04
4.037298E+03	4.973812E-03	2.544977E-04
4.047218E+03	5.063184E-03	2.588928E-04
4.057137E+03	5.153083E-03	2.633084E-04
4.067057E+03	5.243432E-03	2.677404E-04
4.076976E+03	5.334152E-03	2.721849E-04
4.086896E+03	5.425379E-03	2.766486E-04
4.096816E+03	5.516802E-03	2.811158E-04
4.106735E+03	5.608321E-03	2.855812E-04
4.116655E+03	5.699834E-03	2.900398E-04
4.126575E+03	5.791229E-03	2.944858E-04
4.136494E+03	5.882393E-03	2.989135E-04
4.146414E+03	5.973206E-03	3.033168E-04
4.156334E+03	6.063539E-03	3.076893E-04
4.166253E+03	6.153030E-03	3.120125E-04
4.176173E+03	6.241775E-03	3.162915E-04
4.186093E+03	6.329633E-03	3.205194E-04
4.196012E+03	6.416227E-03	3.246770E-04
4.205932E+03	6.501646E-03	3.287690E-04
4.215852E+03	6.585505E-03	3.327762E-04
4.225771E+03	6.667655E-03	3.366911E-04
4.235691E+03	6.748186E-03	3.405185E-04
4.245611E+03	6.826711E-03	3.442391E-04
4.255530E+03	6.903085E-03	3.478458E-04
4.265450E+03	6.976927E-03	3.513197E-04
4.275370E+03	7.048587E-03	3.546787E-04
4.285289E+03	7.117694E-03	3.579043E-04
4.295209E+03	7.183889E-03	3.609789E-04
4.305128E+03	7.247307E-03	3.639094E-04
4.315048E+03	7.307853E-03	3.666916E-04
4.324968E+03	7.365201E-03	3.693093E-04
4.334887E+03	7.419529E-03	3.717719E-04
4.344807E+03	7.470543E-03	3.740650E-04
4.354727E+03	7.518212E-03	3.761874E-04
4.364646E+03	7.562800E-03	3.781526E-04
4.374566E+03	7.604133E-03	3.799524E-04
4.384486E+03	7.642301E-03	3.815915E-04
4.394405E+03	7.677171E-03	3.830638E-04
4.404325E+03	7.709350E-03	3.843999E-04
4.414245E+03	7.738737E-03	3.855949E-04
4.424164E+03	7.765245E-03	3.866450E-04
4.434084E+03	7.789277E-03	3.875705E-04
4.444004E+03	7.811008E-03	3.883804E-04
4.453923E+03	7.830384E-03	3.890722E-04
4.463843E+03	7.847827E-03	3.896672E-04
4.473763E+03	7.863294E-03	3.901635E-04
4.483682E+03	7.876983E-03	3.905710E-04
4.493602E+03	7.889319E-03	3.909110E-04
4.503521E+03	7.900263E-03	3.911818E-04
4.513441E+03	7.910008E-03	3.913930E-04
4.523361E+03	7.918741E-03	3.915541E-04
4.533280E+03	7.926868E-03	3.916853E-04
4.543200E+03	7.934112E-03	3.917729E-04
4.553120E+03	7.940870E-03	3.918366E-04
4.563039E+03	7.947520E-03	3.918952E-04
4.572959E+03	7.953767E-03	3.919341E-04
4.582879E+03	7.959973E-03	3.919711E-04
4.592798E+03	7.966265E-03	3.920127E-04
4.602718E+03	7.972541E-03	3.920538E-04
4.612638E+03	7.979126E-03	3.921103E-04
4.622557E+03	7.986114E-03	3.921868E-04
4.632477E+03	7.993582E-03	3.922872E-04
4.642397E+03	8.001384E-03	3.924043E-04
4.652316E+03	8.009790E-03	3.925512E-04
4.662236E+03	8.018633E-03	3.927197E-04
4.672156E+03	8.028155E-03	3.929217E-04
4.682075E+03	8.038166E-03	3.931477E-04
4.691995E+03	8.048917E-03	3.934102E-04
4.701914E+03	8.060294E-03	3.937034E-04
4.711834E+03	8.072596E-03	3.940419E-04
4.721754E+03	8.085903E-03	3.944295E-04
4.731673E+03	8.099865E-03	3.948491E-04
4.741593E+03	8.115162E-03	3.953338E-04
4.751513E+03	8.131216E-03	3.958554E-04
4.761432E+03	8.148474E-03	3.964355E-04
4.771352E+03	8.166957E-03	3.970750E-04
4.781272E+03	8.186464E-03	3.977642E-04
4.791191E+03	8.206994E-03	3.985028E-04
4.801111E+03	8.228735E-03	3.993001E-04
4.811031E+03	8.251456E-03	4.001445E-04
4.820950E+03	8.275325E-03	4.010443E-04
4.830870E+03	8.300088E-03	4.019870E-04
4.840790E+03	8.325892E-03	4.029796E-04
4.850709E+03	8.352462E-03	4.040089E-04
4.860629E+03	8.379925E-03	4.050808E-04
4.870549E+03	8.407991E-03	4.061813E-04
4.880468E+03	8.436563E-03	4.073058E-04
4.890388E+03	8.465945E-03	4.084687E-04
4.900308E+03	8.495414E-03	4.096353E-04
4.910227E+03	8.525461E-03	4.108292E-04
4.920147E+03	8.555348E-03	4.120149E-04
4.930066E+03	8.585558E-03	4.132155E-04
4.939986E+03	8.615541E-03	4.144047E-04
4.949906E+03	8.645358E-03	4.155855E-04
4.959825E+03	8.674658E-03	4.167410E-04
4.969745E+03	8.703491E-03	4.178737E-04
4.979665E+03	8.731705E-03	4.189763E-04
4.989584E+03	8.758935E-03	4.200315E-04
4.999504E+03	8.785227E-03	4.210416E-04
5.009424E+03	8.810422E-03	4.219990E-04
5.019343E+03	8.834358E-03	4.228961E-04
5.029263E+03	8.856670E-03	4.237156E-04
5.039183E+03	8.877404E-03	4.244600E-04
5.049102E+03	8.896408E-03	4.251219E-04
5.059022E+03	8.913528E-03	4.256944E-04
5.068942E+03	8.928411E-03	4.261606E-04
5.078861E+03	8.941329E-03	4.265339E-04
5.088781E+03	8.951735E-03	4.267882E-04
5.098701E+03	8.959705E-03	4.269274E-04
5.108620E+03	8.965121E-03	4.269463E-04
5.118540E+03	8.967873E-03	4.268396E-04
5.128459E+03	8.967858E-03	4.266029E-04
5.138379E+03	8.964990E-03	4.262321E-04
5.148299E+03	8.958981E-03	4.257140E-04
5.158218E+03	8.950177E-03	4.250651E-04
5.168138E+03	8.938317E-03	4.242734E-04
5.178058E+03	8.923357E-03	4.233369E-04
5.187977E+03	8.905070E-03	4.222452E-04
5.197897E+03	8.883839E-03	4.210167E-04
5.207817E+03	8.859460E-03	4.196419E-04
5.217736E+03	8.831743E-03	4.181122E-04
5.227656E+03	8.801107E-03	4.164475E-04
5.237576E+03	8.767386E-03	4.146403E-04
5.247495E+03	8.730627E-03	4.126929E-04
5.257415E+03	8.690881E-03	4.106080E-04
5.267335E+03	8.648216E-03	4.083891E-04
5.277254E+03	8.602705E-03	4.060398E-04
5.287174E+03	8.554432E-03	4.035642E-04
5.297094E+03	8.503672E-03	4.009756E-04
5.307013E+03	8.450141E-03	3.982606E-04
5.316933E+03	8.394315E-03	3.954418E-04
5.326852E+03	8.336104E-03	3.925151E-04
5.336772E+03	8.275431E-03	3.894769E-04
5.346692E+03	8.212950E-03	3.863582E-04
5.356611E+03	8.148214E-03	3.831380E-04
5.366531E+03	8.081509E-03	3.798298E-04
5.376451E+03	8.013118E-03	3.764470E-04
5.386370E+03	7.942957E-03	3.729856E-04
5.396290E+03	7.871123E-03	3.694503E-04
5.406210E+03	7.797714E-03	3.658457E-04
5.416129E+03	7.722996E-03	3.621844E-04
5.426049E+03	7.646888E-03	3.584625E-04
5.435969E+03	7.569486E-03	3.546845E-04
5.445888E+03	7.491051E-03	3.508628E-04
5.455808E+03	7.411554E-03	3.469960E-04
5.465728E+03	7.331255E-03	3.430961E-04
5.475647E+03	7.250423E-03	3.391759E-04
5.485567E+03	7.169483E-03	3.352551E-04
5.495487E+03	7.088678E-03	3.313450E-04
5.505406E+03	7.007935E-03	3.274422E-04
5.515326E+03	6.927940E-03	3.235787E-04
5.525246E+03	6.848441E-03	3.197426E-04
5.535165E+03	6.770086E-03	3.159640E-04
5.545085E+03	6.692601E-03	3.122300E-04
5.555004E+03	6.616593E-03	3.085690E-04
5.564924E+03	6.541771E-03	3.049671E-04
5.574844E+03	6.468704E-03	3.014508E-04
5.584763E+03	6.397226E-03	2.980122E-04
5.594683E+03	6.327448E-03	2.946563E-04
5.604603E+03	6.259747E-03	2.914006E-04
5.614522E+03	6.193798E-03	2.882299E-04
5.624442E+03	6.130094E-03	2.851668E-04
5.634362E+03	6.068430E-03	2.822018E-04
5.644281E+03	6.009143E-03	2.793503E-04
5.654201E+03	5.951886E-03	2.765962E-04
5.664121E+03	5.897115E-03	2.739603E-04
5.674040E+03	5.844739E-03	2.714384E-04
5.683960E+03	5.794673E-03	2.690265E-04
5.693880E+03	5.747083E-03	2.667320E-04
5.703799E+03	5.702005E-03	2.645564E-04
5.713719E+03	5.659469E-03	2.625012E-04
5.723639E+03	5.619504E-03	2.605673E-04
5.733558E+03	5.582137E-03	2.587561E-04
5.743478E+03	5.547391E-03	2.570683E-04
5.753397E+03	5.515288E-03	2.555050E-04
5.763317E+03	5.485851E-03	2.540670E-04
5.773237E+03	5.458979E-03	2.527496E-04
5.783156E+03	5.434933E-03	2.515646E-04
5.793076E+03	5.413733E-03	2.505130E-04
5.802996E+03	5.395153E-03	2.495841E-04
5.812915E+03	5.379330E-03	2.487842E-04
5.822835E+03	5.366287E-03	2.481142E-04
5.832755E+03	5.356156E-03	2.475801E-04
5.842674E+03	5.348838E-03	2.471772E-04
5.852594E+03	5.344349E-03	2.469061E-04
5.862514E+03	5.342707E-03	2.467677E-04
5.872433E+03	5.343928E-03	2.467625E-04
5.882353E+03	5.348154E-03	2.468970E-04
5.892273E+03	5.355280E-03	2.471662E-04
5.902192E+03	5.365324E-03	2.475710E-04
5.912112E+03	5.378305E-03	2.481120E-04
5.922032E+03	5.394239E-03	2.487900E-04
5.931951E+03	5.413266E-03	2.496113E-04
5.941871E+03	5.435402E-03	2.505766E-04
5.951790E+03	5.460417E-03	2.516752E-04
5.961710E+03	5.488568E-03	2.529189E-04
5.971630E+03	5.519746E-03	2.543025E-04
5.981549E+03	5.554080E-03	2.558321E-04
5.991469E+03	5.591325E-03	2.574961E-04
6.001389E+03	5.631861E-03	2.593122E-04
6.011308E+03	5.675301E-03	2.612623E-04
6.021228E+03	5.721888E-03	2.633577E-04
6.031148E+03	5.771474E-03	2.655915E-04
6.041067E+03	5.824164E-03	2.679685E-04
6.050987E+03	5.879790E-03	2.704809E-04
6.060907E+03	5.938436E-03	2.731325E-04
6.070826E+03	5.999905E-03	2.759144E-04
6.080746E+03	6.064121E-03	2.788230E-04
6.090666E+03	6.131130E-03	2.818603E-04
6.100585E+03	6.200686E-03	2.850152E-04
6.110505E+03	6.272802E-03	2.882881E-04
6.120425E+03	6.347188E-03	2.916658E-04
6.130344E+03	6.423673E-03	2.951403E-04
6.140264E+03	6.502365E-03	2.987169E-04
6.150184E+03	6.582664E-03	3.023678E-04
6.160103E+03	6.664790E-03	3.061033E-04
6.170023E+03	6.748661E-03	3.099195E-04
6.179942E+03	6.834018E-03	3.138048E-04
6.189862E+03	6.920739E-03	3.177534E-04
6.199782E+03	7.009009E-03	3.217741E-04
6.209701E+03	7.098187E-03	3.258374E-04
6.219621E+03	7.188596E-03	3.299582E-04
6.229541E+03	7.279548E-03	3.341050E-04
6.239460E+03	7.371350E-03	3.382919E-04
6.249380E+03	7.463444E-03	3.424936E-04
6.259300E+03	7.555776E-03	3.467075E-04
6.269219E+03	7.647930E-03	3.509145E-04
6.279139E+03	7.739831E-03	3.551114E-04
6.289059E+03	7.831040E-03	3.592780E-04
6.298978E+03	7.921660E-03	3.634191E-04
6.308898E+03	8.011055E-03	3.675057E-04
6.318818E+03	8.098948E-03	3.715248E-04
6.328737E+03	8.185449E-03	3.754819E-04
6.338657E+03	8.269903E-03	3.793467E-04
6.348577E+03	8.352235E-03	3.831160E-04
6.358496E+03	8.431984E-03	3.867686E-04
6.368416E+03	8.509294E-03	3.903112E-04
6.378335E+03	8.583515E-03	3.937140E-04
6.388255E+03	8.654612E-03	3.969754E-04
6.398175E+03	8.722362E-03	4.000853E-04
6.408094E+03	8.786553E-03	4.030339E-04
6.418014E+03	8.846991E-03	4.058123E-04
6.427934E+03	8.903494E-03	4.084123E-04
6.437853E+03	8.955898E-03	4.108263E-04
6.447773E+03	9.003842E-03	4.130377E-04
6.457693E+03	9.047631E-03	4.150606E-04
6.467612E+03	9.086941E-03	4.168801E-04
6.477532E+03	9.121460E-03	4.184818E-04
6.487452E+03	9.151561E-03	4.198829E-04
6.497371E+03	9.176973E-03	4.210708E-04
6.507291E+03	9.197664E-03	4.220442E-04
6.517211E+03	9.213622E-03	4.228023E-04
6.527130E+03	9.224851E-03	4.233454E-04
6.537050E+03	9.231602E-03	4.236850E-04
6.546970E+03	9.233691E-03	4.238124E-04
6.556889E+03	9.230946E-03	4.237198E-04
6.566809E+03	9.223892E-03	4.234312E-04
6.576728E+03	9.212615E-03	4.229506E-04
6.586648E+03	9.196762E-03	4.222615E-04
6.596568E+03	9.176896E-03	4.213899E-04
6.606487E+03	9.153139E-03	4.203411E-04
6.616407E+03	9.125169E-03	4.191005E-04
6.626327E+03	9.093577E-03	4.176950E-04
6.636246E+03	9.058511E-03	4.161314E-04
6.646166E+03	9.019675E-03	4.143959E-04
6.656086E+03	8.977673E-03	4.125163E-04
6.666005E+03	8.932667E-03	4.104999E-04
6.675925E+03	8.884599E-03	4.083440E-04
6.685845E+03	8.833856E-03	4.060662E-04
6.695764E+03	8.780385E-03	4.036641E-04
6.705684E+03	8.724351E-03	4.011451E-04
6.715604E+03	8.666141E-03	3.985270E-04
6.725523E+03	8.605918E-03	3.958172E-04
6.735443E+03	8.543625E-03	3.930130E-04
6.745363E+03	8.479424E-03	3.901218E-04
6.755282E+03	8.413897E-03	3.871703E-04
6.765202E+03	8.346555E-03	3.841358E-04
6.775122E+03	8.278181E-03	3.810544E-04
6.785041E+03	8.208493E-03	3.779131E-04
6.794961E+03	8.137631E-03	3.747182E-04
6.804880E+03	8.065934E-03	3.714851E-04
6.814800E+03	7.993524E-03	3.682197E-04
6.824720E+03	7.920318E-03	3.649178E-04
6.834639E+03	7.846633E-03	3.615941E-04
6.844559E+03	7.772575E-03	3.582535E-04
6.854479E+03	7.698046E-03	3.548913E-04
6.864398E+03	7.623342E-03	3.515212E-04
6.874318E+03	7.548358E-03	3.481382E-04
6.884238E+03	7.473373E-03	3.447552E-04
6.894157E+03	7.398276E-03	3.413671E-04
6.904077E+03	7.323520E-03	3.379947E-04
6.913997E+03	7.248606E-03	3.346149E-04
6.923916E+03	7.174164E-03	3.312567E-04
6.933836E+03	7.099693E-03	3.278972E-04
6.943756E+03	7.025803E-03	3.245643E-04
6.953675E+03	6.952178E-03	3.212434E-04
6.963595E+03	6.878867E-03	3.179369E-04
6.973515E+03	6.806092E-03	3.146549E-04
6.983434E+03	6.733892E-03	3.113992E-04
6.993354E+03	6.662128E-03	3.081633E-04
7.003273E+03	6.590834E-03	3.049489E-04
7.013193E+03	6.520217E-03	3.017655E-04
7.023113E+03	6.450301E-03	2.986142E-04
7.033032E+03	6.380943E-03	2.954884E-04
7.042952E+03	6.312172E-03	2.923894E-04
7.052872E+03	6.244012E-03	2.893182E-04
7.062791E+03	6.176809E-03	2.862910E-04
7.072711E+03	6.110096E-03	2.832860E-04
7.082631E+03	6.044216E-03	2.803193E-04
7.092550E+03	5.979028E-03	2.773842E-04
7.102470E+03	5.914549E-03	2.744815E-04
7.112390E+03	5.850798E-03	2.716122E-04
7.122309E+03	5.787947E-03	2.687841E-04
7.132229E+03	5.725856E-03	2.659909E-04
7.142149E+03	5.664693E-03	2.632402E-04
7.152068E+03	5.604172E-03	2.605189E-04
7.161988E+03	5.544462E-03	2.578348E-04
7.171908E+03	5.485724E-03	2.551953E-04
7.181827E+03	5.427824E-03	2.525944E-04
7.191747E+03	5.370780E-03	2.500328E-04
7.201667E+03	5.314465E-03	2.475046E-04
7.211586E+03	5.259178E-03	2.450237E-04
7.221506E+03	5.204791E-03	2.425843E-04
7.231425E+03	5.151318E-03	2.401870E-04
7.241345E+03	5.098637E-03	2.378261E-04
7.251265E+03	5.047035E-03	2.355150E-04
7.261184E+03	4.996384E-03	2.332479E-04
7.271104E+03	4.946564E-03	2.310190E-04
7.281024E+03	4.897721E-03	2.288352E-04
7.290943E+03	4.849859E-03	2.266969E-04
7.300863E+03	4.802988E-03	2.246045E-04
7.310783E+03	4.757111E-03	2.225580E-04
7.320702E+03	4.712104E-03	2.205519E-04
7.330622E+03	4.668095E-03	2.185921E-04
7.340542E+03	4.625082E-03	2.166785E-04
7.350461E+03	4.582937E-03	2.148052E-04
7.360381E+03	4.541775E-03	2.129776E-04
7.370301E+03	4.501586E-03	2.111953E-04
7.380220E+03	4.462234E-03	2.094520E-04
7.390140E+03	4.423827E-03	2.077527E-04
7.400060E+03	4.386227E-03	2.060909E-04
7.409979E+03	4.349529E-03	2.044714E-04
7.419899E+03	4.313597E-03	2.028875E-04
7.429818E+03	4.278521E-03	2.013437E-04
7.439738E+03	4.244277E-03	1.998389E-04
7.449658E+03	4.210613E-03	1.983612E-04
7.459577E+03	4.177858E-03	1.969261E-04
7.469497E+03	4.145679E-03	1.955180E-04
7.479417E+03	4.114421E-03	1.941531E-04
7.489336E+03	4.083751E-03	1.928157E-04
7.499256E+03	4.053895E-03	1.915167E-04
7.509176E+03	4.024744E-03	1.902506E-04
7.519095E+03	3.996405E-03	1.890227E-04
7.529015E+03	3.968763E-03	1.878275E-04
7.538935E+03	3.941810E-03	1.866646E-04
7.548854E+03	3.915647E-03	1.855389E-04
7.558774E+03	3.890148E-03	1.844444E-04
7.568694E+03	3.865301E-03	1.833805E-04
7.578613E+03	3.841089E-03	1.823464E-04
7.588533E+03	3.817597E-03	1.813462E-04
7.598453E+03	3.794698E-03	1.803739E-04
7.608372E+03	3.772372E-03	1.794285E-04
7.618292E+03	3.750700E-03	1.785139E-04
7.628211E+03	3.729449E-03	1.776191E-04
7.638131E+03	3.708804E-03	1.767528E-04
7.648051E+03	3.688637E-03	1.759090E-04
7.657970E+03	3.668926E-03	1.750865E-04
7.667890E+03	3.649746E-03	1.742892E-04
7.677810E+03	3.630872E-03	1.735060E-04
7.687729E+03	3.612484E-03	1.727458E-04
7.697649E+03	3.594459E-03	1.720026E-04
