#wls	flux	fluxerr
1.593070E+03	6.750374E-05	6.544503E-06
1.632897E+03	6.788738E-05	6.538667E-06
1.672724E+03	6.815204E-05	6.519970E-06
1.712550E+03	6.825054E-05	6.484134E-06
1.752377E+03	6.820989E-05	6.434015E-06
1.792204E+03	6.796014E-05	6.363331E-06
1.832031E+03	6.743759E-05	6.266594E-06
1.871857E+03	6.660973E-05	6.141393E-06
1.911684E+03	6.538462E-05	5.980009E-06
1.951511E+03	6.372417E-05	5.779911E-06
1.991338E+03	6.169819E-05	5.548432E-06
2.031164E+03	5.951997E-05	5.305520E-06
2.070991E+03	5.761304E-05	5.089042E-06
2.110818E+03	5.657780E-05	4.950964E-06
2.150645E+03	5.688430E-05	4.929908E-06
2.190471E+03	5.877939E-05	5.043638E-06
2.230298E+03	6.210635E-05	5.274637E-06
2.270125E+03	6.653361E-05	5.591080E-06
2.309952E+03	7.164311E-05	5.955009E-06
2.349778E+03	7.714133E-05	6.340132E-06
2.389605E+03	8.283908E-05	6.729676E-06
2.429432E+03	8.867002E-05	7.117409E-06
2.469259E+03	9.463732E-05	7.502850E-06
2.509085E+03	1.007601E-04	7.886730E-06
2.548912E+03	1.071230E-04	8.274759E-06
2.588739E+03	1.137723E-04	8.669317E-06
2.628566E+03	1.207793E-04	9.074477E-06
2.668392E+03	1.282682E-04	9.497858E-06
2.708219E+03	1.362853E-04	9.940810E-06
2.748046E+03	1.449276E-04	1.040805E-05
2.787873E+03	1.542632E-04	1.090176E-05
2.827700E+03	1.643866E-04	1.142556E-05
2.867526E+03	1.754199E-04	1.198441E-05
2.907353E+03	1.874554E-04	1.258061E-05
2.947180E+03	2.005519E-04	1.321369E-05
2.987007E+03	2.148846E-04	1.389029E-05
2.996963E+03	2.186710E-04	1.406625E-05
3.006920E+03	2.225360E-04	1.424459E-05
3.016877E+03	2.264798E-04	1.442521E-05
3.026833E+03	2.305056E-04	1.460825E-05
3.036790E+03	2.346569E-04	1.479635E-05
3.046747E+03	2.389158E-04	1.498825E-05
3.056703E+03	2.432789E-04	1.518362E-05
3.066660E+03	2.477754E-04	1.538416E-05
3.076617E+03	2.524025E-04	1.558954E-05
3.086573E+03	2.571257E-04	1.579751E-05
3.096530E+03	2.619747E-04	1.600977E-05
3.106487E+03	2.669148E-04	1.622407E-05
3.116443E+03	2.720083E-04	1.644407E-05
3.126400E+03	2.771883E-04	1.666558E-05
3.136357E+03	2.824849E-04	1.689029E-05
3.146314E+03	2.878959E-04	1.711794E-05
3.156270E+03	2.934192E-04	1.734827E-05
3.166227E+03	2.990525E-04	1.758102E-05
3.176184E+03	3.048271E-04	1.781788E-05
3.186140E+03	3.106741E-04	1.805469E-05
3.196097E+03	3.166583E-04	1.829510E-05
3.206054E+03	3.227775E-04	1.853882E-05
3.216010E+03	3.289961E-04	1.878367E-05
3.225967E+03	3.353117E-04	1.902938E-05
3.235924E+03	3.417561E-04	1.927763E-05
3.245880E+03	3.483267E-04	1.952812E-05
3.255837E+03	3.550216E-04	1.978058E-05
3.265794E+03	3.618043E-04	2.003286E-05
3.275750E+03	3.687405E-04	2.028846E-05
3.285707E+03	3.757938E-04	2.054518E-05
3.295664E+03	3.829274E-04	2.080091E-05
3.305621E+03	3.902073E-04	2.105909E-05
3.315577E+03	3.976307E-04	2.131940E-05
3.325534E+03	4.051264E-04	2.157786E-05
3.335491E+03	4.127949E-04	2.183971E-05
3.345447E+03	4.205295E-04	2.209912E-05
3.355404E+03	4.284313E-04	2.236128E-05
3.365361E+03	4.364279E-04	2.262223E-05
3.375317E+03	4.445506E-04	2.288346E-05
3.385274E+03	4.527966E-04	2.314467E-05
3.395231E+03	4.611621E-04	2.340552E-05
3.405187E+03	4.696442E-04	2.366570E-05
3.415144E+03	4.782742E-04	2.392662E-05
3.425101E+03	4.869792E-04	2.418449E-05
3.435057E+03	4.958608E-04	2.444422E-05
3.445014E+03	5.048125E-04	2.470037E-05
3.454971E+03	5.139376E-04	2.495786E-05
3.464928E+03	5.231683E-04	2.521321E-05
3.474884E+03	5.325095E-04	2.546652E-05
3.484841E+03	5.420401E-04	2.572139E-05
3.494798E+03	5.517042E-04	2.597496E-05
3.504754E+03	5.615881E-04	2.623108E-05
3.514711E+03	5.716759E-04	2.648876E-05
3.524668E+03	5.819886E-04	2.674871E-05
3.534624E+03	5.925483E-04	2.701166E-05
3.544581E+03	6.034128E-04	2.727993E-05
3.554538E+03	6.145711E-04	2.755267E-05
3.564494E+03	6.260825E-04	2.783215E-05
3.574451E+03	6.379718E-04	2.811906E-05
3.584408E+03	6.502646E-04	2.841406E-05
3.594365E+03	6.629524E-04	2.871630E-05
3.604321E+03	6.760973E-04	2.902798E-05
3.614278E+03	6.897615E-04	2.935120E-05
3.624235E+03	7.039392E-04	2.968512E-05
3.634191E+03	7.186594E-04	3.003032E-05
3.644148E+03	7.339524E-04	3.038742E-05
3.654105E+03	7.498831E-04	3.075841E-05
3.664061E+03	7.664815E-04	3.114374E-05
3.674018E+03	7.837414E-04	3.154239E-05
3.683975E+03	8.017251E-04	3.195605E-05
3.693931E+03	8.204582E-04	3.238487E-05
3.703888E+03	8.399641E-04	3.282888E-05
3.713845E+03	8.603020E-04	3.328946E-05
3.723801E+03	8.814233E-04	3.376376E-05
3.733758E+03	9.034250E-04	3.425455E-05
3.743715E+03	9.262993E-04	3.476047E-05
3.753672E+03	9.500782E-04	3.528169E-05
3.763628E+03	9.748373E-04	3.581992E-05
3.773585E+03	1.000585E-03	3.637431E-05
3.783542E+03	1.027413E-03	3.694700E-05
3.793498E+03	1.055385E-03	3.753896E-05
3.803455E+03	1.084570E-03	3.815131E-05
3.813412E+03	1.115006E-03	3.878393E-05
3.823368E+03	1.146812E-03	3.943947E-05
3.833325E+03	1.180073E-03	4.011916E-05
3.843282E+03	1.214871E-03	4.082413E-05
3.853238E+03	1.251244E-03	4.155383E-05
3.863195E+03	1.289340E-03	4.231123E-05
3.873152E+03	1.329121E-03	4.309316E-05
3.883108E+03	1.370690E-03	4.390097E-05
3.893065E+03	1.413953E-03	4.472958E-05
3.903022E+03	1.458902E-03	4.557686E-05
3.912979E+03	1.505453E-03	4.643823E-05
3.922935E+03	1.553436E-03	4.730672E-05
3.932892E+03	1.602773E-03	4.817841E-05
3.942849E+03	1.653177E-03	4.904324E-05
3.952805E+03	1.704415E-03	4.989332E-05
3.962762E+03	1.756284E-03	5.072186E-05
3.972719E+03	1.808474E-03	5.151945E-05
3.982675E+03	1.860764E-03	5.227970E-05
3.992632E+03	1.912849E-03	5.299415E-05
4.002589E+03	1.964475E-03	5.365634E-05
4.012545E+03	2.015398E-03	5.426039E-05
4.022502E+03	2.065325E-03	5.479961E-05
4.032459E+03	2.114067E-03	5.527045E-05
4.042415E+03	2.161387E-03	5.566843E-05
4.052372E+03	2.206946E-03	5.598688E-05
4.062329E+03	2.250610E-03	5.622476E-05
4.072286E+03	2.292066E-03	5.637686E-05
4.082242E+03	2.331177E-03	5.644271E-05
4.092199E+03	2.367752E-03	5.642082E-05
4.102156E+03	2.401724E-03	5.631282E-05
4.112112E+03	2.433066E-03	5.612142E-05
4.122069E+03	2.461928E-03	5.585340E-05
4.132026E+03	2.488440E-03	5.551478E-05
4.141982E+03	2.512833E-03	5.511369E-05
4.151939E+03	2.535334E-03	5.465779E-05
4.161896E+03	2.556295E-03	5.415705E-05
4.171852E+03	2.575947E-03	5.361839E-05
4.181809E+03	2.594623E-03	5.305047E-05
4.191766E+03	2.612713E-03	5.246266E-05
4.201723E+03	2.630466E-03	5.186093E-05
4.211679E+03	2.648229E-03	5.125284E-05
4.221636E+03	2.666338E-03	5.064527E-05
4.231593E+03	2.685078E-03	5.004364E-05
4.241549E+03	2.704762E-03	4.945358E-05
4.251506E+03	2.725668E-03	4.887966E-05
4.261463E+03	2.747971E-03	4.832429E-05
4.271419E+03	2.771787E-03	4.778869E-05
4.281376E+03	2.797030E-03	4.727058E-05
4.291333E+03	2.823476E-03	4.676557E-05
4.301289E+03	2.850727E-03	4.626683E-05
4.311246E+03	2.878232E-03	4.576567E-05
4.321203E+03	2.905453E-03	4.525441E-05
4.331159E+03	2.931726E-03	4.472419E-05
4.341116E+03	2.956414E-03	4.416741E-05
4.351073E+03	2.978881E-03	4.357732E-05
4.361030E+03	2.998494E-03	4.294801E-05
4.370986E+03	3.014679E-03	4.227509E-05
4.380943E+03	3.027760E-03	4.156716E-05
4.390900E+03	3.038845E-03	4.084289E-05
4.400856E+03	3.049158E-03	4.012115E-05
4.410813E+03	3.059897E-03	3.941913E-05
4.420770E+03	3.072372E-03	3.875408E-05
4.430726E+03	3.087795E-03	3.814074E-05
4.440683E+03	3.107565E-03	3.759502E-05
4.450640E+03	3.132893E-03	3.712932E-05
4.460596E+03	3.165020E-03	3.675551E-05
4.470553E+03	3.205122E-03	3.648386E-05
4.480510E+03	3.254215E-03	3.632218E-05
4.490466E+03	3.312979E-03	3.627382E-05
4.500423E+03	3.381687E-03	3.633660E-05
4.510380E+03	3.460292E-03	3.650498E-05
4.520337E+03	3.548240E-03	3.676867E-05
4.530293E+03	3.644763E-03	3.711597E-05
4.540250E+03	3.748637E-03	3.753149E-05
4.550207E+03	3.858593E-03	3.800051E-05
4.560163E+03	3.972820E-03	3.850413E-05
4.570120E+03	4.089458E-03	3.902418E-05
4.580077E+03	4.206482E-03	3.954218E-05
4.590033E+03	4.321493E-03	4.003725E-05
4.599990E+03	4.432118E-03	4.049000E-05
4.609947E+03	4.535931E-03	4.088159E-05
4.619903E+03	4.630503E-03	4.119413E-05
4.629860E+03	4.713577E-03	4.141204E-05
4.639817E+03	4.783070E-03	4.152192E-05
4.649773E+03	4.837327E-03	4.151453E-05
4.659730E+03	4.875323E-03	4.138616E-05
4.669687E+03	4.896665E-03	4.113839E-05
4.679644E+03	4.902068E-03	4.078167E-05
4.689600E+03	4.893095E-03	4.033280E-05
4.699557E+03	4.871995E-03	3.981333E-05
4.709514E+03	4.841727E-03	3.924961E-05
4.719470E+03	4.805391E-03	3.866814E-05
4.729427E+03	4.766201E-03	3.809544E-05
4.739384E+03	4.727349E-03	3.755713E-05
4.749340E+03	4.691589E-03	3.707481E-05
4.759297E+03	4.661550E-03	3.666879E-05
4.769254E+03	4.639099E-03	3.635323E-05
4.779210E+03	4.624400E-03	3.612912E-05
4.789167E+03	4.617297E-03	3.599521E-05
4.799124E+03	4.617504E-03	3.594964E-05
4.809080E+03	4.624516E-03	3.598911E-05
4.819037E+03	4.637799E-03	3.611044E-05
4.828994E+03	4.656599E-03	3.630896E-05
4.838951E+03	4.680293E-03	3.658122E-05
4.848907E+03	4.708082E-03	3.692250E-05
4.858864E+03	4.739261E-03	3.732786E-05
4.868821E+03	4.773089E-03	3.779002E-05
4.878777E+03	4.808777E-03	3.830097E-05
4.888734E+03	4.845732E-03	3.885410E-05
4.898691E+03	4.883131E-03	3.944077E-05
4.908647E+03	4.920322E-03	4.005356E-05
4.918604E+03	4.956688E-03	4.068509E-05
4.928561E+03	4.991629E-03	4.132797E-05
4.938517E+03	5.024632E-03	4.197534E-05
4.948474E+03	5.055340E-03	4.262153E-05
4.958431E+03	5.083440E-03	4.326111E-05
4.968388E+03	5.108785E-03	4.389005E-05
4.978344E+03	5.131060E-03	4.450289E-05
4.988301E+03	5.150185E-03	4.509613E-05
4.998258E+03	5.166055E-03	4.566618E-05
5.008214E+03	5.178509E-03	4.620896E-05
5.018171E+03	5.187600E-03	4.672244E-05
5.028128E+03	5.193324E-03	4.720416E-05
5.038084E+03	5.195920E-03	4.765403E-05
5.048041E+03	5.195795E-03	4.807374E-05
5.057998E+03	5.193493E-03	4.846652E-05
5.067954E+03	5.189781E-03	4.883803E-05
5.077911E+03	5.185469E-03	4.919467E-05
5.087868E+03	5.181332E-03	4.954292E-05
5.097824E+03	5.178073E-03	4.988889E-05
5.107781E+03	5.176205E-03	5.023713E-05
5.117738E+03	5.176202E-03	5.059206E-05
5.127695E+03	5.178197E-03	5.095494E-05
5.137651E+03	5.182478E-03	5.132867E-05
5.147608E+03	5.188977E-03	5.171272E-05
5.157565E+03	5.197748E-03	5.210784E-05
5.167521E+03	5.208679E-03	5.251316E-05
5.177478E+03	5.221611E-03	5.292736E-05
5.187435E+03	5.236411E-03	5.334938E-05
5.197391E+03	5.252834E-03	5.377706E-05
5.207348E+03	5.270858E-03	5.421052E-05
5.217305E+03	5.290228E-03	5.464754E-05
5.227261E+03	5.310838E-03	5.508743E-05
5.237218E+03	5.332496E-03	5.552867E-05
5.247175E+03	5.355038E-03	5.597003E-05
5.257131E+03	5.378003E-03	5.640722E-05
5.267088E+03	5.401051E-03	5.683723E-05
5.277045E+03	5.423639E-03	5.725491E-05
5.287002E+03	5.445082E-03	5.765361E-05
5.296958E+03	5.464784E-03	5.802762E-05
5.306915E+03	5.481988E-03	5.836950E-05
5.316872E+03	5.495863E-03	5.867104E-05
5.326828E+03	5.505738E-03	5.892569E-05
5.336785E+03	5.511025E-03	5.912782E-05
5.346742E+03	5.511132E-03	5.927173E-05
5.356698E+03	5.505686E-03	5.935408E-05
5.366655E+03	5.494377E-03	5.937219E-05
5.376612E+03	5.477029E-03	5.932484E-05
5.386568E+03	5.453619E-03	5.921245E-05
5.396525E+03	5.424325E-03	5.903758E-05
5.406482E+03	5.389695E-03	5.880685E-05
5.416438E+03	5.350416E-03	5.852836E-05
5.426395E+03	5.307643E-03	5.821540E-05
5.436352E+03	5.262923E-03	5.788555E-05
5.446309E+03	5.217792E-03	5.755623E-05
5.456265E+03	5.173823E-03	5.724394E-05
5.466222E+03	5.132696E-03	5.696614E-05
5.476179E+03	5.095356E-03	5.673234E-05
5.486135E+03	5.061621E-03	5.653965E-05
5.496092E+03	5.030825E-03	5.637978E-05
5.506049E+03	5.002353E-03	5.624494E-05
5.516005E+03	4.975647E-03	5.612791E-05
5.525962E+03	4.950138E-03	5.602131E-05
5.535919E+03	4.925267E-03	5.591787E-05
5.545875E+03	4.900780E-03	5.581367E-05
5.555832E+03	4.876576E-03	5.570659E-05
5.565789E+03	4.852497E-03	5.559390E-05
5.575746E+03	4.828746E-03	5.547701E-05
5.585702E+03	4.805469E-03	5.535674E-05
5.595659E+03	4.782695E-03	5.523267E-05
5.605616E+03	4.760467E-03	5.510454E-05
5.615572E+03	4.738782E-03	5.497163E-05
5.625529E+03	4.717447E-03	5.483105E-05
5.635486E+03	4.696253E-03	5.467975E-05
5.645442E+03	4.674951E-03	5.451425E-05
5.655399E+03	4.653268E-03	5.433081E-05
5.665356E+03	4.631036E-03	5.412696E-05
5.675312E+03	4.608190E-03	5.390151E-05
5.685269E+03	4.584760E-03	5.365440E-05
5.695226E+03	4.560973E-03	5.338798E-05
5.705182E+03	4.537241E-03	5.310676E-05
5.715139E+03	4.513939E-03	5.281495E-05
5.725096E+03	4.491608E-03	5.251870E-05
5.735053E+03	4.470829E-03	5.222459E-05
5.745009E+03	4.452197E-03	5.193945E-05
5.754966E+03	4.436257E-03	5.166941E-05
5.764923E+03	4.423605E-03	5.142118E-05
5.774879E+03	4.414626E-03	5.119894E-05
5.784836E+03	4.409684E-03	5.100651E-05
5.794793E+03	4.409038E-03	5.084645E-05
5.804749E+03	4.412671E-03	5.071802E-05
5.814706E+03	4.420348E-03	5.061796E-05
5.824663E+03	4.431665E-03	5.054101E-05
5.834619E+03	4.446052E-03	5.048012E-05
5.844576E+03	4.462631E-03	5.042480E-05
5.854533E+03	4.480461E-03	5.036405E-05
5.864489E+03	4.498554E-03	5.028655E-05
5.874446E+03	4.515749E-03	5.017938E-05
5.884403E+03	4.530995E-03	5.003120E-05
5.894360E+03	4.543385E-03	4.983262E-05
5.904316E+03	4.552056E-03	4.957513E-05
5.914273E+03	4.556545E-03	4.925494E-05
5.924230E+03	4.556625E-03	4.887111E-05
5.934186E+03	4.552482E-03	4.842729E-05
5.944143E+03	4.544606E-03	4.793045E-05
5.954100E+03	4.533651E-03	4.738921E-05
5.964056E+03	4.520423E-03	4.681367E-05
5.974013E+03	4.505784E-03	4.621430E-05
5.983970E+03	4.490601E-03	4.560134E-05
5.993926E+03	4.475620E-03	4.498358E-05
6.003883E+03	4.461720E-03	4.437089E-05
6.013840E+03	4.449566E-03	4.377070E-05
6.023796E+03	4.439746E-03	4.318953E-05
6.033753E+03	4.432780E-03	4.263298E-05
6.043710E+03	4.429119E-03	4.210590E-05
6.053667E+03	4.428977E-03	4.161076E-05
6.063623E+03	4.432471E-03	4.114916E-05
6.073580E+03	4.439548E-03	4.072119E-05
6.083537E+03	4.449990E-03	4.032559E-05
6.093493E+03	4.463412E-03	3.995985E-05
6.103450E+03	4.479315E-03	3.962081E-05
6.113407E+03	4.496977E-03	3.930372E-05
6.123363E+03	4.515653E-03	3.900413E-05
6.133320E+03	4.534522E-03	3.871740E-05
6.143277E+03	4.552631E-03	3.843825E-05
6.153233E+03	4.569159E-03	3.816301E-05
6.163190E+03	4.583116E-03	3.788697E-05
6.173147E+03	4.593400E-03	3.760489E-05
6.183103E+03	4.599078E-03	3.731317E-05
6.193060E+03	4.598838E-03	3.700533E-05
6.203017E+03	4.591375E-03	3.667503E-05
6.212974E+03	4.575395E-03	3.631593E-05
6.222930E+03	4.550099E-03	3.592492E-05
6.232887E+03	4.515876E-03	3.550579E-05
6.242844E+03	4.473251E-03	3.506222E-05
6.252800E+03	4.422874E-03	3.459824E-05
6.262757E+03	4.365461E-03	3.411790E-05
6.272714E+03	4.301942E-03	3.362646E-05
6.282670E+03	4.233322E-03	3.312942E-05
6.292627E+03	4.160792E-03	3.263352E-05
6.302584E+03	4.085666E-03	3.214635E-05
6.312540E+03	4.009678E-03	3.167884E-05
6.322497E+03	3.934780E-03	3.124386E-05
6.332454E+03	3.863183E-03	3.085674E-05
6.342411E+03	3.797144E-03	3.053378E-05
6.352367E+03	3.738931E-03	3.029212E-05
6.362324E+03	3.690805E-03	3.014973E-05
6.372281E+03	3.654951E-03	3.012501E-05
6.382237E+03	3.633408E-03	3.023628E-05
6.392194E+03	3.628296E-03	3.050373E-05
6.402151E+03	3.641599E-03	3.094772E-05
6.412107E+03	3.675287E-03	3.158988E-05
6.422064E+03	3.731031E-03	3.245063E-05
6.432021E+03	3.810331E-03	3.355034E-05
6.441977E+03	3.914171E-03	3.490586E-05
6.451934E+03	4.042960E-03	3.652898E-05
6.461891E+03	4.196752E-03	3.842862E-05
6.471847E+03	4.374898E-03	4.060763E-05
6.481804E+03	4.576432E-03	4.306578E-05
6.491761E+03	4.799519E-03	4.579421E-05
6.501718E+03	5.041833E-03	4.877844E-05
6.511674E+03	5.298522E-03	5.197786E-05
6.521631E+03	5.561367E-03	5.531565E-05
6.531588E+03	5.820984E-03	5.869847E-05
6.541544E+03	6.067416E-03	6.202167E-05
6.551501E+03	6.290972E-03	6.517757E-05
6.561458E+03	6.483316E-03	6.806712E-05
6.571414E+03	6.637857E-03	7.060503E-05
6.581371E+03	6.750127E-03	7.272525E-05
6.591328E+03	6.817979E-03	7.438475E-05
6.601284E+03	6.841575E-03	7.556507E-05
6.611241E+03	6.823324E-03	7.627336E-05
6.621198E+03	6.767192E-03	7.653617E-05
6.631154E+03	6.678758E-03	7.640111E-05
6.641111E+03	6.563878E-03	7.592247E-05
6.651068E+03	6.428817E-03	7.516285E-05
6.661025E+03	6.279296E-03	7.418204E-05
6.670981E+03	6.120565E-03	7.303744E-05
6.680938E+03	5.957266E-03	7.178203E-05
6.690895E+03	5.793081E-03	7.045952E-05
6.700851E+03	5.631280E-03	6.911043E-05
6.710808E+03	5.474239E-03	6.776578E-05
6.720765E+03	5.323814E-03	6.645116E-05
6.730721E+03	5.181339E-03	6.518638E-05
6.740678E+03	5.047726E-03	6.398634E-05
6.750635E+03	4.923448E-03	6.286060E-05
6.760591E+03	4.808867E-03	6.181736E-05
6.770548E+03	4.703909E-03	6.085911E-05
6.780505E+03	4.608322E-03	5.998587E-05
6.790461E+03	4.521903E-03	5.919805E-05
6.800418E+03	4.444120E-03	5.849147E-05
6.810375E+03	4.374517E-03	5.786261E-05
6.820332E+03	4.312668E-03	5.730807E-05
6.830288E+03	4.258074E-03	5.682321E-05
6.840245E+03	4.210188E-03	5.640243E-05
6.850202E+03	4.168510E-03	5.604052E-05
6.860158E+03	4.132613E-03	5.573300E-05
6.870115E+03	4.101891E-03	5.547277E-05
6.880072E+03	4.075973E-03	5.525566E-05
6.890028E+03	4.054305E-03	5.507488E-05
6.899985E+03	4.036398E-03	5.492432E-05
6.909942E+03	4.021764E-03	5.479779E-05
6.919898E+03	4.009924E-03	5.468907E-05
6.929855E+03	4.000351E-03	5.459121E-05
6.939812E+03	3.992646E-03	5.449892E-05
6.949769E+03	3.986328E-03	5.440578E-05
6.959725E+03	3.981045E-03	5.430705E-05
6.969682E+03	3.976370E-03	5.419702E-05
6.979639E+03	3.972038E-03	5.407216E-05
6.989595E+03	3.967713E-03	5.392801E-05
6.999552E+03	3.963177E-03	5.376176E-05
7.009509E+03	3.958289E-03	5.357169E-05
7.019465E+03	3.952907E-03	5.335611E-05
7.029422E+03	3.947122E-03	5.311651E-05
7.039379E+03	3.940900E-03	5.285273E-05
7.049335E+03	3.934247E-03	5.256518E-05
7.059292E+03	3.927308E-03	5.225614E-05
7.069249E+03	3.920131E-03	5.192664E-05
7.079205E+03	3.912896E-03	5.157942E-05
7.089162E+03	3.905735E-03	5.121660E-05
7.099119E+03	3.898667E-03	5.083880E-05
7.109076E+03	3.891940E-03	5.044962E-05
7.119032E+03	3.885608E-03	5.005012E-05
7.128989E+03	3.879813E-03	4.964248E-05
7.138946E+03	3.874492E-03	4.922621E-05
7.148902E+03	3.869711E-03	4.880253E-05
7.158859E+03	3.865449E-03	4.837155E-05
7.168816E+03	3.861643E-03	4.793285E-05
7.178772E+03	3.858206E-03	4.748581E-05
7.188729E+03	3.854982E-03	4.702901E-05
7.198686E+03	3.851966E-03	4.656295E-05
7.208642E+03	3.848866E-03	4.608474E-05
7.218599E+03	3.845734E-03	4.559574E-05
7.228556E+03	3.842269E-03	4.509317E-05
7.238512E+03	3.838458E-03	4.457782E-05
7.248469E+03	3.834164E-03	4.404907E-05
7.258426E+03	3.829130E-03	4.350510E-05
7.268383E+03	3.823328E-03	4.294683E-05
7.278339E+03	3.816629E-03	4.237412E-05
7.288296E+03	3.808803E-03	4.178589E-05
7.298253E+03	3.799855E-03	4.118374E-05
7.308209E+03	3.789863E-03	4.057014E-05
7.318166E+03	3.778794E-03	3.994642E-05
7.328123E+03	3.766863E-03	3.931654E-05
7.338079E+03	3.754335E-03	3.868491E-05
7.348036E+03	3.741333E-03	3.805443E-05
7.357993E+03	3.728146E-03	3.742966E-05
7.367949E+03	3.715040E-03	3.681480E-05
7.377906E+03	3.702043E-03	3.621166E-05
7.387863E+03	3.689339E-03	3.562357E-05
7.397819E+03	3.676835E-03	3.505118E-05
7.407776E+03	3.664401E-03	3.449489E-05
7.417733E+03	3.651819E-03	3.395436E-05
7.427690E+03	3.638923E-03	3.342986E-05
7.437646E+03	3.625284E-03	3.291936E-05
7.447603E+03	3.610597E-03	3.242209E-05
7.457560E+03	3.594726E-03	3.193887E-05
7.467516E+03	3.577324E-03	3.146864E-05
7.477473E+03	3.558422E-03	3.101361E-05
7.487430E+03	3.538043E-03	3.057581E-05
7.497386E+03	3.516161E-03	3.015665E-05
7.507343E+03	3.493044E-03	2.975976E-05
7.517300E+03	3.468805E-03	2.938581E-05
7.527256E+03	3.443637E-03	2.903497E-05
7.537213E+03	3.417752E-03	2.870740E-05
7.547170E+03	3.391434E-03	2.840374E-05
7.557126E+03	3.364825E-03	2.812336E-05
7.567083E+03	3.338387E-03	2.786827E-05
7.577040E+03	3.312271E-03	2.763790E-05
7.586997E+03	3.286901E-03	2.743395E-05
7.596953E+03	3.262400E-03	2.725570E-05
7.606910E+03	3.238811E-03	2.710186E-05
7.616867E+03	3.216322E-03	2.697240E-05
7.626823E+03	3.195103E-03	2.686731E-05
7.636780E+03	3.175343E-03	2.678683E-05
7.646737E+03	3.157197E-03	2.673109E-05
7.656693E+03	3.140996E-03	2.670182E-05
7.666650E+03	3.126875E-03	2.669927E-05
7.676607E+03	3.114941E-03	2.672360E-05
7.686563E+03	3.105396E-03	2.677593E-05
7.696520E+03	3.098197E-03	2.685543E-05
7.706477E+03	3.093308E-03	2.696141E-05
7.716434E+03	3.090441E-03	2.709112E-05
7.726390E+03	3.089418E-03	2.724280E-05
