#wls	flux	fluxerr
1.593070E+03	2.611574E-05	6.283691E-06
1.632897E+03	2.634682E-05	6.301595E-06
1.672724E+03	2.650840E-05	6.301440E-06
1.712550E+03	2.658575E-05	6.280020E-06
1.752377E+03	2.658275E-05	6.238602E-06
1.792204E+03	2.646883E-05	6.170412E-06
1.832031E+03	2.623979E-05	6.074999E-06
1.871857E+03	2.584687E-05	5.941718E-06
1.911684E+03	2.527484E-05	5.767925E-06
1.951511E+03	2.451235E-05	5.551995E-06
1.991338E+03	2.358382E-05	5.300471E-06
2.031164E+03	2.257682E-05	5.033835E-06
2.070991E+03	2.166397E-05	4.790789E-06
2.110818E+03	2.104941E-05	4.615674E-06
2.150645E+03	2.091199E-05	4.545760E-06
2.190471E+03	2.132743E-05	4.594646E-06
2.230298E+03	2.220821E-05	4.740366E-06
2.270125E+03	2.340864E-05	4.949235E-06
2.309952E+03	2.476975E-05	5.185868E-06
2.349778E+03	2.617169E-05	5.424253E-06
2.389605E+03	2.755195E-05	5.651121E-06
2.429432E+03	2.886211E-05	5.856604E-06
2.469259E+03	3.011233E-05	6.043021E-06
2.509085E+03	3.130089E-05	6.210257E-06
2.548912E+03	3.245001E-05	6.362930E-06
2.588739E+03	3.355733E-05	6.500695E-06
2.628566E+03	3.466658E-05	6.632060E-06
2.668392E+03	3.576651E-05	6.754727E-06
2.708219E+03	3.690104E-05	6.876798E-06
2.748046E+03	3.806779E-05	6.997416E-06
2.787873E+03	3.929279E-05	7.120892E-06
2.827700E+03	4.060327E-05	7.251466E-06
2.867526E+03	4.201858E-05	7.391685E-06
2.907353E+03	4.356022E-05	7.544241E-06
2.947180E+03	4.525253E-05	7.712044E-06
2.987007E+03	4.715344E-05	7.903323E-06
2.996963E+03	4.766512E-05	7.955221E-06
3.006920E+03	4.818749E-05	8.008035E-06
3.016877E+03	4.873122E-05	8.063500E-06
3.026833E+03	4.928756E-05	8.120128E-06
3.036790E+03	4.986987E-05	8.180075E-06
3.046747E+03	5.047140E-05	8.242180E-06
3.056703E+03	5.110233E-05	8.308052E-06
3.066660E+03	5.176286E-05	8.377653E-06
3.076617E+03	5.244292E-05	8.449292E-06
3.086573E+03	5.315313E-05	8.524621E-06
3.096530E+03	5.389397E-05	8.603647E-06
3.106487E+03	5.465546E-05	8.684709E-06
3.116443E+03	5.544866E-05	8.769505E-06
3.126400E+03	5.627431E-05	8.858076E-06
3.136357E+03	5.713326E-05	8.950474E-06
3.146314E+03	5.801558E-05	9.045070E-06
3.156270E+03	5.893299E-05	9.143623E-06
3.166227E+03	5.989762E-05	9.247919E-06
3.176184E+03	6.088871E-05	9.354655E-06
3.186140E+03	6.191851E-05	9.465634E-06
3.196097E+03	6.298843E-05	9.580974E-06
3.206054E+03	6.409997E-05	9.700804E-06
3.216010E+03	6.525476E-05	9.825263E-06
3.225967E+03	6.646611E-05	9.956238E-06
3.235924E+03	6.771279E-05	1.009042E-05
3.245880E+03	6.902008E-05	1.023148E-05
3.255837E+03	7.037845E-05	1.037784E-05
3.265794E+03	7.179017E-05	1.052971E-05
3.275750E+03	7.326975E-05	1.068909E-05
3.285707E+03	7.479543E-05	1.085263E-05
3.295664E+03	7.640692E-05	1.102594E-05
3.305621E+03	7.808259E-05	1.120571E-05
3.315577E+03	7.982546E-05	1.139221E-05
3.325534E+03	8.165159E-05	1.158753E-05
3.335491E+03	8.356483E-05	1.179202E-05
3.345447E+03	8.556920E-05	1.200600E-05
3.355404E+03	8.765553E-05	1.222798E-05
3.365361E+03	8.984143E-05	1.246017E-05
3.375317E+03	9.213164E-05	1.270298E-05
3.385274E+03	9.453119E-05	1.295682E-05
3.395231E+03	9.704536E-05	1.322213E-05
3.405187E+03	9.969420E-05	1.350133E-05
3.415144E+03	1.024550E-04	1.379101E-05
3.425101E+03	1.053630E-04	1.409559E-05
3.435057E+03	1.084104E-04	1.441366E-05
3.445014E+03	1.116041E-04	1.474576E-05
3.454971E+03	1.149671E-04	1.509452E-05
3.464928E+03	1.185079E-04	1.546061E-05
3.474884E+03	1.222191E-04	1.584261E-05
3.484841E+03	1.261260E-04	1.624331E-05
3.494798E+03	1.302382E-04	1.666345E-05
3.504754E+03	1.345663E-04	1.710381E-05
3.514711E+03	1.391211E-04	1.756519E-05
3.524668E+03	1.439320E-04	1.805067E-05
3.534624E+03	1.489755E-04	1.855666E-05
3.544581E+03	1.543003E-04	1.908855E-05
3.554538E+03	1.599016E-04	1.964501E-05
3.564494E+03	1.658128E-04	2.022936E-05
3.574451E+03	1.720292E-04	2.084022E-05
3.584408E+03	1.785862E-04	2.148102E-05
3.594365E+03	1.855214E-04	2.215534E-05
3.604321E+03	1.928112E-04	2.285936E-05
3.614278E+03	2.004942E-04	2.359668E-05
3.624235E+03	2.085891E-04	2.436841E-05
3.634191E+03	2.171381E-04	2.517834E-05
3.644148E+03	2.261397E-04	2.602506E-05
3.654105E+03	2.356144E-04	2.690971E-05
3.664061E+03	2.456325E-04	2.783895E-05
3.674018E+03	2.561687E-04	2.880847E-05
3.683975E+03	2.672707E-04	2.982218E-05
3.693931E+03	2.789627E-04	3.088121E-05
3.703888E+03	2.912690E-04	3.198664E-05
3.713845E+03	3.042143E-04	3.313946E-05
3.723801E+03	3.178514E-04	3.434364E-05
3.733758E+03	3.322071E-04	3.560016E-05
3.743715E+03	3.472776E-04	3.690665E-05
3.753672E+03	3.631174E-04	3.826687E-05
3.763628E+03	3.797517E-04	3.968137E-05
3.773585E+03	3.972044E-04	4.115043E-05
3.783542E+03	4.155322E-04	4.267761E-05
3.793498E+03	4.347246E-04	4.425944E-05
3.803455E+03	4.548010E-04	4.589549E-05
3.813412E+03	4.758146E-04	4.758865E-05
3.823368E+03	4.977825E-04	4.933802E-05
3.833325E+03	5.207567E-04	5.114605E-05
3.843282E+03	5.446722E-04	5.300366E-05
3.853238E+03	5.696121E-04	5.491625E-05
3.863195E+03	5.955399E-04	5.687748E-05
3.873152E+03	6.225353E-04	5.889216E-05
3.883108E+03	6.505091E-04	6.094898E-05
3.893065E+03	6.794887E-04	6.304776E-05
3.903022E+03	7.094541E-04	6.518389E-05
3.912979E+03	7.404242E-04	6.735634E-05
3.922935E+03	7.723664E-04	6.955938E-05
3.932892E+03	8.051926E-04	7.178249E-05
3.942849E+03	8.389496E-04	7.402732E-05
3.952805E+03	8.734845E-04	7.627797E-05
3.962762E+03	9.088326E-04	7.853532E-05
3.972719E+03	9.449272E-04	8.079143E-05
3.982675E+03	9.816431E-04	8.303365E-05
3.992632E+03	1.018954E-03	8.525807E-05
4.002589E+03	1.056831E-03	8.746077E-05
4.012545E+03	1.095083E-03	8.962441E-05
4.022502E+03	1.133784E-03	9.175404E-05
4.032459E+03	1.172730E-03	9.383228E-05
4.042415E+03	1.211826E-03	9.585077E-05
4.052372E+03	1.251083E-03	9.781022E-05
4.062329E+03	1.290345E-03	9.969804E-05
4.072286E+03	1.329565E-03	1.015109E-04
4.082242E+03	1.368585E-03	1.032369E-04
4.092199E+03	1.407364E-03	1.048738E-04
4.102156E+03	1.445813E-03	1.064158E-04
4.112112E+03	1.483848E-03	1.078578E-04
4.122069E+03	1.521461E-03	1.092006E-04
4.132026E+03	1.558538E-03	1.104374E-04
4.141982E+03	1.595038E-03	1.115671E-04
4.151939E+03	1.631058E-03	1.125980E-04
4.161896E+03	1.666468E-03	1.135230E-04
4.171852E+03	1.701331E-03	1.143480E-04
4.181809E+03	1.735717E-03	1.150796E-04
4.191766E+03	1.769587E-03	1.157167E-04
4.201723E+03	1.802966E-03	1.162627E-04
4.211679E+03	1.835946E-03	1.167250E-04
4.221636E+03	1.868499E-03	1.171034E-04
4.231593E+03	1.900722E-03	1.174053E-04
4.241549E+03	1.932595E-03	1.176307E-04
4.251506E+03	1.964276E-03	1.177905E-04
4.261463E+03	1.995689E-03	1.178812E-04
4.271419E+03	2.026881E-03	1.179066E-04
4.281376E+03	2.057957E-03	1.178738E-04
4.291333E+03	2.088970E-03	1.177866E-04
4.301289E+03	2.119913E-03	1.176453E-04
4.311246E+03	2.150906E-03	1.174571E-04
4.321203E+03	2.181901E-03	1.172199E-04
4.331159E+03	2.213088E-03	1.169445E-04
4.341116E+03	2.244434E-03	1.166292E-04
4.351073E+03	2.276098E-03	1.162823E-04
4.361030E+03	2.308130E-03	1.159063E-04
4.370986E+03	2.340655E-03	1.155073E-04
4.380943E+03	2.373784E-03	1.150900E-04
4.390900E+03	2.407669E-03	1.146611E-04
4.400856E+03	2.442637E-03	1.142348E-04
4.410813E+03	2.478706E-03	1.138101E-04
4.420770E+03	2.516273E-03	1.134032E-04
4.430726E+03	2.555376E-03	1.130131E-04
4.440683E+03	2.596312E-03	1.126500E-04
4.450640E+03	2.639323E-03	1.123210E-04
4.460596E+03	2.684482E-03	1.120254E-04
4.470553E+03	2.732053E-03	1.117702E-04
4.480510E+03	2.782113E-03	1.115542E-04
4.490466E+03	2.834798E-03	1.113786E-04
4.500423E+03	2.890141E-03	1.112403E-04
4.510380E+03	2.948058E-03	1.111318E-04
4.520337E+03	3.008538E-03	1.110489E-04
4.530293E+03	3.071441E-03	1.109833E-04
4.540250E+03	3.136431E-03	1.109196E-04
4.550207E+03	3.203237E-03	1.108458E-04
4.560163E+03	3.271400E-03	1.107445E-04
4.570120E+03	3.340421E-03	1.105984E-04
4.580077E+03	3.409677E-03	1.103880E-04
4.590033E+03	3.478537E-03	1.100954E-04
4.599990E+03	3.546268E-03	1.097016E-04
4.609947E+03	3.612211E-03	1.091920E-04
4.619903E+03	3.675481E-03	1.085476E-04
4.629860E+03	3.735477E-03	1.077598E-04
4.639817E+03	3.791359E-03	1.068150E-04
4.649773E+03	3.842630E-03	1.057116E-04
4.659730E+03	3.888607E-03	1.044439E-04
4.669687E+03	3.928894E-03	1.030158E-04
4.679644E+03	3.963245E-03	1.014357E-04
4.689600E+03	3.991493E-03	9.971466E-05
4.699557E+03	4.013789E-03	9.787151E-05
4.709514E+03	4.030471E-03	9.592918E-05
4.719470E+03	4.042175E-03	9.391639E-05
4.729427E+03	4.049677E-03	9.186355E-05
4.739384E+03	4.054020E-03	8.980504E-05
4.749340E+03	4.056474E-03	8.777788E-05
4.759297E+03	4.058377E-03	8.581791E-05
4.769254E+03	4.060847E-03	8.395396E-05
4.779210E+03	4.064252E-03	8.219778E-05
4.789167E+03	4.068804E-03	8.055772E-05
4.799124E+03	4.074714E-03	7.904205E-05
4.809080E+03	4.082038E-03	7.765599E-05
4.819037E+03	4.090864E-03	7.640557E-05
4.828994E+03	4.101172E-03	7.529485E-05
4.838951E+03	4.112919E-03	7.432768E-05
4.848907E+03	4.126022E-03	7.350712E-05
4.858864E+03	4.140297E-03	7.283451E-05
4.868821E+03	4.155577E-03	7.231134E-05
4.878777E+03	4.171671E-03	7.193832E-05
4.888734E+03	4.188278E-03	7.171109E-05
4.898691E+03	4.205279E-03	7.162252E-05
4.908647E+03	4.222362E-03	7.166092E-05
4.918604E+03	4.239364E-03	7.181651E-05
4.928561E+03	4.256042E-03	7.207756E-05
4.938517E+03	4.272218E-03	7.243298E-05
4.948474E+03	4.287771E-03	7.287223E-05
4.958431E+03	4.302525E-03	7.338360E-05
4.968388E+03	4.316357E-03	7.395615E-05
4.978344E+03	4.329220E-03	7.458017E-05
4.988301E+03	4.340996E-03	7.524487E-05
4.998258E+03	4.351682E-03	7.594157E-05
5.008214E+03	4.361207E-03	7.666074E-05
5.018171E+03	4.369718E-03	7.739697E-05
5.028128E+03	4.377129E-03	7.814119E-05
5.038084E+03	4.383668E-03	7.889034E-05
5.048041E+03	4.389415E-03	7.963935E-05
5.057998E+03	4.394592E-03	8.038621E-05
5.067954E+03	4.399412E-03	8.112936E-05
5.077911E+03	4.404206E-03	8.187004E-05
5.087868E+03	4.409147E-03	8.260723E-05
5.097824E+03	4.414595E-03	8.334393E-05
5.107781E+03	4.420862E-03	8.408288E-05
5.117738E+03	4.428201E-03	8.482628E-05
5.127695E+03	4.436889E-03	8.557724E-05
5.137651E+03	4.447116E-03	8.633768E-05
5.147608E+03	4.459129E-03	8.711104E-05
5.157565E+03	4.472988E-03	8.789747E-05
5.167521E+03	4.488787E-03	8.869801E-05
5.177478E+03	4.506621E-03	8.951410E-05
5.187435E+03	4.526437E-03	9.034436E-05
5.197391E+03	4.548141E-03	9.118687E-05
5.207348E+03	4.571634E-03	9.203968E-05
5.217305E+03	4.596827E-03	9.290124E-05
5.227261E+03	4.623503E-03	9.376758E-05
5.237218E+03	4.651404E-03	9.463403E-05
5.247175E+03	4.680337E-03	9.549735E-05
5.257131E+03	4.709928E-03	9.635081E-05
5.267088E+03	4.739918E-03	9.719017E-05
5.277045E+03	4.769972E-03	9.800981E-05
5.287002E+03	4.799740E-03	9.880396E-05
5.296958E+03	4.828757E-03	9.956471E-05
5.306915E+03	4.856650E-03	1.002863E-04
5.316872E+03	4.883149E-03	1.009651E-04
5.326828E+03	4.907761E-03	1.015933E-04
5.336785E+03	4.930216E-03	1.021679E-04
5.346742E+03	4.950196E-03	1.026850E-04
5.356698E+03	4.967481E-03	1.031430E-04
5.366655E+03	4.981919E-03	1.035417E-04
5.376612E+03	4.993373E-03	1.038816E-04
5.386568E+03	5.001827E-03	1.041657E-04
5.396525E+03	5.007331E-03	1.043984E-04
5.406482E+03	5.009910E-03	1.045837E-04
5.416438E+03	5.009805E-03	1.047300E-04
5.426395E+03	5.007289E-03	1.048463E-04
5.436352E+03	5.002596E-03	1.049410E-04
5.446309E+03	4.996140E-03	1.050258E-04
5.456265E+03	4.988447E-03	1.051149E-04
5.466222E+03	4.979938E-03	1.052176E-04
5.476179E+03	4.971041E-03	1.053397E-04
5.486135E+03	4.961618E-03	1.054744E-04
5.496092E+03	4.951452E-03	1.056135E-04
5.506049E+03	4.940295E-03	1.057476E-04
5.516005E+03	4.927918E-03	1.058679E-04
5.525962E+03	4.914027E-03	1.059640E-04
5.535919E+03	4.898501E-03	1.060292E-04
5.545875E+03	4.881224E-03	1.060570E-04
5.555832E+03	4.862115E-03	1.060416E-04
5.565789E+03	4.841104E-03	1.059776E-04
5.575746E+03	4.818255E-03	1.058626E-04
5.585702E+03	4.793568E-03	1.056931E-04
5.595659E+03	4.767114E-03	1.054671E-04
5.605616E+03	4.738968E-03	1.051832E-04
5.615572E+03	4.709162E-03	1.048391E-04
5.625529E+03	4.677769E-03	1.044336E-04
5.635486E+03	4.644857E-03	1.039658E-04
5.645442E+03	4.610492E-03	1.034349E-04
5.655399E+03	4.574714E-03	1.028398E-04
5.665356E+03	4.537629E-03	1.021810E-04
5.675312E+03	4.499341E-03	1.014594E-04
5.685269E+03	4.460058E-03	1.006786E-04
5.695226E+03	4.420054E-03	9.984346E-05
5.705182E+03	4.379599E-03	9.895952E-05
5.715139E+03	4.339225E-03	9.803815E-05
5.725096E+03	4.299329E-03	9.708793E-05
5.735053E+03	4.260550E-03	9.612304E-05
5.745009E+03	4.223542E-03	9.515800E-05
5.754966E+03	4.188862E-03	9.420513E-05
5.764923E+03	4.157274E-03	9.328140E-05
5.774879E+03	4.129357E-03	9.239932E-05
5.784836E+03	4.105707E-03	9.157167E-05
5.794793E+03	4.086796E-03	9.080805E-05
5.804749E+03	4.073003E-03	9.011574E-05
5.814706E+03	4.064486E-03	8.949675E-05
5.824663E+03	4.061329E-03	8.895123E-05
5.834619E+03	4.063347E-03	8.847309E-05
5.844576E+03	4.070166E-03	8.805207E-05
5.854533E+03	4.081232E-03	8.767400E-05
5.864489E+03	4.095884E-03	8.732261E-05
5.874446E+03	4.113337E-03	8.697927E-05
5.884403E+03	4.132756E-03	8.662476E-05
5.894360E+03	4.153387E-03	8.624221E-05
5.904316E+03	4.174365E-03	8.581307E-05
5.914273E+03	4.195030E-03	8.532375E-05
5.924230E+03	4.214863E-03	8.476432E-05
5.934186E+03	4.233319E-03	8.412498E-05
5.944143E+03	4.250100E-03	8.340159E-05
5.954100E+03	4.265026E-03	8.259288E-05
5.964056E+03	4.277991E-03	8.169947E-05
5.974013E+03	4.288977E-03	8.072414E-05
5.983970E+03	4.298079E-03	7.967210E-05
5.993926E+03	4.305364E-03	7.854827E-05
6.003883E+03	4.311044E-03	7.736051E-05
6.013840E+03	4.315241E-03	7.611519E-05
6.023796E+03	4.318157E-03	7.482025E-05
6.033753E+03	4.319910E-03	7.348238E-05
6.043710E+03	4.320769E-03	7.211099E-05
6.053667E+03	4.320749E-03	7.071145E-05
6.063623E+03	4.320070E-03	6.929277E-05
6.073580E+03	4.318774E-03	6.786137E-05
6.083537E+03	4.316950E-03	6.642472E-05
6.093493E+03	4.314624E-03	6.498980E-05
6.103450E+03	4.311749E-03	6.356295E-05
6.113407E+03	4.308427E-03	6.215323E-05
6.123363E+03	4.304541E-03	6.076699E-05
6.133320E+03	4.300133E-03	5.941343E-05
6.143277E+03	4.295083E-03	5.810003E-05
6.153233E+03	4.289477E-03	5.683753E-05
6.163190E+03	4.283254E-03	5.563505E-05
6.173147E+03	4.276406E-03	5.450268E-05
6.183103E+03	4.268951E-03	5.345094E-05
6.193060E+03	4.260997E-03	5.249139E-05
6.203017E+03	4.252611E-03	5.163468E-05
6.212974E+03	4.243895E-03	5.089110E-05
6.222930E+03	4.234877E-03	5.026407E-05
6.232887E+03	4.225346E-03	4.974803E-05
6.242844E+03	4.215024E-03	4.933577E-05
6.252800E+03	4.203908E-03	4.902272E-05
6.262757E+03	4.191942E-03	4.880318E-05
6.272714E+03	4.179325E-03	4.867410E-05
6.282670E+03	4.166226E-03	4.863188E-05
6.292627E+03	4.152957E-03	4.867458E-05
6.302584E+03	4.140059E-03	4.880316E-05
6.312540E+03	4.128056E-03	4.901880E-05
6.322497E+03	4.117532E-03	4.932402E-05
6.332454E+03	4.109172E-03	4.972335E-05
6.342411E+03	4.103688E-03	5.022261E-05
6.352367E+03	4.101805E-03	5.082886E-05
6.362324E+03	4.104169E-03	5.154944E-05
6.372281E+03	4.111518E-03	5.239403E-05
6.382237E+03	4.124532E-03	5.337297E-05
6.392194E+03	4.143797E-03	5.449671E-05
6.402151E+03	4.169855E-03	5.577649E-05
6.412107E+03	4.203206E-03	5.722425E-05
6.422064E+03	4.244258E-03	5.885204E-05
6.432021E+03	4.293259E-03	6.067085E-05
6.441977E+03	4.350312E-03	6.269064E-05
6.451934E+03	4.415339E-03	6.491763E-05
6.461891E+03	4.488074E-03	6.735124E-05
6.471847E+03	4.568042E-03	6.998703E-05
6.481804E+03	4.654489E-03	7.281587E-05
6.491761E+03	4.746568E-03	7.582627E-05
6.501718E+03	4.843099E-03	7.900030E-05
6.511674E+03	4.942258E-03	8.230768E-05
6.521631E+03	5.041475E-03	8.570293E-05
6.531588E+03	5.137834E-03	8.913089E-05
6.541544E+03	5.228585E-03	9.253516E-05
6.551501E+03	5.311152E-03	9.585851E-05
6.561458E+03	5.383210E-03	9.904470E-05
6.571414E+03	5.442888E-03	1.020427E-04
6.581371E+03	5.488880E-03	1.048100E-04
6.591328E+03	5.520274E-03	1.073101E-04
6.601284E+03	5.536781E-03	1.095178E-04
6.611241E+03	5.538556E-03	1.114172E-04
6.621198E+03	5.526411E-03	1.130066E-04
6.631154E+03	5.501239E-03	1.142874E-04
6.641111E+03	5.464605E-03	1.152772E-04
6.651068E+03	5.417908E-03	1.159930E-04
6.661025E+03	5.362954E-03	1.164627E-04
6.670981E+03	5.301455E-03	1.167152E-04
6.680938E+03	5.234951E-03	1.167778E-04
6.690895E+03	5.165124E-03	1.166839E-04
6.700851E+03	5.093327E-03	1.164613E-04
6.710808E+03	5.020826E-03	1.161378E-04
6.720765E+03	4.948642E-03	1.157369E-04
6.730721E+03	4.877804E-03	1.152837E-04
6.740678E+03	4.808942E-03	1.147948E-04
6.750635E+03	4.742696E-03	1.142880E-04
6.760591E+03	4.679508E-03	1.137764E-04
6.770548E+03	4.619638E-03	1.132693E-04
6.780505E+03	4.563347E-03	1.127762E-04
6.790461E+03	4.510691E-03	1.123013E-04
6.800418E+03	4.461758E-03	1.118498E-04
6.810375E+03	4.416422E-03	1.114213E-04
6.820332E+03	4.374712E-03	1.110190E-04
6.830288E+03	4.336474E-03	1.106414E-04
6.840245E+03	4.301580E-03	1.102874E-04
6.850202E+03	4.269826E-03	1.099537E-04
6.860158E+03	4.241162E-03	1.096407E-04
6.870115E+03	4.215313E-03	1.093428E-04
6.880072E+03	4.192158E-03	1.090581E-04
6.890028E+03	4.171465E-03	1.087817E-04
6.899985E+03	4.153102E-03	1.085111E-04
6.909942E+03	4.136834E-03	1.082409E-04
6.919898E+03	4.122477E-03	1.079668E-04
6.929855E+03	4.109842E-03	1.076845E-04
6.939812E+03	4.098742E-03	1.073895E-04
6.949769E+03	4.088991E-03	1.070772E-04
6.959725E+03	4.080414E-03	1.067433E-04
6.969682E+03	4.072831E-03	1.063833E-04
6.979639E+03	4.066038E-03	1.059922E-04
6.989595E+03	4.059937E-03	1.055676E-04
6.999552E+03	4.054363E-03	1.051055E-04
7.009509E+03	4.049221E-03	1.046037E-04
7.019465E+03	4.044495E-03	1.040620E-04
7.029422E+03	4.040053E-03	1.034775E-04
7.039379E+03	4.035997E-03	1.028531E-04
7.049335E+03	4.032251E-03	1.021873E-04
7.059292E+03	4.028914E-03	1.014831E-04
7.069249E+03	4.026058E-03	1.007425E-04
7.079205E+03	4.023767E-03	9.996830E-05
7.089162E+03	4.022028E-03	9.916039E-05
7.099119E+03	4.021028E-03	9.832382E-05
7.109076E+03	4.020847E-03	9.746086E-05
7.119032E+03	4.021445E-03	9.657089E-05
7.128989E+03	4.022965E-03	9.565758E-05
7.138946E+03	4.025309E-03	9.471901E-05
7.148902E+03	4.028499E-03	9.375597E-05
7.158859E+03	4.032405E-03	9.276594E-05
7.168816E+03	4.037009E-03	9.174905E-05
7.178772E+03	4.041986E-03	9.069868E-05
7.188729E+03	4.047240E-03	8.961367E-05
7.198686E+03	4.052473E-03	8.848876E-05
7.208642E+03	4.057412E-03	8.731970E-05
7.218599E+03	4.061772E-03	8.610246E-05
7.228556E+03	4.065254E-03	8.483329E-05
7.238512E+03	4.067499E-03	8.350783E-05
7.248469E+03	4.068265E-03	8.212478E-05
7.258426E+03	4.067213E-03	8.068147E-05
7.268383E+03	4.064131E-03	7.917850E-05
7.278339E+03	4.058682E-03	7.761462E-05
7.288296E+03	4.050735E-03	7.599327E-05
7.298253E+03	4.040163E-03	7.431836E-05
7.308209E+03	4.026908E-03	7.259562E-05
7.318166E+03	4.010937E-03	7.083155E-05
7.328123E+03	3.992300E-03	6.903438E-05
7.338079E+03	3.971276E-03	6.721646E-05
7.348036E+03	3.948047E-03	6.538835E-05
7.357993E+03	3.922837E-03	6.356129E-05
7.367949E+03	3.895941E-03	6.174749E-05
7.377906E+03	3.867651E-03	5.995890E-05
7.387863E+03	3.838239E-03	5.820692E-05
7.397819E+03	3.807925E-03	5.650199E-05
7.407776E+03	3.776890E-03	5.485378E-05
7.417733E+03	3.745209E-03	5.327020E-05
7.427690E+03	3.712950E-03	5.175906E-05
7.437646E+03	3.680197E-03	5.032809E-05
7.447603E+03	3.646899E-03	4.898294E-05
7.457560E+03	3.613059E-03	4.772961E-05
7.467516E+03	3.578733E-03	4.657425E-05
7.477473E+03	3.543943E-03	4.552182E-05
7.487430E+03	3.508807E-03	4.457757E-05
7.497386E+03	3.473372E-03	4.374378E-05
7.507343E+03	3.437826E-03	4.301694E-05
7.517300E+03	3.402395E-03	4.239060E-05
7.527256E+03	3.367233E-03	4.185695E-05
7.537213E+03	3.332628E-03	4.140961E-05
7.547170E+03	3.298833E-03	4.104180E-05
7.557126E+03	3.266108E-03	4.074709E-05
7.567083E+03	3.234761E-03	4.052004E-05
7.577040E+03	3.205093E-03	4.035576E-05
7.586997E+03	3.177221E-03	4.024775E-05
7.596953E+03	3.151279E-03	4.019045E-05
7.606910E+03	3.127206E-03	4.017657E-05
7.616867E+03	3.105024E-03	4.020057E-05
7.626823E+03	3.084691E-03	4.025680E-05
7.636780E+03	3.066199E-03	4.034072E-05
7.646737E+03	3.049399E-03	4.044654E-05
7.656693E+03	3.034301E-03	4.057115E-05
7.666650E+03	3.020826E-03	4.071075E-05
7.676607E+03	3.008876E-03	4.086183E-05
7.686563E+03	2.998351E-03	4.102124E-05
7.696520E+03	2.989134E-03	4.118601E-05
7.706477E+03	2.981058E-03	4.135287E-05
7.716434E+03	2.974124E-03	4.152121E-05
7.726390E+03	2.968054E-03	4.168687E-05
