#wls	flux	fluxerr
1.593070E+03	3.800815E-05	1.007458E-05
1.632897E+03	3.853561E-05	1.014569E-05
1.672724E+03	3.894114E-05	1.018156E-05
1.712550E+03	3.921647E-05	1.018064E-05
1.752377E+03	3.933748E-05	1.013739E-05
1.792204E+03	3.929567E-05	1.005048E-05
1.832031E+03	3.904025E-05	9.907950E-06
1.871857E+03	3.852818E-05	9.700236E-06
1.911684E+03	3.772059E-05	9.419229E-06
1.951511E+03	3.660094E-05	9.062741E-06
1.991338E+03	3.521655E-05	8.644473E-06
2.031164E+03	3.368184E-05	8.194126E-06
2.070991E+03	3.226363E-05	7.777179E-06
2.110818E+03	3.127097E-05	7.466817E-06
2.150645E+03	3.096726E-05	7.322540E-06
2.190471E+03	3.143647E-05	7.359238E-06
2.230298E+03	3.256700E-05	7.545502E-06
2.270125E+03	3.410678E-05	7.818605E-06
2.309952E+03	3.582768E-05	8.123581E-06
2.349778E+03	3.753181E-05	8.414453E-06
2.389605E+03	3.912801E-05	8.670899E-06
2.429432E+03	4.056013E-05	8.881224E-06
2.469259E+03	4.180867E-05	9.042291E-06
2.509085E+03	4.289970E-05	9.160957E-06
2.548912E+03	4.383401E-05	9.238515E-06
2.588739E+03	4.464112E-05	9.282263E-06
2.628566E+03	4.534198E-05	9.297452E-06
2.668392E+03	4.594790E-05	9.287175E-06
2.708219E+03	4.648588E-05	9.257548E-06
2.748046E+03	4.697304E-05	9.212456E-06
2.787873E+03	4.741720E-05	9.153794E-06
2.827700E+03	4.783414E-05	9.084890E-06
2.867526E+03	4.825557E-05	9.011865E-06
2.907353E+03	4.868065E-05	8.934467E-06
2.947180E+03	4.914149E-05	8.858392E-06
2.987007E+03	4.966264E-05	8.787581E-06
2.996963E+03	4.979953E-05	8.770127E-06
3.006920E+03	4.994747E-05	8.754231E-06
3.016877E+03	5.009895E-05	8.738556E-06
3.026833E+03	5.025502E-05	8.723270E-06
3.036790E+03	5.042636E-05	8.710209E-06
3.046747E+03	5.061591E-05	8.699837E-06
3.056703E+03	5.080760E-05	8.689357E-06
3.066660E+03	5.101657E-05	8.681340E-06
3.076617E+03	5.124244E-05	8.675675E-06
3.086573E+03	5.147722E-05	8.670971E-06
3.096530E+03	5.172848E-05	8.668473E-06
3.106487E+03	5.198841E-05	8.666831E-06
3.116443E+03	5.226468E-05	8.667297E-06
3.126400E+03	5.254962E-05	8.668557E-06
3.136357E+03	5.285108E-05	8.671876E-06
3.146314E+03	5.316922E-05	8.677236E-06
3.156270E+03	5.350427E-05	8.684626E-06
3.166227E+03	5.385657E-05	8.694056E-06
3.176184E+03	5.421871E-05	8.704285E-06
3.186140E+03	5.459884E-05	8.716588E-06
3.196097E+03	5.499747E-05	8.730993E-06
3.206054E+03	5.541512E-05	8.747533E-06
3.216010E+03	5.586020E-05	8.767471E-06
3.225967E+03	5.631779E-05	8.788403E-06
3.235924E+03	5.679639E-05	8.811611E-06
3.245880E+03	5.730464E-05	8.838366E-06
3.255837E+03	5.782772E-05	8.866312E-06
3.265794E+03	5.838225E-05	8.897938E-06
3.275750E+03	5.896926E-05	8.933312E-06
3.285707E+03	5.957404E-05	8.970125E-06
3.295664E+03	6.022149E-05	9.012049E-06
3.305621E+03	6.088907E-05	9.055609E-06
3.315577E+03	6.159398E-05	9.103289E-06
3.325534E+03	6.233768E-05	9.155195E-06
3.335491E+03	6.311369E-05	9.210267E-06
3.345447E+03	6.393164E-05	9.269807E-06
3.355404E+03	6.479336E-05	9.333956E-06
3.365361E+03	6.570072E-05	9.402851E-06
3.375317E+03	6.665573E-05	9.476647E-06
3.385274E+03	6.765228E-05	9.554338E-06
3.395231E+03	6.870918E-05	9.638439E-06
3.405187E+03	6.982060E-05	9.727962E-06
3.415144E+03	7.098070E-05	9.821934E-06
3.425101E+03	7.221766E-05	9.924082E-06
3.435057E+03	7.350897E-05	1.003111E-05
3.445014E+03	7.487491E-05	1.014559E-05
3.454971E+03	7.631025E-05	1.026662E-05
3.464928E+03	7.782740E-05	1.039562E-05
3.474884E+03	7.943034E-05	1.053290E-05
3.484841E+03	8.111434E-05	1.067756E-05
3.494798E+03	8.289280E-05	1.083111E-05
3.504754E+03	8.476126E-05	1.099269E-05
3.514711E+03	8.674329E-05	1.116507E-05
3.524668E+03	8.883517E-05	1.134741E-05
3.534624E+03	9.104276E-05	1.154014E-05
3.544581E+03	9.337221E-05	1.174368E-05
3.554538E+03	9.583008E-05	1.195846E-05
3.564494E+03	9.843339E-05	1.218622E-05
3.574451E+03	1.011798E-04	1.242621E-05
3.584408E+03	1.040773E-04	1.267898E-05
3.594365E+03	1.071446E-04	1.294632E-05
3.604321E+03	1.103912E-04	1.322886E-05
3.614278E+03	1.138270E-04	1.352723E-05
3.624235E+03	1.174517E-04	1.384079E-05
3.634191E+03	1.212985E-04	1.417285E-05
3.644148E+03	1.253682E-04	1.452285E-05
3.654105E+03	1.296619E-04	1.489019E-05
3.664061E+03	1.342161E-04	1.527835E-05
3.674018E+03	1.390454E-04	1.568820E-05
3.683975E+03	1.441533E-04	1.611925E-05
3.693931E+03	1.495555E-04	1.657238E-05
3.703888E+03	1.552816E-04	1.704996E-05
3.713845E+03	1.613501E-04	1.755299E-05
3.723801E+03	1.677805E-04	1.808250E-05
3.733758E+03	1.745933E-04	1.863957E-05
3.743715E+03	1.818100E-04	1.922530E-05
3.753672E+03	1.894533E-04	1.984080E-05
3.763628E+03	1.975470E-04	2.048723E-05
3.773585E+03	2.061313E-04	2.116732E-05
3.783542E+03	2.152174E-04	2.188069E-05
3.793498E+03	2.248488E-04	2.263016E-05
3.803455E+03	2.350553E-04	2.341701E-05
3.813412E+03	2.458670E-04	2.424243E-05
3.823368E+03	2.572984E-04	2.510596E-05
3.833325E+03	2.694170E-04	2.601219E-05
3.843282E+03	2.822392E-04	2.696057E-05
3.853238E+03	2.958193E-04	2.795404E-05
3.863195E+03	3.101743E-04	2.899186E-05
3.873152E+03	3.253400E-04	3.007492E-05
3.883108E+03	3.413743E-04	3.120603E-05
3.893065E+03	3.583380E-04	3.238799E-05
3.903022E+03	3.762267E-04	3.361754E-05
3.912979E+03	3.951006E-04	3.489715E-05
3.922935E+03	4.150229E-04	3.622929E-05
3.932892E+03	4.360091E-04	3.761209E-05
3.942849E+03	4.580970E-04	3.904548E-05
3.952805E+03	4.813503E-04	4.053146E-05
3.962762E+03	5.058065E-04	4.206958E-05
3.972719E+03	5.315028E-04	4.365922E-05
3.982675E+03	5.584740E-04	4.529942E-05
3.992632E+03	5.867537E-04	4.698898E-05
4.002589E+03	6.163723E-04	4.872635E-05
4.012545E+03	6.473908E-04	5.051223E-05
4.022502E+03	6.798044E-04	5.234202E-05
4.032459E+03	7.136698E-04	5.421585E-05
4.042415E+03	7.490095E-04	5.613105E-05
4.052372E+03	7.858061E-04	5.808193E-05
4.062329E+03	8.241458E-04	6.007046E-05
4.072286E+03	8.640042E-04	6.209033E-05
4.082242E+03	9.053492E-04	6.413480E-05
4.092199E+03	9.482596E-04	6.620504E-05
4.102156E+03	9.927357E-04	6.829654E-05
4.112112E+03	1.038730E-03	7.040158E-05
4.122069E+03	1.086273E-03	7.251781E-05
4.132026E+03	1.135303E-03	7.463686E-05
4.141982E+03	1.185840E-03	7.675582E-05
4.151939E+03	1.237807E-03	7.886570E-05
4.161896E+03	1.291260E-03	8.096606E-05
4.171852E+03	1.346108E-03	8.304735E-05
4.181809E+03	1.402249E-03	8.509962E-05
4.191766E+03	1.459668E-03	8.711871E-05
4.201723E+03	1.518345E-03	8.910027E-05
4.211679E+03	1.578096E-03	9.103051E-05
4.221636E+03	1.638878E-03	9.290460E-05
4.231593E+03	1.700586E-03	9.471447E-05
4.241549E+03	1.763163E-03	9.645494E-05
4.251506E+03	1.826367E-03	9.811152E-05
4.261463E+03	1.890116E-03	9.967890E-05
4.271419E+03	1.954257E-03	1.011487E-04
4.281376E+03	2.018571E-03	1.025097E-04
4.291333E+03	2.082945E-03	1.037570E-04
4.301289E+03	2.147202E-03	1.048830E-04
4.311246E+03	2.211101E-03	1.058777E-04
4.321203E+03	2.274457E-03	1.067351E-04
4.331159E+03	2.337160E-03	1.074530E-04
4.341116E+03	2.398914E-03	1.080214E-04
4.351073E+03	2.459632E-03	1.084409E-04
4.361030E+03	2.519183E-03	1.087104E-04
4.370986E+03	2.577404E-03	1.088280E-04
4.380943E+03	2.634213E-03	1.087958E-04
4.390900E+03	2.689486E-03	1.086146E-04
4.400856E+03	2.743326E-03	1.082945E-04
4.410813E+03	2.795540E-03	1.078342E-04
4.420770E+03	2.846288E-03	1.072460E-04
4.430726E+03	2.895487E-03	1.065330E-04
4.440683E+03	2.943268E-03	1.057062E-04
4.450640E+03	2.989578E-03	1.047697E-04
4.460596E+03	3.034566E-03	1.037349E-04
4.470553E+03	3.078244E-03	1.026080E-04
4.480510E+03	3.120693E-03	1.013975E-04
4.490466E+03	3.161915E-03	1.001090E-04
4.500423E+03	3.201970E-03	9.875024E-05
4.510380E+03	3.240904E-03	9.732812E-05
4.520337E+03	3.278684E-03	9.584725E-05
4.530293E+03	3.315262E-03	9.431189E-05
4.540250E+03	3.350638E-03	9.272785E-05
4.550207E+03	3.384802E-03	9.110066E-05
4.560163E+03	3.417668E-03	8.943388E-05
4.570120E+03	3.449206E-03	8.773186E-05
4.580077E+03	3.479267E-03	8.599354E-05
4.590033E+03	3.507943E-03	8.422358E-05
4.599990E+03	3.535024E-03	8.241920E-05
4.609947E+03	3.560556E-03	8.058394E-05
4.619903E+03	3.584407E-03	7.871729E-05
4.629860E+03	3.606644E-03	7.682331E-05
4.639817E+03	3.627233E-03	7.490389E-05
4.649773E+03	3.646167E-03	7.296162E-05
4.659730E+03	3.663522E-03	7.100093E-05
4.669687E+03	3.679352E-03	6.902585E-05
4.679644E+03	3.693803E-03	6.704224E-05
4.689600E+03	3.706994E-03	6.505559E-05
4.699557E+03	3.719145E-03	6.307322E-05
4.709514E+03	3.730458E-03	6.110224E-05
4.719470E+03	3.741230E-03	5.915151E-05
4.729427E+03	3.751744E-03	5.722984E-05
4.739384E+03	3.762325E-03	5.534697E-05
4.749340E+03	3.773444E-03	5.351513E-05
4.759297E+03	3.785451E-03	5.174531E-05
4.769254E+03	3.798734E-03	5.004977E-05
4.779210E+03	3.813148E-03	4.843499E-05
4.789167E+03	3.828543E-03	4.690961E-05
4.799124E+03	3.844743E-03	4.548433E-05
4.809080E+03	3.861586E-03	4.417235E-05
4.819037E+03	3.879087E-03	4.299113E-05
4.828994E+03	3.897016E-03	4.195727E-05
4.838951E+03	3.915405E-03	4.109177E-05
4.848907E+03	3.934097E-03	4.041429E-05
4.858864E+03	3.953090E-03	3.994596E-05
4.868821E+03	3.972335E-03	3.970597E-05
4.878777E+03	3.991688E-03	3.970992E-05
4.888734E+03	4.011211E-03	3.997121E-05
4.898691E+03	4.030808E-03	4.048736E-05
4.908647E+03	4.050374E-03	4.124134E-05
4.918604E+03	4.069961E-03	4.221363E-05
4.928561E+03	4.089422E-03	4.338034E-05
4.938517E+03	4.108761E-03	4.471810E-05
4.948474E+03	4.127941E-03	4.620320E-05
4.958431E+03	4.146929E-03	4.781286E-05
4.968388E+03	4.165694E-03	4.952567E-05
4.978344E+03	4.184214E-03	5.132209E-05
4.988301E+03	4.202470E-03	5.318438E-05
4.998258E+03	4.220503E-03	5.509739E-05
5.008214E+03	4.238255E-03	5.704645E-05
5.018171E+03	4.255823E-03	5.902059E-05
5.028128E+03	4.273118E-03	6.100776E-05
5.038084E+03	4.290249E-03	6.300000E-05
5.048041E+03	4.307175E-03	6.498845E-05
5.057998E+03	4.323968E-03	6.696693E-05
5.067954E+03	4.340648E-03	6.892948E-05
5.077911E+03	4.357281E-03	7.087172E-05
5.087868E+03	4.373887E-03	7.278929E-05
5.097824E+03	4.390487E-03	7.467852E-05
5.107781E+03	4.407140E-03	7.653700E-05
5.117738E+03	4.423807E-03	7.836113E-05
5.127695E+03	4.440639E-03	8.015118E-05
5.137651E+03	4.457530E-03	8.190322E-05
5.147608E+03	4.474570E-03	8.361731E-05
5.157565E+03	4.491680E-03	8.529069E-05
5.167521E+03	4.508926E-03	8.692360E-05
5.177478E+03	4.526212E-03	8.851354E-05
5.187435E+03	4.543584E-03	9.006094E-05
5.197391E+03	4.560919E-03	9.156316E-05
5.207348E+03	4.578192E-03	9.301970E-05
5.217305E+03	4.595411E-03	9.443097E-05
5.227261E+03	4.612375E-03	9.579327E-05
5.237218E+03	4.629084E-03	9.710718E-05
5.247175E+03	4.645416E-03	9.837100E-05
5.257131E+03	4.661306E-03	9.958430E-05
5.267088E+03	4.676631E-03	1.007456E-04
5.277045E+03	4.691320E-03	1.018549E-04
5.287002E+03	4.705246E-03	1.029109E-04
5.296958E+03	4.718292E-03	1.039127E-04
5.306915E+03	4.730444E-03	1.048621E-04
5.316872E+03	4.741545E-03	1.057577E-04
5.326828E+03	4.751603E-03	1.066019E-04
5.336785E+03	4.760481E-03	1.073943E-04
5.346742E+03	4.768161E-03	1.081370E-04
5.356698E+03	4.774587E-03	1.088317E-04
5.366655E+03	4.779823E-03	1.094827E-04
5.376612E+03	4.783746E-03	1.100904E-04
5.386568E+03	4.786500E-03	1.106612E-04
5.396525E+03	4.787995E-03	1.111965E-04
5.406482E+03	4.788345E-03	1.117022E-04
5.416438E+03	4.787529E-03	1.121813E-04
5.426395E+03	4.785675E-03	1.126402E-04
5.436352E+03	4.782755E-03	1.130817E-04
5.446309E+03	4.778783E-03	1.135094E-04
5.456265E+03	4.773849E-03	1.139287E-04
5.466222E+03	4.767882E-03	1.143398E-04
5.476179E+03	4.760871E-03	1.147401E-04
5.486135E+03	4.752860E-03	1.151272E-04
5.496092E+03	4.743988E-03	1.155007E-04
5.506049E+03	4.734168E-03	1.158551E-04
5.516005E+03	4.723441E-03	1.161878E-04
5.525962E+03	4.711841E-03	1.164960E-04
5.535919E+03	4.699251E-03	1.167733E-04
5.545875E+03	4.685702E-03	1.170170E-04
5.555832E+03	4.671229E-03	1.172246E-04
5.565789E+03	4.655784E-03	1.173915E-04
5.575746E+03	4.639381E-03	1.175149E-04
5.585702E+03	4.622008E-03	1.175914E-04
5.595659E+03	4.603802E-03	1.176216E-04
5.605616E+03	4.584743E-03	1.176022E-04
5.615572E+03	4.564918E-03	1.175328E-04
5.625529E+03	4.544479E-03	1.174151E-04
5.635486E+03	4.523504E-03	1.172488E-04
5.645442E+03	4.502129E-03	1.170355E-04
5.655399E+03	4.480473E-03	1.167764E-04
5.665356E+03	4.458700E-03	1.164742E-04
5.675312E+03	4.437039E-03	1.161335E-04
5.685269E+03	4.415548E-03	1.157544E-04
5.695226E+03	4.394513E-03	1.153434E-04
5.705182E+03	4.374048E-03	1.149025E-04
5.715139E+03	4.354398E-03	1.144373E-04
5.725096E+03	4.335681E-03	1.139500E-04
5.735053E+03	4.318132E-03	1.134463E-04
5.745009E+03	4.301859E-03	1.129281E-04
5.754966E+03	4.287074E-03	1.124006E-04
5.764923E+03	4.273858E-03	1.118651E-04
5.774879E+03	4.262349E-03	1.113248E-04
5.784836E+03	4.252629E-03	1.107811E-04
5.794793E+03	4.244826E-03	1.102366E-04
5.804749E+03	4.238937E-03	1.096907E-04
5.814706E+03	4.234955E-03	1.091423E-04
5.824663E+03	4.232898E-03	1.085913E-04
5.834619E+03	4.232706E-03	1.080352E-04
5.844576E+03	4.234334E-03	1.074721E-04
5.854533E+03	4.237668E-03	1.068984E-04
5.864489E+03	4.242572E-03	1.063099E-04
5.874446E+03	4.248884E-03	1.057019E-04
5.884403E+03	4.256463E-03	1.050704E-04
5.894360E+03	4.265113E-03	1.044101E-04
5.904316E+03	4.274624E-03	1.037157E-04
5.914273E+03	4.284815E-03	1.029829E-04
5.924230E+03	4.295426E-03	1.022056E-04
5.934186E+03	4.306274E-03	1.013801E-04
5.944143E+03	4.317140E-03	1.005021E-04
5.954100E+03	4.327847E-03	9.956873E-05
5.964056E+03	4.338195E-03	9.857709E-05
5.974013E+03	4.347954E-03	9.752401E-05
5.983970E+03	4.357027E-03	9.640978E-05
5.993926E+03	4.365214E-03	9.523287E-05
6.003883E+03	4.372407E-03	9.399435E-05
6.013840E+03	4.378524E-03	9.269627E-05
6.023796E+03	4.383420E-03	9.133982E-05
6.033753E+03	4.387045E-03	8.992875E-05
6.043710E+03	4.389327E-03	8.846681E-05
6.053667E+03	4.390290E-03	8.696015E-05
6.063623E+03	4.389828E-03	8.541275E-05
6.073580E+03	4.388036E-03	8.383308E-05
6.083537E+03	4.384879E-03	8.222739E-05
6.093493E+03	4.380413E-03	8.060415E-05
6.103450E+03	4.374748E-03	7.897314E-05
6.113407E+03	4.367872E-03	7.734226E-05
6.123363E+03	4.359966E-03	7.572319E-05
6.133320E+03	4.351129E-03	7.412636E-05
6.143277E+03	4.341514E-03	7.256338E-05
6.153233E+03	4.331334E-03	7.104691E-05
6.163190E+03	4.320720E-03	6.958837E-05
6.173147E+03	4.309934E-03	6.820126E-05
6.183103E+03	4.299273E-03	6.689946E-05
6.193060E+03	4.288984E-03	6.569582E-05
6.203017E+03	4.279425E-03	6.460450E-05
6.212974E+03	4.270952E-03	6.363839E-05
6.222930E+03	4.263673E-03	6.279983E-05
6.232887E+03	4.257505E-03	6.208480E-05
6.242844E+03	4.252342E-03	6.148886E-05
6.252800E+03	4.248184E-03	6.100898E-05
6.262757E+03	4.244986E-03	6.064155E-05
6.272714E+03	4.242735E-03	6.038342E-05
6.282670E+03	4.241481E-03	6.023249E-05
6.292627E+03	4.241287E-03	6.018708E-05
6.302584E+03	4.242271E-03	6.024651E-05
6.312540E+03	4.244419E-03	6.040857E-05
6.322497E+03	4.247941E-03	6.067466E-05
6.332454E+03	4.252830E-03	6.104351E-05
6.342411E+03	4.259267E-03	6.151704E-05
6.352367E+03	4.267311E-03	6.209594E-05
6.362324E+03	4.277058E-03	6.278195E-05
6.372281E+03	4.288553E-03	6.357658E-05
6.382237E+03	4.301940E-03	6.448329E-05
6.392194E+03	4.317198E-03	6.550364E-05
6.402151E+03	4.334359E-03	6.664036E-05
6.412107E+03	4.353481E-03	6.789698E-05
6.422064E+03	4.374510E-03	6.927570E-05
6.432021E+03	4.397376E-03	7.077864E-05
6.441977E+03	4.422113E-03	7.240966E-05
6.451934E+03	4.448557E-03	7.416560E-05
6.461891E+03	4.476731E-03	7.604173E-05
6.471847E+03	4.506473E-03	7.802999E-05
6.481804E+03	4.537671E-03	8.012304E-05
6.491761E+03	4.570228E-03	8.231383E-05
6.501718E+03	4.603850E-03	8.459177E-05
6.511674E+03	4.638321E-03	8.694745E-05
6.521631E+03	4.673087E-03	8.936488E-05
6.531588E+03	4.707639E-03	9.182829E-05
6.541544E+03	4.741383E-03	9.431966E-05
6.551501E+03	4.773902E-03	9.682385E-05
6.561458E+03	4.804582E-03	9.932110E-05
6.571414E+03	4.833018E-03	1.017954E-04
6.581371E+03	4.858711E-03	1.042282E-04
6.591328E+03	4.881304E-03	1.066036E-04
6.601284E+03	4.900418E-03	1.089049E-04
6.611241E+03	4.915880E-03	1.111198E-04
6.621198E+03	4.927495E-03	1.132353E-04
6.631154E+03	4.935050E-03	1.152384E-04
6.641111E+03	4.938644E-03	1.171232E-04
6.651068E+03	4.938212E-03	1.188804E-04
6.661025E+03	4.933947E-03	1.205075E-04
6.670981E+03	4.925907E-03	1.219991E-04
6.680938E+03	4.914347E-03	1.233552E-04
6.690895E+03	4.899576E-03	1.245781E-04
6.700851E+03	4.881779E-03	1.256673E-04
6.710808E+03	4.861373E-03	1.266293E-04
6.720765E+03	4.838642E-03	1.274679E-04
6.730721E+03	4.813975E-03	1.281900E-04
6.740678E+03	4.787668E-03	1.288011E-04
6.750635E+03	4.760056E-03	1.293083E-04
6.760591E+03	4.731467E-03	1.297189E-04
6.770548E+03	4.702263E-03	1.300419E-04
6.780505E+03	4.672635E-03	1.302819E-04
6.790461E+03	4.642953E-03	1.304489E-04
6.800418E+03	4.613414E-03	1.305486E-04
6.810375E+03	4.584283E-03	1.305886E-04
6.820332E+03	4.555661E-03	1.305725E-04
6.830288E+03	4.527771E-03	1.305070E-04
6.840245E+03	4.500751E-03	1.303971E-04
6.850202E+03	4.474730E-03	1.302471E-04
6.860158E+03	4.449807E-03	1.300609E-04
6.870115E+03	4.426009E-03	1.298402E-04
6.880072E+03	4.403450E-03	1.295892E-04
6.890028E+03	4.382173E-03	1.293099E-04
6.899985E+03	4.362154E-03	1.290027E-04
6.909942E+03	4.343407E-03	1.286686E-04
6.919898E+03	4.325983E-03	1.283100E-04
6.929855E+03	4.309775E-03	1.279243E-04
6.939812E+03	4.294860E-03	1.275147E-04
6.949769E+03	4.281161E-03	1.270792E-04
6.959725E+03	4.268643E-03	1.266176E-04
6.969682E+03	4.257220E-03	1.261276E-04
6.979639E+03	4.246890E-03	1.256099E-04
6.989595E+03	4.237608E-03	1.250634E-04
6.999552E+03	4.229269E-03	1.244855E-04
7.009509E+03	4.221820E-03	1.238751E-04
7.019465E+03	4.215246E-03	1.232320E-04
7.029422E+03	4.209444E-03	1.225538E-04
7.039379E+03	4.204345E-03	1.218389E-04
7.049335E+03	4.199841E-03	1.210846E-04
7.059292E+03	4.195961E-03	1.202922E-04
7.069249E+03	4.192536E-03	1.194574E-04
7.079205E+03	4.189545E-03	1.185804E-04
7.089162E+03	4.186866E-03	1.176583E-04
7.099119E+03	4.184422E-03	1.166899E-04
7.109076E+03	4.182176E-03	1.156750E-04
7.119032E+03	4.180005E-03	1.146112E-04
7.128989E+03	4.177814E-03	1.134973E-04
7.138946E+03	4.175517E-03	1.123321E-04
7.148902E+03	4.172969E-03	1.111135E-04
7.158859E+03	4.170124E-03	1.098418E-04
7.168816E+03	4.166887E-03	1.085167E-04
7.178772E+03	4.163102E-03	1.071362E-04
7.188729E+03	4.158674E-03	1.057005E-04
7.198686E+03	4.153498E-03	1.042095E-04
7.208642E+03	4.147529E-03	1.026652E-04
7.218599E+03	4.140569E-03	1.010661E-04
7.228556E+03	4.132628E-03	9.941587E-05
7.238512E+03	4.123521E-03	9.771414E-05
7.248469E+03	4.113172E-03	9.596335E-05
7.258426E+03	4.101555E-03	9.416753E-05
7.268383E+03	4.088612E-03	9.233020E-05
7.278339E+03	4.074251E-03	9.045446E-05
7.288296E+03	4.058428E-03	8.854490E-05
7.298253E+03	4.041123E-03	8.660683E-05
7.308209E+03	4.022320E-03	8.464603E-05
7.318166E+03	4.002028E-03	8.266896E-05
7.328123E+03	3.980257E-03	8.068236E-05
7.338079E+03	3.956983E-03	7.869250E-05
7.348036E+03	3.932299E-03	7.670814E-05
7.357993E+03	3.906248E-03	7.473716E-05
7.367949E+03	3.878891E-03	7.278784E-05
7.377906E+03	3.850246E-03	7.086768E-05
7.387863E+03	3.820387E-03	6.898531E-05
7.397819E+03	3.789445E-03	6.715019E-05
7.407776E+03	3.757456E-03	6.537002E-05
7.417733E+03	3.724559E-03	6.365405E-05
7.427690E+03	3.690805E-03	6.200969E-05
7.437646E+03	3.656345E-03	6.044564E-05
7.447603E+03	3.621236E-03	5.896857E-05
7.457560E+03	3.585595E-03	5.758547E-05
7.467516E+03	3.549584E-03	5.630334E-05
7.477473E+03	3.513289E-03	5.512708E-05
7.487430E+03	3.476888E-03	5.406139E-05
7.497386E+03	3.440531E-03	5.310339E-05
7.507343E+03	3.404328E-03	5.224570E-05
7.517300E+03	3.368498E-03	5.148222E-05
7.527256E+03	3.333229E-03	5.080628E-05
7.537213E+03	3.298687E-03	5.021084E-05
7.547170E+03	3.265191E-03	4.969144E-05
7.557126E+03	3.232900E-03	4.924157E-05
7.567083E+03	3.202186E-03	4.885838E-05
7.577040E+03	3.173306E-03	4.853792E-05
7.586997E+03	3.146555E-03	4.827748E-05
7.596953E+03	3.121725E-03	4.806730E-05
7.606910E+03	3.098744E-03	4.790032E-05
7.616867E+03	3.077363E-03	4.776738E-05
7.626823E+03	3.057453E-03	4.766171E-05
7.636780E+03	3.038984E-03	4.757868E-05
7.646737E+03	3.021787E-03	4.751199E-05
7.656693E+03	3.005861E-03	4.745852E-05
7.666650E+03	2.991048E-03	4.741314E-05
7.676607E+03	2.977359E-03	4.737387E-05
7.686563E+03	2.964683E-03	4.733726E-05
7.696520E+03	2.952941E-03	4.730076E-05
7.706477E+03	2.942100E-03	4.726298E-05
7.716434E+03	2.932042E-03	4.722153E-05
7.726390E+03	2.922718E-03	4.717556E-05
