#wls	flux	fluxerr
1.593070E+03	3.213365E-05	8.924930E-06
1.632897E+03	3.268175E-05	9.015544E-06
1.672724E+03	3.312686E-05	9.074520E-06
1.712550E+03	3.348079E-05	9.105590E-06
1.752377E+03	3.370359E-05	9.098440E-06
1.792204E+03	3.379588E-05	9.053983E-06
1.832031E+03	3.370389E-05	8.958697E-06
1.871857E+03	3.339797E-05	8.805913E-06
1.911684E+03	3.284159E-05	8.587478E-06
1.951511E+03	3.200849E-05	8.298277E-06
1.991338E+03	3.094477E-05	7.952102E-06
2.031164E+03	2.974785E-05	7.575467E-06
2.070991E+03	2.865116E-05	7.228345E-06
2.110818E+03	2.793170E-05	6.979373E-06
2.150645E+03	2.783225E-05	6.885973E-06
2.190471E+03	2.844039E-05	6.965014E-06
2.230298E+03	2.966913E-05	7.189979E-06
2.270125E+03	3.131581E-05	7.507327E-06
2.309952E+03	3.315981E-05	7.861229E-06
2.349778E+03	3.503779E-05	8.211537E-06
2.389605E+03	3.686689E-05	8.538490E-06
2.429432E+03	3.859457E-05	8.830185E-06
2.469259E+03	4.020901E-05	9.084528E-06
2.509085E+03	4.171668E-05	9.303674E-06
2.548912E+03	4.314088E-05	9.493441E-06
2.588739E+03	4.449990E-05	9.658310E-06
2.628566E+03	4.580384E-05	9.800815E-06
2.668392E+03	4.708749E-05	9.928587E-06
2.708219E+03	4.836785E-05	1.004514E-05
2.748046E+03	4.965241E-05	1.015185E-05
2.787873E+03	5.097391E-05	1.025504E-05
2.827700E+03	5.233916E-05	1.035551E-05
2.867526E+03	5.378126E-05	1.045904E-05
2.907353E+03	5.529935E-05	1.056449E-05
2.947180E+03	5.693749E-05	1.067911E-05
2.987007E+03	5.870668E-05	1.080345E-05
2.996963E+03	5.916895E-05	1.083577E-05
3.006920E+03	5.964614E-05	1.086980E-05
3.016877E+03	6.012976E-05	1.090394E-05
3.026833E+03	6.062998E-05	1.094003E-05
3.036790E+03	6.115038E-05	1.097864E-05
3.046747E+03	6.168573E-05	1.101880E-05
3.056703E+03	6.223551E-05	1.106035E-05
3.066660E+03	6.280827E-05	1.110477E-05
3.076617E+03	6.340374E-05	1.115194E-05
3.086573E+03	6.401272E-05	1.120019E-05
3.096530E+03	6.464408E-05	1.125101E-05
3.106487E+03	6.528872E-05	1.130277E-05
3.116443E+03	6.595577E-05	1.135699E-05
3.126400E+03	6.664538E-05	1.141363E-05
3.136357E+03	6.734856E-05	1.147110E-05
3.146314E+03	6.807476E-05	1.153095E-05
3.156270E+03	6.881509E-05	1.159161E-05
3.166227E+03	6.958846E-05	1.165620E-05
3.176184E+03	7.036751E-05	1.172008E-05
3.186140E+03	7.118070E-05	1.178792E-05
3.196097E+03	7.201000E-05	1.185665E-05
3.206054E+03	7.286543E-05	1.192788E-05
3.216010E+03	7.373829E-05	1.200009E-05
3.225967E+03	7.464842E-05	1.207644E-05
3.235924E+03	7.557768E-05	1.215390E-05
3.245880E+03	7.653661E-05	1.223409E-05
3.255837E+03	7.751656E-05	1.231555E-05
3.265794E+03	7.852831E-05	1.239991E-05
3.275750E+03	7.957307E-05	1.248726E-05
3.285707E+03	8.065218E-05	1.257771E-05
3.295664E+03	8.176704E-05	1.267136E-05
3.305621E+03	8.290913E-05	1.276679E-05
3.315577E+03	8.409996E-05	1.286720E-05
3.325534E+03	8.532116E-05	1.296965E-05
3.335491E+03	8.658450E-05	1.307581E-05
3.345447E+03	8.789182E-05	1.318584E-05
3.355404E+03	8.923477E-05	1.329835E-05
3.365361E+03	9.063608E-05	1.341658E-05
3.375317E+03	9.208765E-05	1.353916E-05
3.385274E+03	9.358125E-05	1.366474E-05
3.395231E+03	9.512975E-05	1.379503E-05
3.405187E+03	9.674652E-05	1.393180E-05
3.415144E+03	9.841283E-05	1.407214E-05
3.425101E+03	1.001423E-04	1.421783E-05
3.435057E+03	1.019378E-04	1.436909E-05
3.445014E+03	1.038140E-04	1.452773E-05
3.454971E+03	1.057517E-04	1.469085E-05
3.464928E+03	1.077658E-04	1.486029E-05
3.474884E+03	1.098598E-04	1.503631E-05
3.484841E+03	1.120495E-04	1.522077E-05
3.494798E+03	1.143158E-04	1.541079E-05
3.504754E+03	1.166865E-04	1.560986E-05
3.514711E+03	1.191424E-04	1.581509E-05
3.524668E+03	1.217125E-04	1.603002E-05
3.534624E+03	1.243899E-04	1.625338E-05
3.544581E+03	1.271798E-04	1.648551E-05
3.554538E+03	1.300880E-04	1.672678E-05
3.564494E+03	1.331204E-04	1.697756E-05
3.574451E+03	1.362830E-04	1.723823E-05
3.584408E+03	1.395959E-04	1.751086E-05
3.594365E+03	1.430530E-04	1.779421E-05
3.604321E+03	1.466613E-04	1.808870E-05
3.614278E+03	1.504286E-04	1.839476E-05
3.624235E+03	1.543626E-04	1.871284E-05
3.634191E+03	1.584862E-04	1.904513E-05
3.644148E+03	1.627940E-04	1.939038E-05
3.654105E+03	1.672949E-04	1.974906E-05
3.664061E+03	1.720140E-04	2.012344E-05
3.674018E+03	1.769463E-04	2.051227E-05
3.683975E+03	1.821023E-04	2.091604E-05
3.693931E+03	1.874930E-04	2.133529E-05
3.703888E+03	1.931464E-04	2.177240E-05
3.713845E+03	1.990754E-04	2.222797E-05
3.723801E+03	2.052591E-04	2.269878E-05
3.733758E+03	2.117448E-04	2.318920E-05
3.743715E+03	2.185292E-04	2.369787E-05
3.753672E+03	2.256448E-04	2.422732E-05
3.763628E+03	2.330887E-04	2.477618E-05
3.773585E+03	2.408959E-04	2.534704E-05
3.783542E+03	2.490634E-04	2.593843E-05
3.793498E+03	2.576078E-04	2.655089E-05
3.803455E+03	2.665668E-04	2.718703E-05
3.813412E+03	2.759593E-04	2.784742E-05
3.823368E+03	2.857828E-04	2.853042E-05
3.833325E+03	2.960555E-04	2.923641E-05
3.843282E+03	3.068188E-04	2.996799E-05
3.853238E+03	3.180698E-04	3.072332E-05
3.863195E+03	3.298515E-04	3.150491E-05
3.873152E+03	3.421599E-04	3.231068E-05
3.883108E+03	3.550396E-04	3.314311E-05
3.893065E+03	3.685116E-04	3.400229E-05
3.903022E+03	3.825693E-04	3.488573E-05
3.912979E+03	3.972311E-04	3.579321E-05
3.922935E+03	4.125438E-04	3.672698E-05
3.932892E+03	4.285266E-04	3.768664E-05
3.942849E+03	4.451684E-04	3.866912E-05
3.952805E+03	4.625165E-04	3.967638E-05
3.962762E+03	4.805559E-04	4.070492E-05
3.972719E+03	4.993343E-04	4.175657E-05
3.982675E+03	5.188674E-04	4.283030E-05
3.992632E+03	5.391349E-04	4.392211E-05
4.002589E+03	5.601475E-04	4.503058E-05
4.012545E+03	5.819900E-04	4.616012E-05
4.022502E+03	6.045614E-04	4.730030E-05
4.032459E+03	6.279848E-04	4.845838E-05
4.042415E+03	6.521909E-04	4.962652E-05
4.052372E+03	6.771850E-04	5.080272E-05
4.062329E+03	7.030562E-04	5.199125E-05
4.072286E+03	7.296814E-04	5.318052E-05
4.082242E+03	7.571935E-04	5.437787E-05
4.092199E+03	7.854602E-04	5.557133E-05
4.102156E+03	8.146186E-04	5.676832E-05
4.112112E+03	8.445752E-04	5.795986E-05
4.122069E+03	8.753749E-04	5.914675E-05
4.132026E+03	9.069636E-04	6.032305E-05
4.141982E+03	9.393323E-04	6.148604E-05
4.151939E+03	9.725786E-04	6.263993E-05
4.161896E+03	1.006586E-03	6.377499E-05
4.171852E+03	1.041337E-03	6.488823E-05
4.181809E+03	1.076871E-03	6.598018E-05
4.191766E+03	1.113108E-03	6.704413E-05
4.201723E+03	1.150081E-03	6.808040E-05
4.211679E+03	1.187698E-03	6.908196E-05
4.221636E+03	1.225982E-03	7.004886E-05
4.231593E+03	1.264828E-03	7.097373E-05
4.241549E+03	1.304246E-03	7.185632E-05
4.251506E+03	1.344114E-03	7.268889E-05
4.261463E+03	1.384429E-03	7.347090E-05
4.271419E+03	1.425044E-03	7.419427E-05
4.281376E+03	1.465872E-03	7.485452E-05
4.291333E+03	1.506886E-03	7.545076E-05
4.301289E+03	1.547907E-03	7.597469E-05
4.311246E+03	1.588893E-03	7.642543E-05
4.321203E+03	1.629566E-03	7.679121E-05
4.331159E+03	1.670024E-03	7.707874E-05
4.341116E+03	1.709896E-03	7.727321E-05
4.351073E+03	1.749116E-03	7.737477E-05
4.361030E+03	1.787622E-03	7.738407E-05
4.370986E+03	1.825193E-03	7.729532E-05
4.380943E+03	1.861869E-03	7.711436E-05
4.390900E+03	1.897537E-03	7.684080E-05
4.400856E+03	1.932439E-03	7.648866E-05
4.410813E+03	1.966490E-03	7.605855E-05
4.420770E+03	1.999957E-03	7.556468E-05
4.430726E+03	2.032856E-03	7.501114E-05
4.440683E+03	2.065291E-03	7.440515E-05
4.450640E+03	2.097365E-03	7.375364E-05
4.460596E+03	2.129175E-03	7.306307E-05
4.470553E+03	2.160813E-03	7.233943E-05
4.480510E+03	2.192360E-03	7.158816E-05
4.490466E+03	2.223794E-03	7.081127E-05
4.500423E+03	2.255349E-03	7.001888E-05
4.510380E+03	2.286883E-03	6.920911E-05
4.520337E+03	2.318599E-03	6.839080E-05
4.530293E+03	2.350319E-03	6.756138E-05
4.540250E+03	2.382028E-03	6.672346E-05
4.550207E+03	2.413883E-03	6.588445E-05
4.560163E+03	2.445650E-03	6.504055E-05
4.570120E+03	2.477364E-03	6.419348E-05
4.580077E+03	2.508863E-03	6.333947E-05
4.590033E+03	2.540248E-03	6.248157E-05
4.599990E+03	2.571143E-03	6.161117E-05
4.609947E+03	2.601639E-03	6.073145E-05
4.619903E+03	2.631634E-03	5.984102E-05
4.629860E+03	2.660929E-03	5.893663E-05
4.639817E+03	2.689518E-03	5.801972E-05
4.649773E+03	2.717209E-03	5.708795E-05
4.659730E+03	2.743915E-03	5.614173E-05
4.669687E+03	2.769655E-03	5.518394E-05
4.679644E+03	2.794272E-03	5.421421E-05
4.689600E+03	2.817720E-03	5.323490E-05
4.699557E+03	2.839972E-03	5.224917E-05
4.709514E+03	2.861121E-03	5.126274E-05
4.719470E+03	2.880992E-03	5.027691E-05
4.729427E+03	2.899826E-03	4.930089E-05
4.739384E+03	2.917595E-03	4.833958E-05
4.749340E+03	2.934408E-03	4.740068E-05
4.759297E+03	2.950391E-03	4.649268E-05
4.769254E+03	2.965655E-03	4.562431E-05
4.779210E+03	2.980190E-03	4.480302E-05
4.789167E+03	2.993974E-03	4.403679E-05
4.799124E+03	3.007007E-03	4.333457E-05
4.809080E+03	3.019310E-03	4.270611E-05
4.819037E+03	3.030811E-03	4.216029E-05
4.828994E+03	3.041639E-03	4.170894E-05
4.838951E+03	3.051833E-03	4.136255E-05
4.848907E+03	3.061428E-03	4.113117E-05
4.858864E+03	3.070373E-03	4.102306E-05
4.868821E+03	3.078793E-03	4.104786E-05
4.878777E+03	3.086726E-03	4.121272E-05
4.888734E+03	3.094201E-03	4.152257E-05
4.898691E+03	3.101062E-03	4.197157E-05
4.908647E+03	3.107618E-03	4.255413E-05
4.918604E+03	3.113711E-03	4.325709E-05
4.928561E+03	3.119374E-03	4.406908E-05
4.938517E+03	3.124717E-03	4.497954E-05
4.948474E+03	3.129773E-03	4.597684E-05
4.958431E+03	3.134393E-03	4.704692E-05
4.968388E+03	3.138789E-03	4.818157E-05
4.978344E+03	3.142996E-03	4.937068E-05
4.988301E+03	3.146966E-03	5.060356E-05
4.998258E+03	3.150743E-03	5.187173E-05
5.008214E+03	3.154372E-03	5.316752E-05
5.018171E+03	3.157995E-03	5.448579E-05
5.028128E+03	3.161579E-03	5.581921E-05
5.038084E+03	3.165185E-03	5.716278E-05
5.048041E+03	3.168876E-03	5.851226E-05
5.057998E+03	3.172802E-03	5.986570E-05
5.067954E+03	3.176858E-03	6.121703E-05
5.077911E+03	3.181284E-03	6.256725E-05
5.087868E+03	3.186058E-03	6.391293E-05
5.097824E+03	3.191168E-03	6.525114E-05
5.107781E+03	3.196841E-03	6.658431E-05
5.117738E+03	3.203050E-03	6.791012E-05
5.127695E+03	3.209855E-03	6.922829E-05
5.137651E+03	3.217301E-03	7.053861E-05
5.147608E+03	3.225431E-03	7.184107E-05
5.157565E+03	3.234276E-03	7.313564E-05
5.167521E+03	3.243784E-03	7.442059E-05
5.177478E+03	3.254128E-03	7.569951E-05
5.187435E+03	3.265233E-03	7.697051E-05
5.197391E+03	3.277017E-03	7.823152E-05
5.207348E+03	3.289626E-03	7.948605E-05
5.217305E+03	3.302874E-03	8.072971E-05
5.227261E+03	3.316805E-03	8.196376E-05
5.237218E+03	3.331373E-03	8.318726E-05
5.247175E+03	3.346447E-03	8.439727E-05
5.257131E+03	3.362118E-03	8.559642E-05
5.267088E+03	3.378160E-03	8.677934E-05
5.277045E+03	3.394566E-03	8.794631E-05
5.287002E+03	3.411254E-03	8.909567E-05
5.296958E+03	3.428046E-03	9.022331E-05
5.306915E+03	3.444926E-03	9.132937E-05
5.316872E+03	3.461795E-03	9.241183E-05
5.326828E+03	3.478543E-03	9.346848E-05
5.336785E+03	3.494987E-03	9.449515E-05
5.346742E+03	3.511103E-03	9.549194E-05
5.356698E+03	3.526704E-03	9.645465E-05
5.366655E+03	3.541774E-03	9.738379E-05
5.376612E+03	3.556217E-03	9.827769E-05
5.386568E+03	3.569865E-03	9.913283E-05
5.396525E+03	3.582719E-03	9.995034E-05
5.406482E+03	3.594715E-03	1.007297E-04
5.416438E+03	3.605712E-03	1.014682E-04
5.426395E+03	3.615672E-03	1.021660E-04
5.436352E+03	3.624650E-03	1.028262E-04
5.446309E+03	3.632640E-03	1.034500E-04
5.456265E+03	3.639568E-03	1.040368E-04
5.466222E+03	3.645549E-03	1.045913E-04
5.476179E+03	3.650524E-03	1.051132E-04
5.486135E+03	3.654431E-03	1.056015E-04
5.496092E+03	3.657295E-03	1.060550E-04
5.506049E+03	3.659074E-03	1.064704E-04
5.516005E+03	3.659665E-03	1.068425E-04
5.525962E+03	3.659063E-03	1.071690E-04
5.535919E+03	3.657356E-03	1.074503E-04
5.545875E+03	3.654491E-03	1.076827E-04
5.555832E+03	3.650504E-03	1.078653E-04
5.565789E+03	3.645527E-03	1.079999E-04
5.575746E+03	3.639542E-03	1.080841E-04
5.585702E+03	3.632625E-03	1.081184E-04
5.595659E+03	3.624931E-03	1.081057E-04
5.605616E+03	3.616477E-03	1.080449E-04
5.615572E+03	3.607366E-03	1.079376E-04
5.625529E+03	3.597777E-03	1.077877E-04
5.635486E+03	3.587753E-03	1.075954E-04
5.645442E+03	3.577413E-03	1.073630E-04
5.655399E+03	3.566884E-03	1.070933E-04
5.665356E+03	3.556300E-03	1.067894E-04
5.675312E+03	3.545866E-03	1.064566E-04
5.685269E+03	3.535648E-03	1.060961E-04
5.695226E+03	3.525788E-03	1.057114E-04
5.705182E+03	3.516424E-03	1.053061E-04
5.715139E+03	3.507695E-03	1.048836E-04
5.725096E+03	3.499737E-03	1.044476E-04
5.735053E+03	3.492746E-03	1.040032E-04
5.745009E+03	3.486711E-03	1.035496E-04
5.754966E+03	3.481879E-03	1.030936E-04
5.764923E+03	3.478280E-03	1.026354E-04
5.774879E+03	3.475935E-03	1.021751E-04
5.784836E+03	3.475049E-03	1.017181E-04
5.794793E+03	3.475602E-03	1.012633E-04
5.804749E+03	3.477558E-03	1.008087E-04
5.814706E+03	3.481058E-03	1.003579E-04
5.824663E+03	3.486027E-03	9.990807E-05
5.834619E+03	3.492357E-03	9.945537E-05
5.844576E+03	3.500129E-03	9.900152E-05
5.854533E+03	3.509128E-03	9.853987E-05
5.864489E+03	3.519401E-03	9.807124E-05
5.874446E+03	3.530695E-03	9.758825E-05
5.884403E+03	3.542957E-03	9.708927E-05
5.894360E+03	3.556057E-03	9.657064E-05
5.904316E+03	3.569859E-03	9.602891E-05
5.914273E+03	3.584218E-03	9.546057E-05
5.924230E+03	3.599000E-03	9.486275E-05
5.934186E+03	3.614071E-03	9.423290E-05
5.944143E+03	3.629231E-03	9.356717E-05
5.954100E+03	3.644435E-03	9.286602E-05
5.964056E+03	3.659575E-03	9.212878E-05
5.974013E+03	3.674559E-03	9.135545E-05
5.983970E+03	3.689309E-03	9.054692E-05
5.993926E+03	3.703681E-03	8.970283E-05
6.003883E+03	3.717694E-03	8.882726E-05
6.013840E+03	3.731301E-03	8.792315E-05
6.023796E+03	3.744466E-03	8.699410E-05
6.033753E+03	3.757168E-03	8.604450E-05
6.043710E+03	3.769308E-03	8.507752E-05
6.053667E+03	3.780947E-03	8.410044E-05
6.063623E+03	3.792068E-03	8.311920E-05
6.073580E+03	3.802660E-03	8.214042E-05
6.083537E+03	3.812640E-03	8.116963E-05
6.093493E+03	3.822136E-03	8.021743E-05
6.103450E+03	3.830988E-03	7.928872E-05
6.113407E+03	3.839174E-03	7.839189E-05
6.123363E+03	3.846819E-03	7.753863E-05
6.133320E+03	3.853748E-03	7.673496E-05
6.143277E+03	3.860001E-03	7.599146E-05
6.153233E+03	3.865545E-03	7.531747E-05
6.163190E+03	3.870335E-03	7.472210E-05
6.173147E+03	3.874256E-03	7.421303E-05
6.183103E+03	3.877411E-03	7.380183E-05
6.193060E+03	3.879597E-03	7.349377E-05
6.203017E+03	3.880837E-03	7.329775E-05
6.212974E+03	3.881004E-03	7.321858E-05
6.222930E+03	3.880272E-03	7.326051E-05
6.232887E+03	3.878659E-03	7.341963E-05
6.242844E+03	3.876495E-03	7.369686E-05
6.252800E+03	3.873806E-03	7.408668E-05
6.262757E+03	3.870848E-03	7.458733E-05
6.272714E+03	3.867791E-03	7.519513E-05
6.282670E+03	3.864729E-03	7.590477E-05
6.292627E+03	3.861975E-03	7.671523E-05
6.302584E+03	3.859615E-03	7.762121E-05
6.312540E+03	3.857730E-03	7.861755E-05
6.322497E+03	3.856608E-03	7.970369E-05
6.332454E+03	3.856237E-03	8.087339E-05
6.342411E+03	3.856882E-03	8.212669E-05
6.352367E+03	3.858574E-03	8.345925E-05
6.362324E+03	3.861325E-03	8.486685E-05
6.372281E+03	3.865349E-03	8.635014E-05
6.382237E+03	3.870613E-03	8.790495E-05
6.392194E+03	3.877058E-03	8.952681E-05
6.402151E+03	3.884824E-03	9.121623E-05
6.412107E+03	3.893796E-03	9.296828E-05
6.422064E+03	3.903975E-03	9.478089E-05
6.432021E+03	3.915113E-03	9.664625E-05
6.441977E+03	3.927226E-03	9.856245E-05
6.451934E+03	3.940088E-03	1.005205E-04
6.461891E+03	3.953518E-03	1.025121E-04
6.471847E+03	3.967303E-03	1.045283E-04
6.481804E+03	3.981288E-03	1.065613E-04
6.491761E+03	3.995151E-03	1.085988E-04
6.501718E+03	4.008624E-03	1.106294E-04
6.511674E+03	4.021493E-03	1.126433E-04
6.521631E+03	4.033340E-03	1.146244E-04
6.531588E+03	4.043834E-03	1.165587E-04
6.541544E+03	4.052734E-03	1.184346E-04
6.551501E+03	4.059665E-03	1.202361E-04
6.561458E+03	4.064438E-03	1.219526E-04
6.571414E+03	4.066740E-03	1.235696E-04
6.581371E+03	4.066462E-03	1.250786E-04
6.591328E+03	4.063377E-03	1.264675E-04
6.601284E+03	4.057474E-03	1.277310E-04
6.611241E+03	4.048710E-03	1.288629E-04
6.621198E+03	4.037018E-03	1.298566E-04
6.631154E+03	4.022531E-03	1.307122E-04
6.641111E+03	4.005365E-03	1.314295E-04
6.651068E+03	3.985588E-03	1.320073E-04
6.661025E+03	3.963475E-03	1.324517E-04
6.670981E+03	3.939244E-03	1.327675E-04
6.680938E+03	3.913069E-03	1.329583E-04
6.690895E+03	3.885296E-03	1.330342E-04
6.700851E+03	3.856274E-03	1.330059E-04
6.710808E+03	3.826137E-03	1.328774E-04
6.720765E+03	3.795169E-03	1.326579E-04
6.730721E+03	3.763794E-03	1.323621E-04
6.740678E+03	3.732207E-03	1.319971E-04
6.750635E+03	3.700576E-03	1.315693E-04
6.760591E+03	3.669287E-03	1.310931E-04
6.770548E+03	3.638477E-03	1.305743E-04
6.780505E+03	3.608261E-03	1.300178E-04
6.790461E+03	3.578959E-03	1.294364E-04
6.800418E+03	3.550566E-03	1.288309E-04
6.810375E+03	3.523355E-03	1.282125E-04
6.820332E+03	3.497355E-03	1.275832E-04
6.830288E+03	3.472653E-03	1.269474E-04
6.840245E+03	3.449310E-03	1.263085E-04
6.850202E+03	3.427375E-03	1.256692E-04
6.860158E+03	3.406947E-03	1.250341E-04
6.870115E+03	3.387904E-03	1.243996E-04
6.880072E+03	3.370388E-03	1.237718E-04
6.890028E+03	3.354320E-03	1.231483E-04
6.899985E+03	3.339684E-03	1.225292E-04
6.909942E+03	3.326517E-03	1.219163E-04
6.919898E+03	3.314721E-03	1.213066E-04
6.929855E+03	3.304245E-03	1.206985E-04
6.939812E+03	3.295120E-03	1.200933E-04
6.949769E+03	3.287152E-03	1.194842E-04
6.959725E+03	3.280486E-03	1.188767E-04
6.969682E+03	3.274862E-03	1.182613E-04
6.979639E+03	3.270356E-03	1.176409E-04
6.989595E+03	3.266830E-03	1.170105E-04
6.999552E+03	3.264293E-03	1.163705E-04
7.009509E+03	3.262605E-03	1.157158E-04
7.019465E+03	3.261766E-03	1.150465E-04
7.029422E+03	3.261642E-03	1.143577E-04
7.039379E+03	3.262225E-03	1.136492E-04
7.049335E+03	3.263378E-03	1.129164E-04
7.059292E+03	3.265026E-03	1.121568E-04
7.069249E+03	3.267161E-03	1.113702E-04
7.079205E+03	3.269709E-03	1.105544E-04
7.089162E+03	3.272518E-03	1.097046E-04
7.099119E+03	3.275509E-03	1.088186E-04
7.109076E+03	3.278728E-03	1.078986E-04
7.119032E+03	3.281884E-03	1.069356E-04
7.128989E+03	3.285089E-03	1.059342E-04
7.138946E+03	3.288114E-03	1.048880E-04
7.148902E+03	3.290855E-03	1.037950E-04
7.158859E+03	3.293283E-03	1.026559E-04
7.168816E+03	3.295295E-03	1.014689E-04
7.178772E+03	3.296717E-03	1.002308E-04
7.188729E+03	3.297512E-03	9.894256E-05
7.198686E+03	3.297581E-03	9.760374E-05
7.208642E+03	3.296748E-03	9.621194E-05
7.218599E+03	3.294984E-03	9.476938E-05
7.228556E+03	3.292202E-03	9.327692E-05
7.238512E+03	3.288241E-03	9.173375E-05
7.248469E+03	3.283097E-03	9.014374E-05
7.258426E+03	3.276703E-03	8.850944E-05
7.268383E+03	3.268933E-03	8.683205E-05
7.278339E+03	3.259812E-03	8.511718E-05
7.288296E+03	3.249318E-03	8.336944E-05
7.298253E+03	3.237434E-03	8.159386E-05
7.308209E+03	3.224089E-03	7.979437E-05
7.318166E+03	3.209372E-03	7.797911E-05
7.328123E+03	3.193242E-03	7.615322E-05
7.338079E+03	3.175883E-03	7.432739E-05
7.348036E+03	3.157212E-03	7.250607E-05
7.357993E+03	3.137370E-03	7.069903E-05
7.367949E+03	3.116362E-03	6.891302E-05
7.377906E+03	3.094417E-03	6.715974E-05
7.387863E+03	3.071485E-03	6.544474E-05
7.397819E+03	3.047737E-03	6.377830E-05
7.407776E+03	3.023204E-03	6.216764E-05
7.417733E+03	2.998127E-03	6.062408E-05
7.427690E+03	2.972476E-03	5.915322E-05
7.437646E+03	2.946419E-03	5.776434E-05
7.447603E+03	2.920062E-03	5.646509E-05
7.457560E+03	2.893441E-03	5.526126E-05
7.467516E+03	2.866785E-03	5.416186E-05
7.477473E+03	2.840062E-03	5.317017E-05
7.487430E+03	2.813426E-03	5.229230E-05
7.497386E+03	2.786969E-03	5.153228E-05
7.507343E+03	2.760701E-03	5.088937E-05
7.517300E+03	2.734831E-03	5.036096E-05
7.527256E+03	2.709299E-03	4.993840E-05
7.537213E+03	2.684220E-03	4.961589E-05
7.547170E+03	2.659645E-03	4.938631E-05
7.557126E+03	2.635542E-03	4.924094E-05
7.567083E+03	2.612046E-03	4.917427E-05
7.577040E+03	2.589034E-03	4.917615E-05
7.586997E+03	2.566576E-03	4.924038E-05
7.596953E+03	2.544817E-03	4.936256E-05
7.606910E+03	2.523916E-03	4.953919E-05
7.616867E+03	2.504005E-03	4.976685E-05
7.626823E+03	2.485131E-03	5.004102E-05
7.636780E+03	2.467431E-03	5.035963E-05
7.646737E+03	2.450957E-03	5.071955E-05
7.656693E+03	2.435739E-03	5.111771E-05
7.666650E+03	2.421785E-03	5.155112E-05
7.676607E+03	2.409082E-03	5.201682E-05
7.686563E+03	2.397545E-03	5.251062E-05
7.696520E+03	2.387244E-03	5.303216E-05
7.706477E+03	2.378008E-03	5.357597E-05
7.716434E+03	2.369824E-03	5.414044E-05
7.726390E+03	2.362618E-03	5.472267E-05
