#wls	flux	fluxerr
1.593070E+03	2.629289E-05	7.676782E-06
1.632897E+03	2.664366E-05	7.735678E-06
1.672724E+03	2.692110E-05	7.771204E-06
1.712550E+03	2.710445E-05	7.777717E-06
1.752377E+03	2.719311E-05	7.755494E-06
1.792204E+03	2.716549E-05	7.698882E-06
1.832031E+03	2.699473E-05	7.600930E-06
1.871857E+03	2.664413E-05	7.452167E-06
1.911684E+03	2.610084E-05	7.250066E-06
1.951511E+03	2.533938E-05	6.988760E-06
1.991338E+03	2.439857E-05	6.680254E-06
2.031164E+03	2.336331E-05	6.348809E-06
2.070991E+03	2.240573E-05	6.041544E-06
2.110818E+03	2.174689E-05	5.817225E-06
2.150645E+03	2.157618E-05	5.724251E-06
2.190471E+03	2.194962E-05	5.774160E-06
2.230298E+03	2.278768E-05	5.942487E-06
2.270125E+03	2.393314E-05	6.185285E-06
2.309952E+03	2.521313E-05	6.455953E-06
2.349778E+03	2.650678E-05	6.722672E-06
2.389605E+03	2.773955E-05	6.966421E-06
2.429432E+03	2.887767E-05	7.179058E-06
2.469259E+03	2.991306E-05	7.359134E-06
2.509085E+03	3.085734E-05	7.510104E-06
2.548912E+03	3.171656E-05	7.633989E-06
2.588739E+03	3.250460E-05	7.734636E-06
2.628566E+03	3.324731E-05	7.818580E-06
2.668392E+03	3.394585E-05	7.886343E-06
2.708219E+03	3.463015E-05	7.945057E-06
2.748046E+03	3.529935E-05	7.994537E-06
2.787873E+03	3.596977E-05	8.038454E-06
2.827700E+03	3.666311E-05	8.081475E-06
2.867526E+03	3.738313E-05	8.124101E-06
2.907353E+03	3.813971E-05	8.168088E-06
2.947180E+03	3.896070E-05	8.218853E-06
2.987007E+03	3.984553E-05	8.275537E-06
2.996963E+03	4.008339E-05	8.291926E-06
3.006920E+03	4.032367E-05	8.308293E-06
3.016877E+03	4.057239E-05	8.325861E-06
3.026833E+03	4.082454E-05	8.343589E-06
3.036790E+03	4.108827E-05	8.363122E-06
3.046747E+03	4.136598E-05	8.384914E-06
3.056703E+03	4.165146E-05	8.407674E-06
3.066660E+03	4.195015E-05	8.432476E-06
3.076617E+03	4.226177E-05	8.459227E-06
3.086573E+03	4.258031E-05	8.486691E-06
3.096530E+03	4.291140E-05	8.515967E-06
3.106487E+03	4.325494E-05	8.547002E-06
3.116443E+03	4.360506E-05	8.578604E-06
3.126400E+03	4.397341E-05	8.613034E-06
3.136357E+03	4.434838E-05	8.647980E-06
3.146314E+03	4.473590E-05	8.684571E-06
3.156270E+03	4.513028E-05	8.721673E-06
3.166227E+03	4.554340E-05	8.761550E-06
3.176184E+03	4.596378E-05	8.801950E-06
3.186140E+03	4.640347E-05	8.845148E-06
3.196097E+03	4.685101E-05	8.888916E-06
3.206054E+03	4.731268E-05	8.934414E-06
3.216010E+03	4.778888E-05	8.981676E-06
3.225967E+03	4.828008E-05	9.030748E-06
3.235924E+03	4.878681E-05	9.081684E-06
3.245880E+03	4.930960E-05	9.134538E-06
3.255837E+03	4.984908E-05	9.189375E-06
3.265794E+03	5.040590E-05	9.246269E-06
3.275750E+03	5.098076E-05	9.305295E-06
3.285707E+03	5.158049E-05	9.367639E-06
3.295664E+03	5.219380E-05	9.431189E-06
3.305621E+03	5.283372E-05	9.498245E-06
3.315577E+03	5.348899E-05	9.566716E-06
3.325534E+03	5.417284E-05	9.638910E-06
3.335491E+03	5.488023E-05	9.713848E-06
3.345447E+03	5.561232E-05	9.791665E-06
3.355404E+03	5.637656E-05	9.873591E-06
3.365361E+03	5.716807E-05	9.958682E-06
3.375317E+03	5.798824E-05	1.004709E-05
3.385274E+03	5.883854E-05	1.013900E-05
3.395231E+03	5.972694E-05	1.023567E-05
3.405187E+03	6.064883E-05	1.033620E-05
3.415144E+03	6.161246E-05	1.044190E-05
3.425101E+03	6.261339E-05	1.055188E-05
3.435057E+03	6.365367E-05	1.066638E-05
3.445014E+03	6.474209E-05	1.078675E-05
3.454971E+03	6.588117E-05	1.091325E-05
3.464928E+03	6.706683E-05	1.104507E-05
3.474884E+03	6.830172E-05	1.118248E-05
3.484841E+03	6.960237E-05	1.132804E-05
3.494798E+03	7.095833E-05	1.147986E-05
3.504754E+03	7.237280E-05	1.163827E-05
3.514711E+03	7.385626E-05	1.180477E-05
3.524668E+03	7.541253E-05	1.197977E-05
3.534624E+03	7.704569E-05	1.216368E-05
3.544581E+03	7.876007E-05	1.235695E-05
3.554538E+03	8.055288E-05	1.255889E-05
3.564494E+03	8.243622E-05	1.277113E-05
3.574451E+03	8.441528E-05	1.299420E-05
3.584408E+03	8.649559E-05	1.322864E-05
3.594365E+03	8.868299E-05	1.347504E-05
3.604321E+03	9.098372E-05	1.373400E-05
3.614278E+03	9.340440E-05	1.400616E-05
3.624235E+03	9.594378E-05	1.429097E-05
3.634191E+03	9.862556E-05	1.459157E-05
3.644148E+03	1.014494E-04	1.490746E-05
3.654105E+03	1.044237E-04	1.523943E-05
3.664061E+03	1.075661E-04	1.558956E-05
3.674018E+03	1.108684E-04	1.595616E-05
3.683975E+03	1.143586E-04	1.634271E-05
3.693931E+03	1.180383E-04	1.674888E-05
3.703888E+03	1.219187E-04	1.717564E-05
3.713845E+03	1.260118E-04	1.762403E-05
3.723801E+03	1.303403E-04	1.809655E-05
3.733758E+03	1.349079E-04	1.859296E-05
3.743715E+03	1.397394E-04	1.911592E-05
3.753672E+03	1.448401E-04	1.966530E-05
3.763628E+03	1.502260E-04	2.024242E-05
3.773585E+03	1.559256E-04	2.085019E-05
3.783542E+03	1.619582E-04	2.149018E-05
3.793498E+03	1.683320E-04	2.216243E-05
3.803455E+03	1.750675E-04	2.286852E-05
3.813412E+03	1.821995E-04	2.361184E-05
3.823368E+03	1.897517E-04	2.439416E-05
3.833325E+03	1.977362E-04	2.521572E-05
3.843282E+03	2.061921E-04	2.608008E-05
3.853238E+03	2.151470E-04	2.698922E-05
3.863195E+03	2.246295E-04	2.794511E-05
3.873152E+03	2.346538E-04	2.894782E-05
3.883108E+03	2.452640E-04	3.000104E-05
3.893065E+03	2.564903E-04	3.110658E-05
3.903022E+03	2.683467E-04	3.226415E-05
3.912979E+03	2.808958E-04	3.347922E-05
3.922935E+03	2.941336E-04	3.474912E-05
3.932892E+03	3.081060E-04	3.607702E-05
3.942849E+03	3.228606E-04	3.746613E-05
3.952805E+03	3.383876E-04	3.891282E-05
3.962762E+03	3.547320E-04	4.041978E-05
3.972719E+03	3.719195E-04	4.198730E-05
3.982675E+03	3.899530E-04	4.361304E-05
3.992632E+03	4.088994E-04	4.530170E-05
4.002589E+03	4.287595E-04	4.705049E-05
4.012545E+03	4.495536E-04	4.885871E-05
4.022502E+03	4.713008E-04	5.072545E-05
4.032459E+03	4.940174E-04	5.264945E-05
4.042415E+03	5.177178E-04	5.462912E-05
4.052372E+03	5.424131E-04	5.666255E-05
4.062329E+03	5.681123E-04	5.874750E-05
4.072286E+03	5.948208E-04	6.088136E-05
4.082242E+03	6.225416E-04	6.306128E-05
4.092199E+03	6.513069E-04	6.528729E-05
4.102156E+03	6.810512E-04	6.754963E-05
4.112112E+03	7.118006E-04	6.984780E-05
4.122069E+03	7.435843E-04	7.218150E-05
4.132026E+03	7.763237E-04	7.453999E-05
4.141982E+03	8.100429E-04	7.692259E-05
4.151939E+03	8.447685E-04	7.932880E-05
4.161896E+03	8.804084E-04	8.174699E-05
4.171852E+03	9.170245E-04	8.418005E-05
4.181809E+03	9.545138E-04	8.661569E-05
4.191766E+03	9.929346E-04	8.905653E-05
4.201723E+03	1.032171E-03	9.148952E-05
4.211679E+03	1.072275E-03	9.391688E-05
4.221636E+03	1.113116E-03	9.632465E-05
4.231593E+03	1.154689E-03	9.871043E-05
4.241549E+03	1.196939E-03	1.010675E-04
4.251506E+03	1.239802E-03	1.033887E-04
4.261463E+03	1.283157E-03	1.056623E-04
4.271419E+03	1.327028E-03	1.078892E-04
4.281376E+03	1.371227E-03	1.100529E-04
4.291333E+03	1.415716E-03	1.121499E-04
4.301289E+03	1.460349E-03	1.141683E-04
4.311246E+03	1.505089E-03	1.161052E-04
4.321203E+03	1.549850E-03	1.179541E-04
4.331159E+03	1.594494E-03	1.197053E-04
4.341116E+03	1.639010E-03	1.213587E-04
4.351073E+03	1.683283E-03	1.229069E-04
4.361030E+03	1.727336E-03	1.243531E-04
4.370986E+03	1.771095E-03	1.256932E-04
4.380943E+03	1.814568E-03	1.269295E-04
4.390900E+03	1.857791E-03	1.280661E-04
4.400856E+03	1.900892E-03	1.291130E-04
4.410813E+03	1.943890E-03	1.300731E-04
4.420770E+03	1.986893E-03	1.309544E-04
4.430726E+03	2.029958E-03	1.317617E-04
4.440683E+03	2.073360E-03	1.325132E-04
4.450640E+03	2.117185E-03	1.332146E-04
4.460596E+03	2.161523E-03	1.338713E-04
4.470553E+03	2.206604E-03	1.344969E-04
4.480510E+03	2.252580E-03	1.350998E-04
4.490466E+03	2.299592E-03	1.356870E-04
4.500423E+03	2.347680E-03	1.362593E-04
4.510380E+03	2.396923E-03	1.368198E-04
4.520337E+03	2.447431E-03	1.373731E-04
4.530293E+03	2.499122E-03	1.379128E-04
4.540250E+03	2.551936E-03	1.384344E-04
4.550207E+03	2.605835E-03	1.389348E-04
4.560163E+03	2.660499E-03	1.393967E-04
4.570120E+03	2.715868E-03	1.398171E-04
4.580077E+03	2.771537E-03	1.401765E-04
4.590033E+03	2.827287E-03	1.404658E-04
4.599990E+03	2.882803E-03	1.406724E-04
4.609947E+03	2.937750E-03	1.407836E-04
4.619903E+03	2.991694E-03	1.407833E-04
4.629860E+03	3.044369E-03	1.406649E-04
4.639817E+03	3.095343E-03	1.404150E-04
4.649773E+03	3.144375E-03	1.400304E-04
4.659730E+03	3.191076E-03	1.395025E-04
4.669687E+03	3.235187E-03	1.388290E-04
4.679644E+03	3.276492E-03	1.380108E-04
4.689600E+03	3.314843E-03	1.370521E-04
4.699557E+03	3.350164E-03	1.359604E-04
4.709514E+03	3.382466E-03	1.347468E-04
4.719470E+03	3.411851E-03	1.334262E-04
4.729427E+03	3.438520E-03	1.320165E-04
4.739384E+03	3.462667E-03	1.305349E-04
4.749340E+03	3.484720E-03	1.290066E-04
4.759297E+03	3.504956E-03	1.274502E-04
4.769254E+03	3.523805E-03	1.258890E-04
4.779210E+03	3.541469E-03	1.243370E-04
4.789167E+03	3.558184E-03	1.228092E-04
4.799124E+03	3.574221E-03	1.213209E-04
4.809080E+03	3.589559E-03	1.198772E-04
4.819037E+03	3.604480E-03	1.184935E-04
4.828994E+03	3.618972E-03	1.171745E-04
4.838951E+03	3.633005E-03	1.159249E-04
4.848907E+03	3.646759E-03	1.147556E-04
4.858864E+03	3.660142E-03	1.136689E-04
4.868821E+03	3.673055E-03	1.126668E-04
4.878777E+03	3.685542E-03	1.117555E-04
4.888734E+03	3.697480E-03	1.109360E-04
4.898691E+03	3.708976E-03	1.102158E-04
4.908647E+03	3.719747E-03	1.095906E-04
4.918604E+03	3.729982E-03	1.090681E-04
4.928561E+03	3.739497E-03	1.086406E-04
4.938517E+03	3.748264E-03	1.083039E-04
4.948474E+03	3.756276E-03	1.080541E-04
4.958431E+03	3.763683E-03	1.078909E-04
4.968388E+03	3.770256E-03	1.078031E-04
4.978344E+03	3.776089E-03	1.077882E-04
4.988301E+03	3.781281E-03	1.078437E-04
4.998258E+03	3.785792E-03	1.079628E-04
5.008214E+03	3.789740E-03	1.081431E-04
5.018171E+03	3.793038E-03	1.083763E-04
5.028128E+03	3.795909E-03	1.086628E-04
5.038084E+03	3.798302E-03	1.089954E-04
5.048041E+03	3.800474E-03	1.093757E-04
5.057998E+03	3.802485E-03	1.097998E-04
5.067954E+03	3.804485E-03	1.102667E-04
5.077911E+03	3.806640E-03	1.107761E-04
5.087868E+03	3.809123E-03	1.113282E-04
5.097824E+03	3.812111E-03	1.119236E-04
5.107781E+03	3.815775E-03	1.125631E-04
5.117738E+03	3.820283E-03	1.132478E-04
5.127695E+03	3.825850E-03	1.139806E-04
5.137651E+03	3.832464E-03	1.147578E-04
5.147608E+03	3.840295E-03	1.155818E-04
5.157565E+03	3.849410E-03	1.164517E-04
5.167521E+03	3.859855E-03	1.173667E-04
5.177478E+03	3.871637E-03	1.183249E-04
5.187435E+03	3.884740E-03	1.193239E-04
5.197391E+03	3.899126E-03	1.203606E-04
5.207348E+03	3.914727E-03	1.214316E-04
5.217305E+03	3.931465E-03	1.225328E-04
5.227261E+03	3.949240E-03	1.236600E-04
5.237218E+03	3.967940E-03	1.248083E-04
5.247175E+03	3.987440E-03	1.259726E-04
5.257131E+03	4.007596E-03	1.271476E-04
5.267088E+03	4.028257E-03	1.283273E-04
5.277045E+03	4.049258E-03	1.295057E-04
5.287002E+03	4.070427E-03	1.306766E-04
5.296958E+03	4.091580E-03	1.318332E-04
5.306915E+03	4.112523E-03	1.329687E-04
5.316872E+03	4.133062E-03	1.340763E-04
5.326828E+03	4.152993E-03	1.351488E-04
5.336785E+03	4.172183E-03	1.361815E-04
5.346742E+03	4.190299E-03	1.371632E-04
5.356698E+03	4.207212E-03	1.380894E-04
5.366655E+03	4.222807E-03	1.389562E-04
5.376612E+03	4.236770E-03	1.397532E-04
5.386568E+03	4.249078E-03	1.404797E-04
5.396525E+03	4.259450E-03	1.411265E-04
5.406482E+03	4.267904E-03	1.416944E-04
5.416438E+03	4.274275E-03	1.421783E-04
5.426395E+03	4.278442E-03	1.425746E-04
5.436352E+03	4.280519E-03	1.428875E-04
5.446309E+03	4.280463E-03	1.431161E-04
5.456265E+03	4.278331E-03	1.432630E-04
5.466222E+03	4.274206E-03	1.433316E-04
5.476179E+03	4.268165E-03	1.433233E-04
5.486135E+03	4.260285E-03	1.432386E-04
5.496092E+03	4.250620E-03	1.430771E-04
5.506049E+03	4.239221E-03	1.428386E-04
5.516005E+03	4.226131E-03	1.425226E-04
5.525962E+03	4.211391E-03	1.421286E-04
5.535919E+03	4.194984E-03	1.416544E-04
5.545875E+03	4.177088E-03	1.411043E-04
5.555832E+03	4.157700E-03	1.404769E-04
5.565789E+03	4.136829E-03	1.397712E-04
5.575746E+03	4.114689E-03	1.389931E-04
5.585702E+03	4.091258E-03	1.381409E-04
5.595659E+03	4.066700E-03	1.372193E-04
5.605616E+03	4.041128E-03	1.362313E-04
5.615572E+03	4.014597E-03	1.351782E-04
5.625529E+03	3.987272E-03	1.340650E-04
5.635486E+03	3.959263E-03	1.328950E-04
5.645442E+03	3.930675E-03	1.316717E-04
5.655399E+03	3.901563E-03	1.303965E-04
5.665356E+03	3.872105E-03	1.290756E-04
5.675312E+03	3.842385E-03	1.277117E-04
5.685269E+03	3.812574E-03	1.263106E-04
5.695226E+03	3.782931E-03	1.248811E-04
5.705182E+03	3.753700E-03	1.234314E-04
5.715139E+03	3.725116E-03	1.219694E-04
5.725096E+03	3.697509E-03	1.205060E-04
5.735053E+03	3.671254E-03	1.190532E-04
5.745009E+03	3.646811E-03	1.176258E-04
5.754966E+03	3.624500E-03	1.162336E-04
5.764923E+03	3.604868E-03	1.148933E-04
5.774879E+03	3.588287E-03	1.136156E-04
5.784836E+03	3.575167E-03	1.124120E-04
5.794793E+03	3.565868E-03	1.112918E-04
5.804749E+03	3.560676E-03	1.102617E-04
5.814706E+03	3.559745E-03	1.093236E-04
5.824663E+03	3.563267E-03	1.084803E-04
5.834619E+03	3.571104E-03	1.077243E-04
5.844576E+03	3.583139E-03	1.070487E-04
5.854533E+03	3.599026E-03	1.064395E-04
5.864489E+03	3.618410E-03	1.058831E-04
5.874446E+03	3.640804E-03	1.053621E-04
5.884403E+03	3.665596E-03	1.048562E-04
5.894360E+03	3.692258E-03	1.043481E-04
5.904316E+03	3.720152E-03	1.038185E-04
5.914273E+03	3.748712E-03	1.032508E-04
5.924230E+03	3.777473E-03	1.026322E-04
5.934186E+03	3.805924E-03	1.019495E-04
5.944143E+03	3.833739E-03	1.011956E-04
5.954100E+03	3.860505E-03	1.003617E-04
5.964056E+03	3.886113E-03	9.944766E-05
5.974013E+03	3.910300E-03	9.845028E-05
5.983970E+03	3.933086E-03	9.737389E-05
5.993926E+03	3.954380E-03	9.622063E-05
6.003883E+03	3.974184E-03	9.499534E-05
6.013840E+03	3.992522E-03	9.370379E-05
6.023796E+03	4.009389E-03	9.235154E-05
6.033753E+03	4.024957E-03	9.094856E-05
6.043710E+03	4.039236E-03	8.950146E-05
6.053667E+03	4.052236E-03	8.801732E-05
6.063623E+03	4.064128E-03	8.650717E-05
6.073580E+03	4.074853E-03	8.497748E-05
6.083537E+03	4.084498E-03	8.343841E-05
6.093493E+03	4.093084E-03	8.189920E-05
6.103450E+03	4.100553E-03	8.036818E-05
6.113407E+03	4.107017E-03	7.885755E-05
6.123363E+03	4.112346E-03	7.737544E-05
6.133320E+03	4.116585E-03	7.593389E-05
6.143277E+03	4.119728E-03	7.454453E-05
6.153233E+03	4.121787E-03	7.321965E-05
6.163190E+03	4.122738E-03	7.197120E-05
6.173147E+03	4.122746E-03	7.081457E-05
6.183103E+03	4.121782E-03	6.976157E-05
6.193060E+03	4.119995E-03	6.882678E-05
6.203017E+03	4.117496E-03	6.802349E-05
6.212974E+03	4.114392E-03	6.736400E-05
6.222930E+03	4.110772E-03	6.685850E-05
6.232887E+03	4.106712E-03	6.650854E-05
6.242844E+03	4.102216E-03	6.630939E-05
6.252800E+03	4.097483E-03	6.625824E-05
6.262757E+03	4.092557E-03	6.634878E-05
6.272714E+03	4.087585E-03	6.657569E-05
6.282670E+03	4.082743E-03	6.693359E-05
6.292627E+03	4.078260E-03	6.741778E-05
6.302584E+03	4.074453E-03	6.802508E-05
6.312540E+03	4.071512E-03	6.875047E-05
6.322497E+03	4.069868E-03	6.959349E-05
6.332454E+03	4.069854E-03	7.055284E-05
6.342411E+03	4.071757E-03	7.162725E-05
6.352367E+03	4.075908E-03	7.281720E-05
6.362324E+03	4.082676E-03	7.412489E-05
6.372281E+03	4.092289E-03	7.555110E-05
6.382237E+03	4.105058E-03	7.709918E-05
6.392194E+03	4.121183E-03	7.877143E-05
6.402151E+03	4.140831E-03	8.057048E-05
6.412107E+03	4.164033E-03	8.249718E-05
6.422064E+03	4.190875E-03	8.455409E-05
6.432021E+03	4.221369E-03	8.674292E-05
6.441977E+03	4.255257E-03	8.906031E-05
6.451934E+03	4.292362E-03	9.150436E-05
6.461891E+03	4.332409E-03	9.406889E-05
6.471847E+03	4.374901E-03	9.674109E-05
6.481804E+03	4.419280E-03	9.950621E-05
6.491761E+03	4.464875E-03	1.023461E-04
6.501718E+03	4.510970E-03	1.052406E-04
6.511674E+03	4.556674E-03	1.081642E-04
6.521631E+03	4.600953E-03	1.110869E-04
6.531588E+03	4.642847E-03	1.139786E-04
6.541544E+03	4.681282E-03	1.168052E-04
6.551501E+03	4.715346E-03	1.195349E-04
6.561458E+03	4.744159E-03	1.221358E-04
6.571414E+03	4.766957E-03	1.245775E-04
6.581371E+03	4.783136E-03	1.268334E-04
6.591328E+03	4.792341E-03	1.288828E-04
6.601284E+03	4.794223E-03	1.307052E-04
6.611241E+03	4.788836E-03	1.322909E-04
6.621198E+03	4.776450E-03	1.336373E-04
6.631154E+03	4.757389E-03	1.347440E-04
6.641111E+03	4.732273E-03	1.356199E-04
6.651068E+03	4.701645E-03	1.362734E-04
6.661025E+03	4.666469E-03	1.367261E-04
6.670981E+03	4.627417E-03	1.369930E-04
6.680938E+03	4.585379E-03	1.370965E-04
6.690895E+03	4.541087E-03	1.370561E-04
6.700851E+03	4.495355E-03	1.368945E-04
6.710808E+03	4.448876E-03	1.366321E-04
6.720765E+03	4.402276E-03	1.362881E-04
6.730721E+03	4.356092E-03	1.358798E-04
6.740678E+03	4.310789E-03	1.354226E-04
6.750635E+03	4.266688E-03	1.349282E-04
6.760591E+03	4.224225E-03	1.344118E-04
6.770548E+03	4.183578E-03	1.338810E-04
6.780505E+03	4.144927E-03	1.333435E-04
6.790461E+03	4.108459E-03	1.328071E-04
6.800418E+03	4.074125E-03	1.322723E-04
6.810375E+03	4.042090E-03	1.317461E-04
6.820332E+03	4.012357E-03	1.312303E-04
6.830288E+03	3.984791E-03	1.307221E-04
6.840245E+03	3.959467E-03	1.302255E-04
6.850202E+03	3.936335E-03	1.297400E-04
6.860158E+03	3.915266E-03	1.292625E-04
6.870115E+03	3.896239E-03	1.287934E-04
6.880072E+03	3.879115E-03	1.283290E-04
6.890028E+03	3.863858E-03	1.278688E-04
6.899985E+03	3.850315E-03	1.274084E-04
6.909942E+03	3.838449E-03	1.269470E-04
6.919898E+03	3.828161E-03	1.264817E-04
6.929855E+03	3.819286E-03	1.260076E-04
6.939812E+03	3.811838E-03	1.255253E-04
6.949769E+03	3.805543E-03	1.250260E-04
6.959725E+03	3.800469E-03	1.245119E-04
6.969682E+03	3.796453E-03	1.239781E-04
6.979639E+03	3.793335E-03	1.234192E-04
6.989595E+03	3.791078E-03	1.228343E-04
6.999552E+03	3.789588E-03	1.222204E-04
7.009509E+03	3.788781E-03	1.215749E-04
7.019465E+03	3.788585E-03	1.208957E-04
7.029422E+03	3.788929E-03	1.201807E-04
7.039379E+03	3.789764E-03	1.194285E-04
7.049335E+03	3.790989E-03	1.186364E-04
7.059292E+03	3.792679E-03	1.178070E-04
7.069249E+03	3.794694E-03	1.169364E-04
7.079205E+03	3.797129E-03	1.160280E-04
7.089162E+03	3.799838E-03	1.150777E-04
7.099119E+03	3.802859E-03	1.140875E-04
7.109076E+03	3.806219E-03	1.130587E-04
7.119032E+03	3.809767E-03	1.119875E-04
7.128989E+03	3.813568E-03	1.108770E-04
7.138946E+03	3.817444E-03	1.097227E-04
7.148902E+03	3.821436E-03	1.085272E-04
7.158859E+03	3.825328E-03	1.072856E-04
7.168816E+03	3.829128E-03	1.059999E-04
7.178772E+03	3.832588E-03	1.046650E-04
7.188729E+03	3.835680E-03	1.032823E-04
7.198686E+03	3.838124E-03	1.018470E-04
7.208642E+03	3.839873E-03	1.003606E-04
7.218599E+03	3.840686E-03	9.882012E-05
7.228556E+03	3.840325E-03	9.722339E-05
7.238512E+03	3.838729E-03	9.557309E-05
7.248469E+03	3.835666E-03	9.386821E-05
7.258426E+03	3.830969E-03	9.210988E-05
7.268383E+03	3.824489E-03	9.030031E-05
7.278339E+03	3.816099E-03	8.844275E-05
7.288296E+03	3.805700E-03	8.654158E-05
7.298253E+03	3.793232E-03	8.460258E-05
7.308209E+03	3.778666E-03	8.263254E-05
7.318166E+03	3.762026E-03	8.063981E-05
7.328123E+03	3.743439E-03	7.863509E-05
7.338079E+03	3.722898E-03	7.662636E-05
7.348036E+03	3.700612E-03	7.462624E-05
7.357993E+03	3.676771E-03	7.264681E-05
7.367949E+03	3.651638E-03	7.070151E-05
7.377906E+03	3.625304E-03	6.880017E-05
7.387863E+03	3.598085E-03	6.695682E-05
7.397819E+03	3.570027E-03	6.518015E-05
7.407776E+03	3.541369E-03	6.348222E-05
7.417733E+03	3.512122E-03	6.187067E-05
7.427690E+03	3.482238E-03	6.035194E-05
7.437646E+03	3.451798E-03	5.893428E-05
7.447603E+03	3.420673E-03	5.762190E-05
7.457560E+03	3.388778E-03	5.641911E-05
7.467516E+03	3.355959E-03	5.532829E-05
7.477473E+03	3.322265E-03	5.435406E-05
7.487430E+03	3.287596E-03	5.349506E-05
7.497386E+03	3.251969E-03	5.274401E-05
7.507343E+03	3.215463E-03	5.209253E-05
7.517300E+03	3.178222E-03	5.153258E-05
7.527256E+03	3.140451E-03	5.105682E-05
7.537213E+03	3.102412E-03	5.065864E-05
7.547170E+03	3.064403E-03	5.033220E-05
7.557126E+03	3.026784E-03	5.007307E-05
7.567083E+03	2.989769E-03	4.987504E-05
7.577040E+03	2.953723E-03	4.973515E-05
7.586997E+03	2.918943E-03	4.965018E-05
7.596953E+03	2.885763E-03	4.961853E-05
7.606910E+03	2.854316E-03	4.963610E-05
7.616867E+03	2.824877E-03	4.970221E-05
7.626823E+03	2.797448E-03	4.981228E-05
7.636780E+03	2.772159E-03	4.996474E-05
7.646737E+03	2.748878E-03	5.015407E-05
7.656693E+03	2.727630E-03	5.037808E-05
7.666650E+03	2.708204E-03	5.063077E-05
7.676607E+03	2.690577E-03	5.091003E-05
7.686563E+03	2.674558E-03	5.121097E-05
7.696520E+03	2.660016E-03	5.153004E-05
7.706477E+03	2.646752E-03	5.186267E-05
7.716434E+03	2.634723E-03	5.220753E-05
7.726390E+03	2.623730E-03	5.256040E-05
