#wls	flux	fluxerr
1.593070E+03	4.832862E-05	8.750089E-07
1.632897E+03	4.900674E-05	8.845166E-07
1.672724E+03	4.952690E-05	8.910346E-07
1.712550E+03	4.987968E-05	8.944181E-07
1.752377E+03	5.006455E-05	8.946840E-07
1.792204E+03	5.002768E-05	8.909025E-07
1.832031E+03	4.974776E-05	8.827354E-07
1.871857E+03	4.912862E-05	8.685292E-07
1.911684E+03	4.816086E-05	8.481863E-07
1.951511E+03	4.679552E-05	8.209217E-07
1.991338E+03	4.510387E-05	7.880678E-07
2.031164E+03	4.323001E-05	7.522080E-07
2.070991E+03	4.150384E-05	7.191061E-07
2.110818E+03	4.033514E-05	6.958060E-07
2.150645E+03	4.006821E-05	6.880990E-07
2.190471E+03	4.083023E-05	6.979498E-07
2.230298E+03	4.246896E-05	7.225183E-07
2.270125E+03	4.468727E-05	7.565506E-07
2.309952E+03	4.718651E-05	7.948577E-07
2.349778E+03	4.972345E-05	8.332760E-07
2.389605E+03	5.218181E-05	8.698415E-07
2.429432E+03	5.447716E-05	9.031593E-07
2.469259E+03	5.660595E-05	9.331997E-07
2.509085E+03	5.859139E-05	9.603754E-07
2.548912E+03	6.043293E-05	9.847041E-07
2.588739E+03	6.219369E-05	1.007237E-06
2.628566E+03	6.387720E-05	1.028042E-06
2.668392E+03	6.553411E-05	1.047941E-06
2.708219E+03	6.716480E-05	1.066935E-06
2.748046E+03	6.881726E-05	1.085778E-06
2.787873E+03	7.051417E-05	1.104806E-06
2.827700E+03	7.227799E-05	1.124341E-06
2.867526E+03	7.414389E-05	1.144891E-06
2.907353E+03	7.612342E-05	1.166584E-06
2.947180E+03	7.825458E-05	1.189944E-06
2.987007E+03	8.057816E-05	1.215516E-06
2.996963E+03	8.118216E-05	1.222139E-06
3.006920E+03	8.182029E-05	1.229227E-06
3.016877E+03	8.245542E-05	1.236219E-06
3.026833E+03	8.311446E-05	1.243517E-06
3.036790E+03	8.380233E-05	1.251193E-06
3.046747E+03	8.451145E-05	1.259130E-06
3.056703E+03	8.524119E-05	1.267317E-06
3.066660E+03	8.600362E-05	1.275931E-06
3.076617E+03	8.678568E-05	1.284775E-06
3.086573E+03	8.759981E-05	1.294030E-06
3.096530E+03	8.844589E-05	1.303691E-06
3.106487E+03	8.931112E-05	1.313567E-06
3.116443E+03	9.019544E-05	1.323654E-06
3.126400E+03	9.111193E-05	1.334142E-06
3.136357E+03	9.204789E-05	1.344842E-06
3.146314E+03	9.301671E-05	1.355946E-06
3.156270E+03	9.401889E-05	1.367458E-06
3.166227E+03	9.504189E-05	1.379193E-06
3.176184E+03	9.609949E-05	1.391347E-06
3.186140E+03	9.717923E-05	1.403737E-06
3.196097E+03	9.829519E-05	1.416563E-06
3.206054E+03	9.943493E-05	1.429642E-06
3.216010E+03	1.006128E-04	1.443177E-06
3.225967E+03	1.018301E-04	1.457181E-06
3.235924E+03	1.030743E-04	1.471473E-06
3.245880E+03	1.043604E-04	1.486262E-06
3.255837E+03	1.056760E-04	1.501367E-06
3.265794E+03	1.070364E-04	1.516999E-06
3.275750E+03	1.084430E-04	1.533178E-06
3.285707E+03	1.098837E-04	1.549724E-06
3.295664E+03	1.113742E-04	1.566855E-06
3.305621E+03	1.129164E-04	1.584591E-06
3.315577E+03	1.144981E-04	1.602756E-06
3.325534E+03	1.161355E-04	1.621571E-06
3.335491E+03	1.178165E-04	1.640861E-06
3.345447E+03	1.195722E-04	1.661054E-06
3.355404E+03	1.213762E-04	1.681773E-06
3.365361E+03	1.232455E-04	1.703249E-06
3.375317E+03	1.251680E-04	1.725307E-06
3.385274E+03	1.271763E-04	1.748389E-06
3.395231E+03	1.292435E-04	1.772114E-06
3.405187E+03	1.313723E-04	1.796514E-06
3.415144E+03	1.335965E-04	1.822043E-06
3.425101E+03	1.358888E-04	1.848317E-06
3.435057E+03	1.382682E-04	1.875585E-06
3.445014E+03	1.407384E-04	1.903888E-06
3.454971E+03	1.433034E-04	1.933267E-06
3.464928E+03	1.459510E-04	1.963548E-06
3.474884E+03	1.487179E-04	1.995213E-06
3.484841E+03	1.515758E-04	2.027869E-06
3.494798E+03	1.545455E-04	2.061783E-06
3.504754E+03	1.576321E-04	2.097008E-06
3.514711E+03	1.608233E-04	2.133365E-06
3.524668E+03	1.641585E-04	2.171365E-06
3.534624E+03	1.676085E-04	2.210605E-06
3.544581E+03	1.711962E-04	2.251371E-06
3.554538E+03	1.749275E-04	2.293724E-06
3.564494E+03	1.788269E-04	2.337966E-06
3.574451E+03	1.828454E-04	2.383437E-06
3.584408E+03	1.870448E-04	2.430927E-06
3.594365E+03	1.914136E-04	2.480264E-06
3.604321E+03	1.959589E-04	2.531516E-06
3.614278E+03	2.006878E-04	2.584756E-06
3.624235E+03	2.055878E-04	2.639799E-06
3.634191E+03	2.107068E-04	2.697237E-06
3.644148E+03	2.160120E-04	2.756623E-06
3.654105E+03	2.215535E-04	2.818572E-06
3.664061E+03	2.272975E-04	2.882625E-06
3.674018E+03	2.332960E-04	2.949414E-06
3.683975E+03	2.395144E-04	3.018472E-06
3.693931E+03	2.460066E-04	3.090446E-06
3.703888E+03	2.527373E-04	3.164861E-06
3.713845E+03	2.597625E-04	3.242386E-06
3.723801E+03	2.670458E-04	3.322530E-06
3.733758E+03	2.746454E-04	3.405981E-06
3.743715E+03	2.825238E-04	3.492236E-06
3.753672E+03	2.907415E-04	3.582005E-06
3.763628E+03	2.992853E-04	3.675082E-06
3.773585E+03	3.081404E-04	3.771246E-06
3.783542E+03	3.173711E-04	3.871239E-06
3.793498E+03	3.269635E-04	3.974846E-06
3.803455E+03	3.369295E-04	4.082164E-06
3.813412E+03	3.472814E-04	4.193293E-06
3.823368E+03	3.580312E-04	4.308330E-06
3.833325E+03	3.692216E-04	4.427733E-06
3.843282E+03	3.808044E-04	4.550872E-06
3.853238E+03	3.928210E-04	4.678189E-06
3.863195E+03	4.053159E-04	4.810155E-06
3.873152E+03	4.182691E-04	4.946474E-06
3.883108E+03	4.316575E-04	5.086814E-06
3.893065E+03	4.455589E-04	5.232033E-06
3.903022E+03	4.599503E-04	5.381794E-06
3.912979E+03	4.748406E-04	5.536141E-06
3.922935E+03	4.902757E-04	5.695542E-06
3.932892E+03	5.061899E-04	5.859166E-06
3.942849E+03	5.226657E-04	6.027905E-06
3.952805E+03	5.396317E-04	6.200864E-06
3.962762E+03	5.571726E-04	6.378952E-06
3.972719E+03	5.752537E-04	6.561700E-06
3.982675E+03	5.938782E-04	6.749074E-06
3.992632E+03	6.130485E-04	6.941034E-06
4.002589E+03	6.328117E-04	7.138040E-06
4.012545E+03	6.530789E-04	7.339020E-06
4.022502E+03	6.739416E-04	7.544935E-06
4.032459E+03	6.953537E-04	7.755195E-06
4.042415E+03	7.172649E-04	7.969171E-06
4.052372E+03	7.397701E-04	8.187855E-06
4.062329E+03	7.628700E-04	8.411179E-06
4.072286E+03	7.864597E-04	8.637918E-06
4.082242E+03	8.105862E-04	8.868527E-06
4.092199E+03	8.353004E-04	9.103494E-06
4.102156E+03	8.604897E-04	9.341527E-06
4.112112E+03	8.862604E-04	9.583719E-06
4.122069E+03	9.125525E-04	9.829354E-06
4.132026E+03	9.393613E-04	1.007832E-05
4.141982E+03	9.666802E-04	1.033049E-05
4.151939E+03	9.945028E-04	1.058573E-05
4.161896E+03	1.022884E-03	1.084458E-05
4.171852E+03	1.051690E-03	1.110554E-05
4.181809E+03	1.080971E-03	1.136911E-05
4.191766E+03	1.110779E-03	1.163579E-05
4.201723E+03	1.140966E-03	1.190397E-05
4.211679E+03	1.171647E-03	1.217479E-05
4.221636E+03	1.202728E-03	1.244726E-05
4.231593E+03	1.234108E-03	1.272028E-05
4.241549E+03	1.265892E-03	1.299491E-05
4.251506E+03	1.297966E-03	1.326995E-05
4.261463E+03	1.330278E-03	1.354485E-05
4.271419E+03	1.362691E-03	1.381819E-05
4.281376E+03	1.395287E-03	1.409082E-05
4.291333E+03	1.427908E-03	1.436115E-05
4.301289E+03	1.460384E-03	1.462748E-05
4.311246E+03	1.492770E-03	1.489041E-05
4.321203E+03	1.524795E-03	1.514726E-05
4.331159E+03	1.556500E-03	1.539853E-05
4.341116E+03	1.587597E-03	1.564142E-05
4.351073E+03	1.618045E-03	1.587563E-05
4.361030E+03	1.647737E-03	1.610023E-05
4.370986E+03	1.676595E-03	1.631457E-05
4.380943E+03	1.704588E-03	1.651848E-05
4.390900E+03	1.731735E-03	1.671226E-05
4.400856E+03	1.758003E-03	1.689574E-05
4.410813E+03	1.783563E-03	1.707067E-05
4.420770E+03	1.808509E-03	1.723808E-05
4.430726E+03	1.832945E-03	1.739904E-05
4.440683E+03	1.856973E-03	1.755461E-05
4.450640E+03	1.880602E-03	1.770496E-05
4.460596E+03	1.904016E-03	1.785188E-05
4.470553E+03	1.927300E-03	1.799623E-05
4.480510E+03	1.950439E-03	1.813791E-05
4.490466E+03	1.973589E-03	1.827842E-05
4.500423E+03	1.996710E-03	1.841742E-05
4.510380E+03	2.020029E-03	1.855703E-05
4.520337E+03	2.043294E-03	1.869497E-05
4.530293E+03	2.066801E-03	1.883397E-05
4.540250E+03	2.090368E-03	1.897240E-05
4.550207E+03	2.113989E-03	1.911022E-05
4.560163E+03	2.137739E-03	1.924816E-05
4.570120E+03	2.161594E-03	1.938601E-05
4.580077E+03	2.185427E-03	1.952267E-05
4.590033E+03	2.209197E-03	1.965782E-05
4.599990E+03	2.232955E-03	1.979196E-05
4.609947E+03	2.256559E-03	1.992387E-05
4.619903E+03	2.280056E-03	2.005404E-05
4.629860E+03	2.303299E-03	2.018122E-05
4.639817E+03	2.326238E-03	2.030506E-05
4.649773E+03	2.348825E-03	2.042520E-05
4.659730E+03	2.371107E-03	2.054214E-05
4.669687E+03	2.392941E-03	2.065471E-05
4.679644E+03	2.414375E-03	2.076343E-05
4.689600E+03	2.435165E-03	2.086628E-05
4.699557E+03	2.455447E-03	2.096454E-05
4.709514E+03	2.475066E-03	2.105698E-05
4.719470E+03	2.493949E-03	2.114308E-05
4.729427E+03	2.512107E-03	2.122305E-05
4.739384E+03	2.529255E-03	2.129461E-05
4.749340E+03	2.545396E-03	2.135791E-05
4.759297E+03	2.560565E-03	2.141338E-05
4.769254E+03	2.574557E-03	2.145943E-05
4.779210E+03	2.587636E-03	2.149841E-05
4.789167E+03	2.599729E-03	2.152981E-05
4.799124E+03	2.611165E-03	2.155648E-05
4.809080E+03	2.621889E-03	2.157805E-05
4.819037E+03	2.632208E-03	2.159714E-05
4.828994E+03	2.642029E-03	2.161307E-05
4.838951E+03	2.651529E-03	2.162733E-05
4.848907E+03	2.660772E-03	2.164052E-05
4.858864E+03	2.669802E-03	2.165306E-05
4.868821E+03	2.678564E-03	2.166455E-05
4.878777E+03	2.687268E-03	2.167672E-05
4.888734E+03	2.695743E-03	2.168826E-05
4.898691E+03	2.704095E-03	2.170001E-05
4.908647E+03	2.712327E-03	2.171201E-05
4.918604E+03	2.720349E-03	2.172353E-05
4.928561E+03	2.728256E-03	2.173533E-05
4.938517E+03	2.735959E-03	2.174670E-05
4.948474E+03	2.743646E-03	2.175914E-05
4.958431E+03	2.751136E-03	2.177119E-05
4.968388E+03	2.758439E-03	2.178294E-05
4.978344E+03	2.765662E-03	2.179522E-05
4.988301E+03	2.772819E-03	2.180815E-05
4.998258E+03	2.779842E-03	2.182115E-05
5.008214E+03	2.786849E-03	2.183517E-05
5.018171E+03	2.793780E-03	2.184972E-05
5.028128E+03	2.800671E-03	2.186505E-05
5.038084E+03	2.807655E-03	2.188220E-05
5.048041E+03	2.814774E-03	2.190149E-05
5.057998E+03	2.821988E-03	2.192255E-05
5.067954E+03	2.829348E-03	2.194579E-05
5.077911E+03	2.836989E-03	2.197223E-05
5.087868E+03	2.844885E-03	2.200163E-05
5.097824E+03	2.853081E-03	2.203432E-05
5.107781E+03	2.861723E-03	2.207140E-05
5.117738E+03	2.870769E-03	2.211253E-05
5.127695E+03	2.880273E-03	2.215808E-05
5.137651E+03	2.890360E-03	2.220900E-05
5.147608E+03	2.900987E-03	2.226492E-05
5.157565E+03	2.912187E-03	2.232608E-05
5.167521E+03	2.923988E-03	2.239264E-05
5.177478E+03	2.936501E-03	2.246545E-05
5.187435E+03	2.949569E-03	2.254327E-05
5.197391E+03	2.963370E-03	2.262743E-05
5.207348E+03	2.977820E-03	2.271729E-05
5.217305E+03	2.992909E-03	2.281272E-05
5.227261E+03	3.008712E-03	2.291429E-05
5.237218E+03	3.025029E-03	2.302044E-05
5.247175E+03	3.042007E-03	2.313228E-05
5.257131E+03	3.059427E-03	2.324812E-05
5.267088E+03	3.077424E-03	2.336898E-05
5.277045E+03	3.095854E-03	2.349375E-05
5.287002E+03	3.114662E-03	2.362200E-05
5.296958E+03	3.133691E-03	2.375252E-05
5.306915E+03	3.153053E-03	2.388615E-05
5.316872E+03	3.172584E-03	2.402165E-05
5.326828E+03	3.192209E-03	2.415844E-05
5.336785E+03	3.211844E-03	2.429587E-05
5.346742E+03	3.231318E-03	2.443264E-05
5.356698E+03	3.250727E-03	2.456949E-05
5.366655E+03	3.269897E-03	2.470508E-05
5.376612E+03	3.288649E-03	2.483806E-05
5.386568E+03	3.307081E-03	2.496917E-05
5.396525E+03	3.324922E-03	2.509637E-05
5.406482E+03	3.342176E-03	2.521966E-05
5.416438E+03	3.358757E-03	2.533842E-05
5.426395E+03	3.374575E-03	2.545195E-05
5.436352E+03	3.389540E-03	2.555958E-05
5.446309E+03	3.403562E-03	2.566062E-05
5.456265E+03	3.416461E-03	2.575371E-05
5.466222E+03	3.428254E-03	2.583898E-05
5.476179E+03	3.438985E-03	2.591675E-05
5.486135E+03	3.448367E-03	2.598486E-05
5.496092E+03	3.456676E-03	2.604538E-05
5.506049E+03	3.463759E-03	2.609714E-05
5.516005E+03	3.469818E-03	2.614164E-05
5.525962E+03	3.474619E-03	2.617709E-05
5.535919E+03	3.478465E-03	2.620576E-05
5.545875E+03	3.481216E-03	2.622658E-05
5.555832E+03	3.483010E-03	2.624056E-05
5.565789E+03	3.483899E-03	2.624807E-05
5.575746E+03	3.483849E-03	2.624885E-05
5.585702E+03	3.483020E-03	2.624406E-05
5.595659E+03	3.481479E-03	2.623421E-05
5.605616E+03	3.479223E-03	2.621924E-05
5.615572E+03	3.476420E-03	2.620041E-05
5.625529E+03	3.473162E-03	2.617838E-05
5.635486E+03	3.469459E-03	2.615321E-05
5.645442E+03	3.465492E-03	2.612626E-05
5.655399E+03	3.461359E-03	2.609824E-05
5.665356E+03	3.457074E-03	2.606925E-05
5.675312E+03	3.452738E-03	2.604003E-05
5.685269E+03	3.448532E-03	2.601193E-05
5.695226E+03	3.444550E-03	2.598566E-05
5.705182E+03	3.440795E-03	2.596121E-05
5.715139E+03	3.437434E-03	2.593985E-05
5.725096E+03	3.434542E-03	2.592213E-05
5.735053E+03	3.432017E-03	2.590727E-05
5.745009E+03	3.430165E-03	2.589757E-05
5.754966E+03	3.428868E-03	2.589214E-05
5.764923E+03	3.428160E-03	2.589122E-05
5.774879E+03	3.428146E-03	2.589561E-05
5.784836E+03	3.428750E-03	2.590473E-05
5.794793E+03	3.430056E-03	2.591920E-05
5.804749E+03	3.431961E-03	2.593827E-05
5.814706E+03	3.434523E-03	2.596234E-05
5.824663E+03	3.437617E-03	2.599048E-05
5.834619E+03	3.441193E-03	2.602231E-05
5.844576E+03	3.445276E-03	2.605803E-05
5.854533E+03	3.449718E-03	2.609650E-05
5.864489E+03	3.454530E-03	2.613781E-05
5.874446E+03	3.459552E-03	2.618077E-05
5.884403E+03	3.464796E-03	2.622544E-05
5.894360E+03	3.470096E-03	2.627059E-05
5.904316E+03	3.475389E-03	2.631573E-05
5.914273E+03	3.480688E-03	2.636097E-05
5.924230E+03	3.485851E-03	2.640524E-05
5.934186E+03	3.490828E-03	2.644814E-05
5.944143E+03	3.495664E-03	2.649003E-05
5.954100E+03	3.500242E-03	2.653004E-05
5.964056E+03	3.504628E-03	2.656865E-05
5.974013E+03	3.508729E-03	2.660518E-05
5.983970E+03	3.512545E-03	2.663962E-05
5.993926E+03	3.516166E-03	2.667266E-05
6.003883E+03	3.519528E-03	2.670382E-05
6.013840E+03	3.522648E-03	2.673325E-05
6.023796E+03	3.525631E-03	2.676173E-05
6.033753E+03	3.528339E-03	2.678823E-05
6.043710E+03	3.531041E-03	2.681482E-05
6.053667E+03	3.533509E-03	2.683974E-05
6.063623E+03	3.535922E-03	2.686439E-05
6.073580E+03	3.538288E-03	2.688883E-05
6.083537E+03	3.540440E-03	2.691179E-05
6.093493E+03	3.542533E-03	2.693448E-05
6.103450E+03	3.544549E-03	2.695677E-05
6.113407E+03	3.546289E-03	2.697715E-05
6.123363E+03	3.547880E-03	2.699659E-05
6.133320E+03	3.549185E-03	2.701407E-05
6.143277E+03	3.550227E-03	2.702978E-05
6.153233E+03	3.550858E-03	2.704260E-05
6.163190E+03	3.551084E-03	2.705258E-05
6.173147E+03	3.550667E-03	2.705793E-05
6.183103E+03	3.549695E-03	2.705932E-05
6.193060E+03	3.548099E-03	2.705625E-05
6.203017E+03	3.545745E-03	2.704768E-05
6.212974E+03	3.542611E-03	2.703344E-05
6.222930E+03	3.538703E-03	2.701357E-05
6.232887E+03	3.534157E-03	2.698909E-05
6.242844E+03	3.529053E-03	2.696059E-05
6.252800E+03	3.523333E-03	2.692764E-05
6.262757E+03	3.517356E-03	2.689296E-05
6.272714E+03	3.511010E-03	2.685568E-05
6.282670E+03	3.504579E-03	2.681799E-05
6.292627E+03	3.498199E-03	2.678089E-05
6.302584E+03	3.491911E-03	2.674472E-05
6.312540E+03	3.485845E-03	2.671045E-05
6.322497E+03	3.480195E-03	2.667958E-05
6.332454E+03	3.474991E-03	2.665235E-05
6.342411E+03	3.470417E-03	2.663016E-05
6.352367E+03	3.466482E-03	2.661308E-05
6.362324E+03	3.463343E-03	2.660233E-05
6.372281E+03	3.460981E-03	2.659777E-05
6.382237E+03	3.459525E-03	2.660040E-05
6.392194E+03	3.458923E-03	2.660982E-05
6.402151E+03	3.459255E-03	2.662667E-05
6.412107E+03	3.460511E-03	2.665089E-05
6.422064E+03	3.462568E-03	2.668152E-05
6.432021E+03	3.465444E-03	2.671871E-05
6.441977E+03	3.468969E-03	2.676113E-05
6.451934E+03	3.473097E-03	2.680842E-05
6.461891E+03	3.477610E-03	2.685888E-05
6.471847E+03	3.482405E-03	2.691170E-05
6.481804E+03	3.487281E-03	2.696532E-05
6.491761E+03	3.492021E-03	2.701803E-05
6.501718E+03	3.496322E-03	2.706748E-05
6.511674E+03	3.500057E-03	2.711265E-05
6.521631E+03	3.502951E-03	2.715138E-05
6.531588E+03	3.504910E-03	2.718291E-05
6.541544E+03	3.505767E-03	2.720593E-05
6.551501E+03	3.505353E-03	2.721908E-05
6.561458E+03	3.503513E-03	2.722112E-05
6.571414E+03	3.500022E-03	2.721028E-05
6.581371E+03	3.494835E-03	2.718615E-05
6.591328E+03	3.487851E-03	2.714792E-05
6.601284E+03	3.478994E-03	2.709495E-05
6.611241E+03	3.468224E-03	2.702689E-05
6.621198E+03	3.455452E-03	2.694301E-05
6.631154E+03	3.440865E-03	2.684473E-05
6.641111E+03	3.424355E-03	2.673117E-05
6.651068E+03	3.406100E-03	2.660368E-05
6.661025E+03	3.386214E-03	2.646312E-05
6.670981E+03	3.364922E-03	2.631122E-05
6.680938E+03	3.342232E-03	2.614801E-05
6.690895E+03	3.318408E-03	2.597554E-05
6.700851E+03	3.293639E-03	2.579527E-05
6.710808E+03	3.268135E-03	2.560882E-05
6.720765E+03	3.242096E-03	2.541775E-05
6.730721E+03	3.215731E-03	2.522369E-05
6.740678E+03	3.189243E-03	2.502824E-05
6.750635E+03	3.162820E-03	2.483285E-05
6.760591E+03	3.136651E-03	2.463901E-05
6.770548E+03	3.110974E-03	2.444860E-05
6.780505E+03	3.085802E-03	2.426173E-05
6.790461E+03	3.061420E-03	2.408063E-05
6.800418E+03	3.037876E-03	2.390571E-05
6.810375E+03	3.015285E-03	2.373787E-05
6.820332E+03	2.993734E-03	2.357782E-05
6.830288E+03	2.973302E-03	2.342617E-05
6.840245E+03	2.954048E-03	2.328342E-05
6.850202E+03	2.936090E-03	2.315051E-05
6.860158E+03	2.919389E-03	2.302714E-05
6.870115E+03	2.903972E-03	2.291353E-05
6.880072E+03	2.889909E-03	2.281027E-05
6.890028E+03	2.877070E-03	2.271633E-05
6.899985E+03	2.865578E-03	2.263270E-05
6.909942E+03	2.855348E-03	2.255872E-05
6.919898E+03	2.846424E-03	2.249474E-05
6.929855E+03	2.838708E-03	2.244001E-05
6.939812E+03	2.832162E-03	2.239424E-05
6.949769E+03	2.826748E-03	2.235714E-05
6.959725E+03	2.822486E-03	2.232887E-05
6.969682E+03	2.819332E-03	2.230911E-05
6.979639E+03	2.817097E-03	2.229636E-05
6.989595E+03	2.815864E-03	2.229129E-05
6.999552E+03	2.815580E-03	2.229349E-05
7.009509E+03	2.816046E-03	2.230139E-05
7.019465E+03	2.817412E-03	2.231620E-05
7.029422E+03	2.819413E-03	2.233580E-05
7.039379E+03	2.822116E-03	2.236076E-05
7.049335E+03	2.825463E-03	2.239062E-05
7.059292E+03	2.829315E-03	2.242427E-05
7.069249E+03	2.833601E-03	2.246118E-05
7.079205E+03	2.838318E-03	2.250131E-05
7.089162E+03	2.843391E-03	2.254409E-05
7.099119E+03	2.848670E-03	2.258834E-05
7.109076E+03	2.854074E-03	2.263342E-05
7.119032E+03	2.859583E-03	2.267918E-05
7.128989E+03	2.865112E-03	2.272496E-05
7.138946E+03	2.870491E-03	2.276942E-05
7.148902E+03	2.875698E-03	2.281239E-05
7.158859E+03	2.880559E-03	2.285250E-05
7.168816E+03	2.884971E-03	2.288895E-05
7.178772E+03	2.888971E-03	2.292204E-05
7.188729E+03	2.892312E-03	2.294982E-05
7.198686E+03	2.894886E-03	2.297146E-05
7.208642E+03	2.896660E-03	2.298668E-05
7.218599E+03	2.897536E-03	2.299475E-05
7.228556E+03	2.897342E-03	2.299430E-05
7.238512E+03	2.896058E-03	2.298519E-05
7.248469E+03	2.893608E-03	2.296681E-05
7.258426E+03	2.889838E-03	2.293799E-05
7.268383E+03	2.884688E-03	2.289825E-05
7.278339E+03	2.878254E-03	2.284836E-05
7.288296E+03	2.870356E-03	2.278690E-05
7.298253E+03	2.861041E-03	2.271429E-05
7.308209E+03	2.850232E-03	2.262990E-05
7.318166E+03	2.838005E-03	2.253436E-05
7.328123E+03	2.824387E-03	2.242790E-05
7.338079E+03	2.809339E-03	2.231023E-05
7.348036E+03	2.792992E-03	2.218239E-05
7.357993E+03	2.775407E-03	2.204489E-05
7.367949E+03	2.756666E-03	2.189838E-05
7.377906E+03	2.736782E-03	2.174299E-05
7.387863E+03	2.715927E-03	2.158009E-05
7.397819E+03	2.694136E-03	2.140997E-05
7.407776E+03	2.671596E-03	2.123412E-05
7.417733E+03	2.648424E-03	2.105349E-05
7.427690E+03	2.624746E-03	2.086909E-05
7.437646E+03	2.600614E-03	2.068134E-05
7.447603E+03	2.576295E-03	2.049238E-05
7.457560E+03	2.551779E-03	2.030212E-05
7.467516E+03	2.527194E-03	2.011161E-05
7.477473E+03	2.502800E-03	1.992291E-05
7.487430E+03	2.478584E-03	1.973594E-05
7.497386E+03	2.454734E-03	1.955219E-05
7.507343E+03	2.431298E-03	1.937207E-05
7.517300E+03	2.408519E-03	1.919751E-05
7.527256E+03	2.386371E-03	1.902832E-05
7.537213E+03	2.365019E-03	1.886580E-05
7.547170E+03	2.344493E-03	1.871018E-05
7.557126E+03	2.325009E-03	1.856320E-05
7.567083E+03	2.306523E-03	1.842449E-05
7.577040E+03	2.289168E-03	1.829513E-05
7.586997E+03	2.272999E-03	1.817556E-05
7.596953E+03	2.257987E-03	1.806556E-05
7.606910E+03	2.244272E-03	1.796625E-05
7.616867E+03	2.231734E-03	1.787667E-05
7.626823E+03	2.220430E-03	1.779732E-05
7.636780E+03	2.210287E-03	1.772761E-05
7.646737E+03	2.201409E-03	1.766839E-05
7.656693E+03	2.193646E-03	1.761848E-05
7.666650E+03	2.187023E-03	1.757808E-05
7.676607E+03	2.181497E-03	1.754688E-05
7.686563E+03	2.177014E-03	1.752446E-05
7.696520E+03	2.173456E-03	1.750989E-05
7.706477E+03	2.170816E-03	1.750313E-05
7.716434E+03	2.169084E-03	1.750413E-05
7.726390E+03	2.168001E-03	1.751080E-05
