#wls	flux	fluxerr
1.593070E+03	1.259010E-05	7.119391E-07
1.632897E+03	1.297469E-05	7.299279E-07
1.672724E+03	1.333594E-05	7.462957E-07
1.712550E+03	1.367594E-05	7.611699E-07
1.752377E+03	1.398445E-05	7.739938E-07
1.792204E+03	1.424885E-05	7.840951E-07
1.832031E+03	1.445812E-05	7.909041E-07
1.871857E+03	1.459259E-05	7.933994E-07
1.911684E+03	1.462640E-05	7.902531E-07
1.951511E+03	1.454568E-05	7.808207E-07
1.991338E+03	1.436216E-05	7.658477E-07
2.031164E+03	1.411697E-05	7.476249E-07
2.070991E+03	1.391648E-05	7.318173E-07
2.110818E+03	1.389967E-05	7.256336E-07
2.150645E+03	1.420905E-05	7.362463E-07
2.190471E+03	1.491644E-05	7.669570E-07
2.230298E+03	1.599978E-05	8.161437E-07
2.270125E+03	1.737956E-05	8.792941E-07
2.309952E+03	1.896710E-05	9.515500E-07
2.349778E+03	2.068678E-05	1.028840E-06
2.389605E+03	2.248495E-05	1.108295E-06
2.429432E+03	2.434788E-05	1.189090E-06
2.469259E+03	2.626519E-05	1.270577E-06
2.509085E+03	2.825377E-05	1.353432E-06
2.548912E+03	3.032941E-05	1.438241E-06
2.588739E+03	3.250128E-05	1.525244E-06
2.628566E+03	3.480003E-05	1.615652E-06
2.668392E+03	3.723719E-05	1.709732E-06
2.708219E+03	3.984731E-05	1.808760E-06
2.748046E+03	4.265606E-05	1.913533E-06
2.787873E+03	4.567698E-05	2.024240E-06
2.827700E+03	4.895101E-05	2.142229E-06
2.867526E+03	5.250868E-05	2.268289E-06
2.907353E+03	5.636615E-05	2.402513E-06
2.947180E+03	6.058936E-05	2.547025E-06
2.987007E+03	6.516212E-05	2.700371E-06
2.996963E+03	6.637110E-05	2.740459E-06
3.006920E+03	6.760571E-05	2.781189E-06
3.016877E+03	6.888582E-05	2.823364E-06
3.026833E+03	7.017465E-05	2.865456E-06
3.036790E+03	7.149544E-05	2.908406E-06
3.046747E+03	7.285271E-05	2.952378E-06
3.056703E+03	7.426670E-05	2.998170E-06
3.066660E+03	7.569630E-05	3.044100E-06
3.076617E+03	7.716149E-05	3.090957E-06
3.086573E+03	7.868368E-05	3.139577E-06
3.096530E+03	8.021982E-05	3.188217E-06
3.106487E+03	8.181338E-05	3.238590E-06
3.116443E+03	8.341989E-05	3.288910E-06
3.126400E+03	8.508438E-05	3.340938E-06
3.136357E+03	8.678443E-05	3.393764E-06
3.146314E+03	8.849609E-05	3.446435E-06
3.156270E+03	9.026674E-05	3.500780E-06
3.166227E+03	9.207283E-05	3.555857E-06
3.176184E+03	9.391438E-05	3.611646E-06
3.186140E+03	9.579133E-05	3.668122E-06
3.196097E+03	9.767768E-05	3.724275E-06
3.206054E+03	9.962500E-05	3.782052E-06
3.216010E+03	1.016076E-04	3.840449E-06
3.225967E+03	1.036529E-04	3.900474E-06
3.235924E+03	1.057065E-04	3.960056E-06
3.245880E+03	1.077953E-04	4.020187E-06
3.255837E+03	1.099190E-04	4.080840E-06
3.265794E+03	1.120776E-04	4.141987E-06
3.275750E+03	1.142710E-04	4.203599E-06
3.285707E+03	1.165290E-04	4.266754E-06
3.295664E+03	1.187915E-04	4.329219E-06
3.305621E+03	1.211191E-04	4.393186E-06
3.315577E+03	1.234495E-04	4.456369E-06
3.325534E+03	1.258130E-04	4.519850E-06
3.335491E+03	1.282420E-04	4.584760E-06
3.345447E+03	1.307041E-04	4.649915E-06
3.355404E+03	1.331649E-04	4.714072E-06
3.365361E+03	1.356910E-04	4.779568E-06
3.375317E+03	1.382481E-04	4.845170E-06
3.385274E+03	1.408001E-04	4.909592E-06
3.395231E+03	1.434164E-04	4.975240E-06
3.405187E+03	1.460611E-04	5.040836E-06
3.415144E+03	1.487331E-04	5.106322E-06
3.425101E+03	1.514312E-04	5.171638E-06
3.435057E+03	1.541542E-04	5.236720E-06
3.445014E+03	1.569006E-04	5.301504E-06
3.454971E+03	1.596690E-04	5.365922E-06
3.464928E+03	1.624578E-04	5.429903E-06
3.474884E+03	1.652652E-04	5.493376E-06
3.484841E+03	1.680896E-04	5.556263E-06
3.494798E+03	1.709290E-04	5.618491E-06
3.504754E+03	1.738238E-04	5.681363E-06
3.514711E+03	1.766877E-04	5.742043E-06
3.524668E+03	1.795605E-04	5.801825E-06
3.534624E+03	1.824837E-04	5.862033E-06
3.544581E+03	1.853678E-04	5.919774E-06
3.554538E+03	1.882535E-04	5.976359E-06
3.564494E+03	1.911842E-04	6.033152E-06
3.574451E+03	1.940663E-04	6.087186E-06
3.584408E+03	1.969891E-04	6.141267E-06
3.594365E+03	1.999043E-04	6.193872E-06
3.604321E+03	2.027612E-04	6.243439E-06
3.614278E+03	2.056524E-04	6.292827E-06
3.624235E+03	2.085275E-04	6.340484E-06
3.634191E+03	2.113839E-04	6.386335E-06
3.644148E+03	2.141690E-04	6.428805E-06
3.654105E+03	2.169791E-04	6.470806E-06
3.664061E+03	2.197621E-04	6.510775E-06
3.674018E+03	2.225155E-04	6.548649E-06
3.683975E+03	2.252367E-04	6.584368E-06
3.693931E+03	2.279228E-04	6.617864E-06
3.703888E+03	2.305720E-04	6.649098E-06
3.713845E+03	2.331814E-04	6.678008E-06
3.723801E+03	2.357492E-04	6.704566E-06
3.733758E+03	2.382735E-04	6.728735E-06
3.743715E+03	2.408067E-04	6.752010E-06
3.753672E+03	2.432387E-04	6.771320E-06
3.763628E+03	2.456224E-04	6.788182E-06
3.773585E+03	2.479564E-04	6.802585E-06
3.783542E+03	2.502955E-04	6.816054E-06
3.793498E+03	2.525278E-04	6.825553E-06
3.803455E+03	2.547650E-04	6.834143E-06
3.813412E+03	2.568941E-04	6.838815E-06
3.823368E+03	2.589714E-04	6.841120E-06
3.833325E+03	2.610551E-04	6.842612E-06
3.843282E+03	2.630888E-04	6.841822E-06
3.853238E+03	2.650157E-04	6.837312E-06
3.863195E+03	2.669530E-04	6.832150E-06
3.873152E+03	2.687863E-04	6.823422E-06
3.883108E+03	2.706341E-04	6.814180E-06
3.893065E+03	2.724410E-04	6.803031E-06
3.903022E+03	2.741507E-04	6.788604E-06
3.912979E+03	2.758844E-04	6.773939E-06
3.922935E+03	2.775865E-04	6.757666E-06
3.932892E+03	2.792612E-04	6.739909E-06
3.942849E+03	2.809127E-04	6.720786E-06
3.952805E+03	2.825454E-04	6.700420E-06
3.962762E+03	2.841648E-04	6.678949E-06
3.972719E+03	2.857153E-04	6.655094E-06
3.982675E+03	2.873233E-04	6.631813E-06
3.992632E+03	2.889345E-04	6.607833E-06
4.002589E+03	2.905548E-04	6.583288E-06
4.012545E+03	2.921912E-04	6.558331E-06
4.022502E+03	2.939108E-04	6.534447E-06
4.032459E+03	2.955986E-04	6.509056E-06
4.042415E+03	2.973224E-04	6.483657E-06
4.052372E+03	2.990896E-04	6.458391E-06
4.062329E+03	3.009069E-04	6.433379E-06
4.072286E+03	3.027817E-04	6.408751E-06
4.082242E+03	3.047839E-04	6.385935E-06
4.092199E+03	3.067964E-04	6.362430E-06
4.102156E+03	3.088888E-04	6.339659E-06
4.112112E+03	3.110691E-04	6.317742E-06
4.122069E+03	3.134082E-04	6.298052E-06
4.132026E+03	3.157879E-04	6.278143E-06
4.141982E+03	3.182792E-04	6.259392E-06
4.151939E+03	3.209552E-04	6.243157E-06
4.161896E+03	3.236958E-04	6.227018E-06
4.171852E+03	3.265743E-04	6.212332E-06
4.181809E+03	3.296645E-04	6.200410E-06
4.191766E+03	3.328453E-04	6.188872E-06
4.201723E+03	3.362569E-04	6.180249E-06
4.211679E+03	3.397762E-04	6.172167E-06
4.221636E+03	3.435452E-04	6.167119E-06
4.231593E+03	3.474382E-04	6.162726E-06
4.241549E+03	3.515985E-04	6.161435E-06
4.251506E+03	3.558973E-04	6.160859E-06
4.261463E+03	3.604793E-04	6.163402E-06
4.271419E+03	3.652109E-04	6.166643E-06
4.281376E+03	3.702377E-04	6.172936E-06
4.291333E+03	3.754936E-04	6.181023E-06
4.301289E+03	3.809077E-04	6.189631E-06
4.311246E+03	3.866263E-04	6.201028E-06
4.321203E+03	3.925016E-04	6.212713E-06
4.331159E+03	3.986799E-04	6.226898E-06
4.341116E+03	4.050834E-04	6.242227E-06
4.351073E+03	4.116283E-04	6.257315E-06
4.361030E+03	4.184618E-04	6.274321E-06
4.370986E+03	4.254975E-04	6.291826E-06
4.380943E+03	4.326536E-04	6.308553E-06
4.390900E+03	4.400979E-04	6.326889E-06
4.400856E+03	4.477572E-04	6.345665E-06
4.410813E+03	4.555515E-04	6.363690E-06
4.420770E+03	4.636537E-04	6.383315E-06
4.430726E+03	4.719826E-04	6.403317E-06
4.440683E+03	4.804513E-04	6.422462E-06
4.450640E+03	4.892344E-04	6.443042E-06
4.460596E+03	4.982426E-04	6.463787E-06
4.470553E+03	5.073779E-04	6.483394E-06
4.480510E+03	5.168181E-04	6.504117E-06
4.490466E+03	5.264617E-04	6.524616E-06
4.500423E+03	5.361983E-04	6.543531E-06
4.510380E+03	5.462058E-04	6.563042E-06
4.520337E+03	5.563690E-04	6.581734E-06
4.530293E+03	5.665643E-04	6.598185E-06
4.540250E+03	5.769692E-04	6.614525E-06
4.550207E+03	5.874560E-04	6.629319E-06
4.560163E+03	5.978869E-04	6.641120E-06
4.570120E+03	6.084419E-04	6.652059E-06
4.580077E+03	6.188708E-04	6.659523E-06
4.590033E+03	6.293557E-04	6.665657E-06
4.599990E+03	6.397512E-04	6.669076E-06
4.609947E+03	6.499052E-04	6.668434E-06
4.619903E+03	6.600089E-04	6.665959E-06
4.629860E+03	6.697961E-04	6.659217E-06
4.639817E+03	6.794677E-04	6.650515E-06
4.649773E+03	6.887573E-04	6.637545E-06
4.659730E+03	6.978781E-04	6.622718E-06
4.669687E+03	7.065677E-04	6.603874E-06
4.679644E+03	7.150551E-04	6.583537E-06
4.689600E+03	7.230862E-04	6.559722E-06
4.699557E+03	7.309099E-04	6.535082E-06
4.709514E+03	7.382851E-04	6.507826E-06
4.719470E+03	7.454855E-04	6.480757E-06
4.729427E+03	7.522891E-04	6.452298E-06
4.739384E+03	7.589997E-04	6.425424E-06
4.749340E+03	7.654205E-04	6.398794E-06
4.759297E+03	7.717581E-04	6.374483E-06
4.769254E+03	7.782017E-04	6.354339E-06
4.779210E+03	7.844509E-04	6.336195E-06
4.789167E+03	7.905921E-04	6.321076E-06
4.799124E+03	7.965896E-04	6.309015E-06
4.809080E+03	8.025498E-04	6.301160E-06
4.819037E+03	8.081815E-04	6.295533E-06
4.828994E+03	8.136004E-04	6.293355E-06
4.838951E+03	8.187915E-04	6.294803E-06
4.848907E+03	8.237411E-04	6.300046E-06
4.858864E+03	8.284371E-04	6.309247E-06
4.868821E+03	8.328684E-04	6.322550E-06
4.878777E+03	8.370257E-04	6.340085E-06
4.888734E+03	8.409032E-04	6.361865E-06
4.898691E+03	8.444955E-04	6.387769E-06
4.908647E+03	8.477991E-04	6.417652E-06
4.918604E+03	8.508130E-04	6.451354E-06
4.928561E+03	8.535370E-04	6.488693E-06
4.938517E+03	8.559737E-04	6.529484E-06
4.948474E+03	8.579882E-04	6.572464E-06
4.958431E+03	8.598661E-04	6.619567E-06
4.968388E+03	8.614775E-04	6.669539E-06
4.978344E+03	8.626939E-04	6.721103E-06
4.988301E+03	8.638083E-04	6.776249E-06
4.998258E+03	8.646971E-04	6.833733E-06
5.008214E+03	8.652403E-04	6.892305E-06
5.018171E+03	8.657368E-04	6.954050E-06
5.028128E+03	8.659331E-04	7.016652E-06
5.038084E+03	8.659944E-04	7.081154E-06
5.048041E+03	8.660888E-04	7.148673E-06
5.057998E+03	8.659719E-04	7.216948E-06
5.067954E+03	8.658171E-04	7.287163E-06
5.077911E+03	8.656616E-04	7.359407E-06
5.087868E+03	8.656806E-04	7.434979E-06
5.097824E+03	8.656403E-04	7.511698E-06
5.107781E+03	8.657176E-04	7.590915E-06
5.117738E+03	8.659511E-04	7.672823E-06
5.127695E+03	8.663781E-04	7.757634E-06
5.137651E+03	8.670324E-04	7.845549E-06
5.147608E+03	8.679439E-04	7.936759E-06
5.157565E+03	8.690028E-04	8.030181E-06
5.167521E+03	8.704990E-04	8.128431E-06
5.177478E+03	8.723098E-04	8.230357E-06
5.187435E+03	8.743069E-04	8.334711E-06
5.197391E+03	8.767611E-04	8.444043E-06
5.207348E+03	8.795311E-04	8.557010E-06
5.217305E+03	8.824703E-04	8.672165E-06
5.227261E+03	8.856990E-04	8.790660E-06
5.237218E+03	8.893346E-04	8.913665E-06
5.247175E+03	8.930833E-04	9.038245E-06
5.257131E+03	8.970584E-04	9.165507E-06
5.267088E+03	9.012361E-04	9.295198E-06
5.277045E+03	9.057301E-04	9.428486E-06
5.287002E+03	9.102405E-04	9.562241E-06
5.296958E+03	9.148806E-04	9.697605E-06
5.306915E+03	9.194880E-04	9.832812E-06
5.316872E+03	9.243171E-04	9.970538E-06
5.326828E+03	9.292070E-04	1.010904E-05
5.336785E+03	9.341362E-04	1.024803E-05
5.346742E+03	9.389434E-04	1.038570E-05
5.356698E+03	9.438914E-04	1.052489E-05
5.366655E+03	9.488224E-04	1.066382E-05
5.376612E+03	9.535781E-04	1.080064E-05
5.386568E+03	9.582871E-04	1.093673E-05
5.396525E+03	9.630825E-04	1.107358E-05
5.406482E+03	9.676710E-04	1.120777E-05
5.416438E+03	9.721919E-04	1.134084E-05
5.426395E+03	9.766461E-04	1.147275E-05
5.436352E+03	9.810394E-04	1.160353E-05
5.446309E+03	9.853828E-04	1.173325E-05
5.456265E+03	9.896930E-04	1.186209E-05
5.466222E+03	9.939927E-04	1.199028E-05
5.476179E+03	9.981466E-04	1.211616E-05
5.486135E+03	1.002415E-03	1.224286E-05
5.496092E+03	1.006615E-03	1.236813E-05
5.506049E+03	1.010567E-03	1.248970E-05
5.516005E+03	1.014539E-03	1.261080E-05
5.525962E+03	1.018211E-03	1.272743E-05
5.535919E+03	1.021717E-03	1.284113E-05
5.545875E+03	1.025045E-03	1.295170E-05
5.555832E+03	1.028190E-03	1.305901E-05
5.565789E+03	1.031302E-03	1.316490E-05
5.575746E+03	1.033939E-03	1.326366E-05
5.585702E+03	1.036559E-03	1.336109E-05
5.595659E+03	1.039028E-03	1.345542E-05
5.605616E+03	1.041364E-03	1.354683E-05
5.615572E+03	1.043438E-03	1.363359E-05
5.625529E+03	1.045573E-03	1.371988E-05
5.635486E+03	1.047492E-03	1.380204E-05
5.645442E+03	1.049519E-03	1.388430E-05
5.655399E+03	1.051375E-03	1.396298E-05
5.665356E+03	1.053233E-03	1.404033E-05
5.675312E+03	1.055113E-03	1.411661E-05
5.685269E+03	1.057033E-03	1.419204E-05
5.695226E+03	1.059008E-03	1.426686E-05
5.705182E+03	1.061053E-03	1.434124E-05
5.715139E+03	1.063178E-03	1.441534E-05
5.725096E+03	1.065394E-03	1.448930E-05
5.735053E+03	1.067553E-03	1.456113E-05
5.745009E+03	1.069962E-03	1.463500E-05
5.754966E+03	1.072318E-03	1.470680E-05
5.764923E+03	1.074768E-03	1.477855E-05
5.774879E+03	1.077458E-03	1.485226E-05
5.784836E+03	1.080072E-03	1.492360E-05
5.794793E+03	1.082748E-03	1.499448E-05
5.804749E+03	1.085466E-03	1.506464E-05
5.814706E+03	1.088204E-03	1.513378E-05
5.824663E+03	1.090782E-03	1.519941E-05
5.834619E+03	1.093476E-03	1.526539E-05
5.844576E+03	1.096101E-03	1.532916E-05
5.854533E+03	1.098471E-03	1.538810E-05
5.864489E+03	1.100855E-03	1.544603E-05
5.874446E+03	1.102914E-03	1.549817E-05
5.884403E+03	1.104766E-03	1.554622E-05
5.894360E+03	1.106383E-03	1.558977E-05
5.904316E+03	1.107739E-03	1.562850E-05
5.914273E+03	1.108816E-03	1.566216E-05
5.924230E+03	1.109601E-03	1.569060E-05
5.934186E+03	1.110093E-03	1.571382E-05
5.944143E+03	1.110144E-03	1.572976E-05
5.954100E+03	1.110076E-03	1.574303E-05
5.964056E+03	1.109605E-03	1.574963E-05
5.974013E+03	1.109069E-03	1.575440E-05
5.983970E+03	1.108199E-03	1.575357E-05
5.993926E+03	1.107189E-03	1.574996E-05
6.003883E+03	1.106082E-03	1.574423E-05
6.013840E+03	1.104926E-03	1.573710E-05
6.023796E+03	1.103763E-03	1.572926E-05
6.033753E+03	1.102637E-03	1.572139E-05
6.043710E+03	1.101589E-03	1.571415E-05
6.053667E+03	1.100505E-03	1.570598E-05
6.063623E+03	1.099722E-03	1.570177E-05
6.073580E+03	1.098966E-03	1.569768E-05
6.083537E+03	1.098415E-03	1.569632E-05
6.093493E+03	1.098239E-03	1.570021E-05
6.103450E+03	1.098154E-03	1.570537E-05
6.113407E+03	1.098321E-03	1.571419E-05
6.123363E+03	1.098749E-03	1.572688E-05
6.133320E+03	1.099291E-03	1.574143E-05
6.143277E+03	1.100248E-03	1.576224E-05
6.153233E+03	1.101466E-03	1.578721E-05
6.163190E+03	1.102791E-03	1.581421E-05
6.173147E+03	1.104515E-03	1.584755E-05
6.183103E+03	1.106327E-03	1.588285E-05
6.193060E+03	1.108367E-03	1.592222E-05
6.203017E+03	1.110620E-03	1.596559E-05
6.212974E+03	1.113073E-03	1.601287E-05
6.222930E+03	1.115711E-03	1.606396E-05
6.232887E+03	1.118521E-03	1.611877E-05
6.242844E+03	1.121487E-03	1.617721E-05
6.252800E+03	1.124443E-03	1.623701E-05
6.262757E+03	1.127682E-03	1.630253E-05
6.272714E+03	1.130889E-03	1.636935E-05
6.282670E+03	1.134212E-03	1.643972E-05
6.292627E+03	1.137801E-03	1.651597E-05
6.302584E+03	1.141352E-03	1.659381E-05
6.312540E+03	1.145024E-03	1.667572E-05
6.322497E+03	1.148831E-03	1.676203E-05
6.332454E+03	1.152633E-03	1.685084E-05
6.342411E+03	1.156763E-03	1.694717E-05
6.352367E+03	1.161089E-03	1.704925E-05
6.362324E+03	1.165479E-03	1.715532E-05
6.372281E+03	1.170273E-03	1.727055E-05
6.382237E+03	1.175182E-03	1.739084E-05
6.392194E+03	1.180384E-03	1.751902E-05
6.402151E+03	1.185898E-03	1.765556E-05
6.412107E+03	1.191736E-03	1.780083E-05
6.422064E+03	1.197904E-03	1.795515E-05
6.432021E+03	1.204401E-03	1.811870E-05
6.441977E+03	1.211217E-03	1.829157E-05
6.451934E+03	1.218171E-03	1.847124E-05
6.461891E+03	1.225567E-03	1.866252E-05
6.471847E+03	1.233047E-03	1.886020E-05
6.481804E+03	1.240908E-03	1.906901E-05
6.491761E+03	1.248785E-03	1.928343E-05
6.501718E+03	1.256810E-03	1.950553E-05
6.511674E+03	1.264849E-03	1.973327E-05
6.521631E+03	1.272616E-03	1.996217E-05
6.531588E+03	1.279821E-03	2.018759E-05
6.541544E+03	1.286015E-03	2.040227E-05
6.551501E+03	1.291286E-03	2.060731E-05
6.561458E+03	1.295233E-03	2.079595E-05
6.571414E+03	1.297482E-03	2.096176E-05
6.581371E+03	1.298049E-03	2.110442E-05
6.591328E+03	1.296999E-03	2.122436E-05
6.601284E+03	1.293917E-03	2.131419E-05
6.611241E+03	1.288966E-03	2.137581E-05
6.621198E+03	1.282181E-03	2.140907E-05
6.631154E+03	1.273643E-03	2.141456E-05
6.641111E+03	1.263302E-03	2.139068E-05
6.651068E+03	1.251651E-03	2.134502E-05
6.661025E+03	1.238691E-03	2.127698E-05
6.670981E+03	1.224449E-03	2.118636E-05
6.680938E+03	1.209453E-03	2.108170E-05
6.690895E+03	1.193575E-03	2.096029E-05
6.700851E+03	1.177175E-03	2.082795E-05
6.710808E+03	1.160438E-03	2.068764E-05
6.720765E+03	1.143539E-03	2.054217E-05
6.730721E+03	1.126641E-03	2.039425E-05
6.740678E+03	1.109889E-03	2.024636E-05
6.750635E+03	1.093414E-03	2.010083E-05
6.760591E+03	1.077188E-03	1.995709E-05
6.770548E+03	1.061605E-03	1.982246E-05
6.780505E+03	1.046464E-03	1.969330E-05
6.790461E+03	1.032125E-03	1.957651E-05
6.800418E+03	1.018372E-03	1.946818E-05
6.810375E+03	1.005398E-03	1.937218E-05
6.820332E+03	9.932477E-04	1.928963E-05
6.830288E+03	9.819566E-04	1.922149E-05
6.840245E+03	9.715533E-04	1.916863E-05
6.850202E+03	9.620590E-04	1.913179E-05
6.860158E+03	9.533611E-04	1.910907E-05
6.870115E+03	9.457288E-04	1.910621E-05
6.880072E+03	9.390376E-04	1.912109E-05
6.890028E+03	9.331621E-04	1.915155E-05
6.899985E+03	9.282260E-04	1.920046E-05
6.909942E+03	9.243463E-04	1.927068E-05
6.919898E+03	9.212607E-04	1.935715E-05
6.929855E+03	9.190790E-04	1.946254E-05
6.939812E+03	9.177825E-04	1.958685E-05
6.949769E+03	9.173494E-04	1.973002E-05
6.959725E+03	9.177555E-04	1.989192E-05
6.969682E+03	9.188485E-04	2.006960E-05
6.979639E+03	9.208486E-04	2.026823E-05
6.989595E+03	9.236002E-04	2.048478E-05
6.999552E+03	9.269444E-04	2.071606E-05
7.009509E+03	9.310986E-04	2.096723E-05
7.019465E+03	9.357749E-04	2.123215E-05
7.029422E+03	9.410631E-04	2.151313E-05
7.039379E+03	9.469266E-04	2.180960E-05
7.049335E+03	9.533287E-04	2.212100E-05
7.059292E+03	9.602326E-04	2.244672E-05
7.069249E+03	9.676014E-04	2.278613E-05
7.079205E+03	9.753989E-04	2.313859E-05
7.089162E+03	9.835885E-04	2.350343E-05
7.099119E+03	9.919979E-04	2.387670E-05
7.109076E+03	1.000861E-03	2.426414E-05
7.119032E+03	1.009867E-03	2.465842E-05
7.128989E+03	1.019254E-03	2.506541E-05
7.138946E+03	1.028703E-03	2.547743E-05
7.148902E+03	1.038313E-03	2.589693E-05
7.158859E+03	1.048183E-03	2.632647E-05
7.168816E+03	1.057981E-03	2.675779E-05
7.178772E+03	1.067802E-03	2.719322E-05
7.188729E+03	1.077595E-03	2.763145E-05
7.198686E+03	1.087155E-03	2.806720E-05
7.208642E+03	1.096726E-03	2.850662E-05
7.218599E+03	1.106102E-03	2.894433E-05
7.228556E+03	1.115225E-03	2.937866E-05
7.238512E+03	1.123882E-03	2.980381E-05
7.248469E+03	1.132322E-03	3.022620E-05
7.258426E+03	1.140180E-03	3.063584E-05
7.268383E+03	1.147556E-03	3.103514E-05
7.278339E+03	1.154562E-03	3.142684E-05
7.288296E+03	1.160833E-03	3.180078E-05
7.298253E+03	1.166491E-03	3.215988E-05
7.308209E+03	1.171504E-03	3.250289E-05
7.318166E+03	1.175846E-03	3.282881E-05
7.328123E+03	1.179503E-03	3.313678E-05
7.338079E+03	1.182300E-03	3.342153E-05
7.348036E+03	1.184564E-03	3.369190E-05
7.357993E+03	1.186138E-03	3.394308E-05
7.367949E+03	1.186868E-03	3.417028E-05
7.377906E+03	1.187104E-03	3.438316E-05
7.387863E+03	1.186538E-03	3.457248E-05
7.397819E+03	1.185529E-03	3.474835E-05
7.407776E+03	1.183776E-03	3.490166E-05
7.417733E+03	1.181481E-03	3.503795E-05
7.427690E+03	1.178677E-03	3.515798E-05
7.437646E+03	1.175569E-03	3.526756E-05
7.447603E+03	1.171863E-03	3.535770E-05
7.457560E+03	1.167763E-03	3.543428E-05
7.467516E+03	1.163145E-03	3.549328E-05
7.477473E+03	1.158374E-03	3.554566E-05
7.487430E+03	1.153324E-03	3.558741E-05
7.497386E+03	1.148032E-03	3.561955E-05
7.507343E+03	1.142372E-03	3.563803E-05
7.517300E+03	1.136702E-03	3.565386E-05
7.527256E+03	1.130733E-03	3.565794E-05
7.537213E+03	1.124816E-03	3.566126E-05
7.547170E+03	1.118662E-03	3.565461E-05
7.557126E+03	1.112617E-03	3.564895E-05
7.567083E+03	1.106388E-03	3.563493E-05
7.577040E+03	1.100159E-03	3.561837E-05
7.586997E+03	1.093950E-03	3.559998E-05
7.596953E+03	1.087781E-03	3.558035E-05
7.606910E+03	1.081668E-03	3.556008E-05
7.616867E+03	1.075626E-03	3.553968E-05
7.626823E+03	1.069667E-03	3.551961E-05
7.636780E+03	1.063802E-03	3.550025E-05
7.646737E+03	1.058040E-03	3.548195E-05
7.656693E+03	1.052235E-03	3.545987E-05
7.666650E+03	1.046697E-03	3.544445E-05
7.676607E+03	1.041276E-03	3.543075E-05
7.686563E+03	1.035825E-03	3.541379E-05
7.696520E+03	1.030644E-03	3.540387E-05
7.706477E+03	1.025434E-03	3.539081E-05
7.716434E+03	1.020342E-03	3.537970E-05
7.726390E+03	1.015514E-03	3.537566E-05
