#wls	flux	fluxerr
1.593070E+03	1.094281E-05	7.431553E-07
1.632897E+03	1.131745E-05	7.647510E-07
1.672724E+03	1.168188E-05	7.853071E-07
1.712550E+03	1.202829E-05	8.043023E-07
1.752377E+03	1.235207E-05	8.214375E-07
1.792204E+03	1.264188E-05	8.359777E-07
1.832031E+03	1.288811E-05	8.473193E-07
1.871857E+03	1.306142E-05	8.535855E-07
1.911684E+03	1.315366E-05	8.543264E-07
1.951511E+03	1.315091E-05	8.487375E-07
1.991338E+03	1.304623E-05	8.364876E-07
2.031164E+03	1.289147E-05	8.210092E-07
2.070991E+03	1.277299E-05	8.078309E-07
2.110818E+03	1.282408E-05	8.052770E-07
2.150645E+03	1.317475E-05	8.212168E-07
2.190471E+03	1.390160E-05	8.599617E-07
2.230298E+03	1.498881E-05	9.199829E-07
2.270125E+03	1.636688E-05	9.964899E-07
2.309952E+03	1.795701E-05	1.084245E-06
2.349778E+03	1.967464E-05	1.177811E-06
2.389605E+03	2.149008E-05	1.275168E-06
2.429432E+03	2.337533E-05	1.374449E-06
2.469259E+03	2.533610E-05	1.475806E-06
2.509085E+03	2.737024E-05	1.578918E-06
2.548912E+03	2.948976E-05	1.684270E-06
2.588739E+03	3.170965E-05	1.792484E-06
2.628566E+03	3.404631E-05	1.904215E-06
2.668392E+03	3.653047E-05	2.020864E-06
2.708219E+03	3.916754E-05	2.142360E-06
2.748046E+03	4.197501E-05	2.269259E-06
2.787873E+03	4.498665E-05	2.402930E-06
2.827700E+03	4.820520E-05	2.543002E-06
2.867526E+03	5.164746E-05	2.689811E-06
2.907353E+03	5.532944E-05	2.843589E-06
2.947180E+03	5.928693E-05	3.005510E-06
2.987007E+03	6.351476E-05	3.174579E-06
2.996963E+03	6.460399E-05	3.217380E-06
3.006920E+03	6.573361E-05	3.261738E-06
3.016877E+03	6.685813E-05	3.305380E-06
3.026833E+03	6.802495E-05	3.350641E-06
3.036790E+03	6.919074E-05	3.395367E-06
3.046747E+03	7.040716E-05	3.442083E-06
3.056703E+03	7.162492E-05	3.488357E-06
3.066660E+03	7.289247E-05	3.536535E-06
3.076617E+03	7.418466E-05	3.585372E-06
3.086573E+03	7.547480E-05	3.633565E-06
3.096530E+03	7.681377E-05	3.683552E-06
3.106487E+03	7.814851E-05	3.732767E-06
3.116443E+03	7.953156E-05	3.783710E-06
3.126400E+03	8.093591E-05	3.835069E-06
3.136357E+03	8.236092E-05	3.886799E-06
3.146314E+03	8.377750E-05	3.937517E-06
3.156270E+03	8.524158E-05	3.989843E-06
3.166227E+03	8.672451E-05	4.042409E-06
3.176184E+03	8.822569E-05	4.095173E-06
3.186140E+03	8.971423E-05	4.146693E-06
3.196097E+03	9.124962E-05	4.199712E-06
3.206054E+03	9.280144E-05	4.252802E-06
3.216010E+03	9.436907E-05	4.305924E-06
3.225967E+03	9.595187E-05	4.359033E-06
3.235924E+03	9.754922E-05	4.412090E-06
3.245880E+03	9.912740E-05	4.463563E-06
3.255837E+03	1.007514E-04	4.516374E-06
3.265794E+03	1.023880E-04	4.569007E-06
3.275750E+03	1.040364E-04	4.621418E-06
3.285707E+03	1.056960E-04	4.673567E-06
3.295664E+03	1.073660E-04	4.725410E-06
3.305621E+03	1.090457E-04	4.776902E-06
3.315577E+03	1.107343E-04	4.828002E-06
3.325534E+03	1.124310E-04	4.878666E-06
3.335491E+03	1.141350E-04	4.928848E-06
3.345447E+03	1.158454E-04	4.978505E-06
3.355404E+03	1.175615E-04	5.027592E-06
3.365361E+03	1.192822E-04	5.076065E-06
3.375317E+03	1.210068E-04	5.123876E-06
3.385274E+03	1.227343E-04	5.170983E-06
3.395231E+03	1.244637E-04	5.217339E-06
3.405187E+03	1.261941E-04	5.262898E-06
3.415144E+03	1.279245E-04	5.307616E-06
3.425101E+03	1.296538E-04	5.351446E-06
3.435057E+03	1.314233E-04	5.396078E-06
3.445014E+03	1.331480E-04	5.438008E-06
3.454971E+03	1.348685E-04	5.478917E-06
3.464928E+03	1.365838E-04	5.518759E-06
3.474884E+03	1.382928E-04	5.557492E-06
3.484841E+03	1.399944E-04	5.595073E-06
3.494798E+03	1.417325E-04	5.633250E-06
3.504754E+03	1.434166E-04	5.668410E-06
3.514711E+03	1.450900E-04	5.702297E-06
3.524668E+03	1.467516E-04	5.734871E-06
3.534624E+03	1.484473E-04	5.767913E-06
3.544581E+03	1.500828E-04	5.797760E-06
3.554538E+03	1.517034E-04	5.826189E-06
3.564494E+03	1.533081E-04	5.853168E-06
3.574451E+03	1.549445E-04	5.880509E-06
3.584408E+03	1.565150E-04	5.904512E-06
3.594365E+03	1.580668E-04	5.926984E-06
3.604321E+03	1.596486E-04	5.949756E-06
3.614278E+03	1.611609E-04	5.969109E-06
3.624235E+03	1.626519E-04	5.986874E-06
3.634191E+03	1.641719E-04	6.004897E-06
3.644148E+03	1.656191E-04	6.019460E-06
3.654105E+03	1.670434E-04	6.032409E-06
3.664061E+03	1.684958E-04	6.045592E-06
3.674018E+03	1.698731E-04	6.055305E-06
3.683975E+03	1.712785E-04	6.065262E-06
3.693931E+03	1.726076E-04	6.071759E-06
3.703888E+03	1.739653E-04	6.078518E-06
3.713845E+03	1.752459E-04	6.081851E-06
3.723801E+03	1.765024E-04	6.083638E-06
3.733758E+03	1.777885E-04	6.085735E-06
3.743715E+03	1.789977E-04	6.084492E-06
3.753672E+03	1.802382E-04	6.083625E-06
3.763628E+03	1.814022E-04	6.079493E-06
3.773585E+03	1.825995E-04	6.075808E-06
3.783542E+03	1.837216E-04	6.068956E-06
3.793498E+03	1.848796E-04	6.062640E-06
3.803455E+03	1.859644E-04	6.053281E-06
3.813412E+03	1.870883E-04	6.044559E-06
3.823368E+03	1.881414E-04	6.032926E-06
3.833325E+03	1.892376E-04	6.022053E-06
3.843282E+03	1.902665E-04	6.008428E-06
3.853238E+03	1.913428E-04	5.995691E-06
3.863195E+03	1.924127E-04	5.982138E-06
3.873152E+03	1.934218E-04	5.966097E-06
3.883108E+03	1.944864E-04	5.951173E-06
3.893065E+03	1.954954E-04	5.933953E-06
3.903022E+03	1.965666E-04	5.918025E-06
3.912979E+03	1.976457E-04	5.901725E-06
3.922935E+03	1.986784E-04	5.883443E-06
3.932892E+03	1.997843E-04	5.866724E-06
3.942849E+03	2.008508E-04	5.848242E-06
3.952805E+03	2.019987E-04	5.831508E-06
3.962762E+03	2.031740E-04	5.814926E-06
3.972719E+03	2.043222E-04	5.796926E-06
3.982675E+03	2.055656E-04	5.780976E-06
3.992632E+03	2.067906E-04	5.763839E-06
4.002589E+03	2.081210E-04	5.748951E-06
4.012545E+03	2.095025E-04	5.734752E-06
4.022502E+03	2.108803E-04	5.719717E-06
4.032459E+03	2.123799E-04	5.707230E-06
4.042415E+03	2.139471E-04	5.695758E-06
4.052372E+03	2.155258E-04	5.683777E-06
4.062329E+03	2.172445E-04	5.674640E-06
4.072286E+03	2.190481E-04	5.666816E-06
4.082242E+03	2.208800E-04	5.658801E-06
4.092199E+03	2.228713E-04	5.653906E-06
4.102156E+03	2.249658E-04	5.650605E-06
4.112112E+03	2.271063E-04	5.647403E-06
4.122069E+03	2.294266E-04	5.647565E-06
4.132026E+03	2.318699E-04	5.649582E-06
4.141982E+03	2.343772E-04	5.651945E-06
4.151939E+03	2.370858E-04	5.657893E-06
4.161896E+03	2.399374E-04	5.665907E-06
4.171852E+03	2.428712E-04	5.674471E-06
4.181809E+03	2.460283E-04	5.686791E-06
4.191766E+03	2.493486E-04	5.701340E-06
4.201723E+03	2.527683E-04	5.716568E-06
4.211679E+03	2.564332E-04	5.735671E-06
4.221636E+03	2.602798E-04	5.757081E-06
4.231593E+03	2.642409E-04	5.779210E-06
4.241549E+03	2.684668E-04	5.805236E-06
4.251506E+03	2.728899E-04	5.833540E-06
4.261463E+03	2.774391E-04	5.862491E-06
4.271419E+03	2.822682E-04	5.895235E-06
4.281376E+03	2.873057E-04	5.930111E-06
4.291333E+03	2.924740E-04	5.965412E-06
4.301289E+03	2.979329E-04	6.004288E-06
4.311246E+03	3.036045E-04	6.045010E-06
4.321203E+03	3.094054E-04	6.085814E-06
4.331159E+03	3.155014E-04	6.129865E-06
4.341116E+03	3.218097E-04	6.175401E-06
4.351073E+03	3.282414E-04	6.220622E-06
4.361030E+03	3.349710E-04	6.268756E-06
4.370986E+03	3.419119E-04	6.318038E-06
4.380943E+03	3.489705E-04	6.366661E-06
4.390900E+03	3.563331E-04	6.417954E-06
4.400856E+03	3.639087E-04	6.470150E-06
4.410813E+03	3.715998E-04	6.521451E-06
4.420770E+03	3.796040E-04	6.575270E-06
4.430726E+03	3.877229E-04	6.628077E-06
4.440683E+03	3.961610E-04	6.683322E-06
4.450640E+03	4.048179E-04	6.739204E-06
4.460596E+03	4.135833E-04	6.793855E-06
4.470553E+03	4.226718E-04	6.850779E-06
4.480510E+03	4.318585E-04	6.906271E-06
4.490466E+03	4.413636E-04	6.963852E-06
4.500423E+03	4.510681E-04	7.021583E-06
4.510380E+03	4.608419E-04	7.077465E-06
4.520337E+03	4.709119E-04	7.135024E-06
4.530293E+03	4.810197E-04	7.190355E-06
4.540250E+03	4.913964E-04	7.246977E-06
4.550207E+03	5.017685E-04	7.300879E-06
4.560163E+03	5.123728E-04	7.355601E-06
4.570120E+03	5.229215E-04	7.407071E-06
4.580077E+03	5.336583E-04	7.458876E-06
4.590033E+03	5.442822E-04	7.506914E-06
4.599990E+03	5.550445E-04	7.554829E-06
4.609947E+03	5.656324E-04	7.598512E-06
4.619903E+03	5.763067E-04	7.641688E-06
4.629860E+03	5.867455E-04	7.680279E-06
4.639817E+03	5.972206E-04	7.718105E-06
4.649773E+03	6.074033E-04	7.751146E-06
4.659730E+03	6.174219E-04	7.781360E-06
4.669687E+03	6.274166E-04	7.810775E-06
4.679644E+03	6.370543E-04	7.835513E-06
4.689600E+03	6.466460E-04	7.859732E-06
4.699557E+03	6.558589E-04	7.879669E-06
4.709514E+03	6.648547E-04	7.897631E-06
4.719470E+03	6.738087E-04	7.915992E-06
4.729427E+03	6.823921E-04	7.931179E-06
4.739384E+03	6.907877E-04	7.945668E-06
4.749340E+03	6.991871E-04	7.961946E-06
4.759297E+03	7.072507E-04	7.976423E-06
4.769254E+03	7.151541E-04	7.991415E-06
4.779210E+03	7.228856E-04	8.007084E-06
4.789167E+03	7.306051E-04	8.025481E-06
4.799124E+03	7.379202E-04	8.042577E-06
4.809080E+03	7.449822E-04	8.060357E-06
4.819037E+03	7.517625E-04	8.078805E-06
4.828994E+03	7.582344E-04	8.097930E-06
4.838951E+03	7.645639E-04	8.119778E-06
4.848907E+03	7.703521E-04	8.140373E-06
4.858864E+03	7.757699E-04	8.161802E-06
4.868821E+03	7.808030E-04	8.184153E-06
4.878777E+03	7.854405E-04	8.207531E-06
4.888734E+03	7.896760E-04	8.232061E-06
4.898691E+03	7.935075E-04	8.257857E-06
4.908647E+03	7.969373E-04	8.284914E-06
4.918604E+03	7.999703E-04	8.313191E-06
4.928561E+03	8.026146E-04	8.342655E-06
4.938517E+03	8.048800E-04	8.373265E-06
4.948474E+03	8.067799E-04	8.404992E-06
4.958431E+03	8.083286E-04	8.437802E-06
4.968388E+03	8.095432E-04	8.471669E-06
4.978344E+03	8.104429E-04	8.506577E-06
4.988301E+03	8.110485E-04	8.542517E-06
4.998258E+03	8.113824E-04	8.579490E-06
5.008214E+03	8.112722E-04	8.615423E-06
5.018171E+03	8.111367E-04	8.654511E-06
5.028128E+03	8.108049E-04	8.694707E-06
5.038084E+03	8.103046E-04	8.736068E-06
5.048041E+03	8.096636E-04	8.778660E-06
5.057998E+03	8.087156E-04	8.820441E-06
5.067954E+03	8.078784E-04	8.865737E-06
5.077911E+03	8.069854E-04	8.912536E-06
5.087868E+03	8.058712E-04	8.958800E-06
5.097824E+03	8.049488E-04	9.008921E-06
5.107781E+03	8.040501E-04	9.060874E-06
5.117738E+03	8.030079E-04	9.112601E-06
5.127695E+03	8.022273E-04	9.168537E-06
5.137651E+03	8.013454E-04	9.224416E-06
5.147608E+03	8.007611E-04	9.284694E-06
5.157565E+03	8.001078E-04	9.345025E-06
5.167521E+03	7.997770E-04	9.409868E-06
5.177478E+03	7.993981E-04	9.474789E-06
5.187435E+03	7.993552E-04	9.544247E-06
5.197391E+03	7.992724E-04	9.613694E-06
5.207348E+03	7.995273E-04	9.687594E-06
5.217305E+03	7.997398E-04	9.761297E-06
5.227261E+03	8.000931E-04	9.836950E-06
5.237218E+03	8.005797E-04	9.914412E-06
5.247175E+03	8.013782E-04	9.995861E-06
5.257131E+03	8.021021E-04	1.007645E-05
5.267088E+03	8.029275E-04	1.015830E-05
5.277045E+03	8.038416E-04	1.024123E-05
5.287002E+03	8.048309E-04	1.032500E-05
5.296958E+03	8.060705E-04	1.041184E-05
5.306915E+03	8.071708E-04	1.049670E-05
5.316872E+03	8.083066E-04	1.058176E-05
5.326828E+03	8.094662E-04	1.066683E-05
5.336785E+03	8.106378E-04	1.075172E-05
5.346742E+03	8.118115E-04	1.083624E-05
5.356698E+03	8.129782E-04	1.092024E-05
5.366655E+03	8.141308E-04	1.100358E-05
5.376612E+03	8.152642E-04	1.108615E-05
5.386568E+03	8.161861E-04	1.116527E-05
5.396525E+03	8.172722E-04	1.124605E-05
5.406482E+03	8.183354E-04	1.132590E-05
5.416438E+03	8.193781E-04	1.140481E-05
5.426395E+03	8.204056E-04	1.148285E-05
5.436352E+03	8.212359E-04	1.155741E-05
5.446309E+03	8.222526E-04	1.163387E-05
5.456265E+03	8.232740E-04	1.170967E-05
5.466222E+03	8.241156E-04	1.178214E-05
5.476179E+03	8.251545E-04	1.185666E-05
5.486135E+03	8.260073E-04	1.192770E-05
5.496092E+03	8.270398E-04	1.200049E-05
5.506049E+03	8.278620E-04	1.206933E-05
5.516005E+03	8.288383E-04	1.213948E-05
5.525962E+03	8.295793E-04	1.220521E-05
5.535919E+03	8.304526E-04	1.227185E-05
5.545875E+03	8.310732E-04	1.233370E-05
5.555832E+03	8.316250E-04	1.239341E-05
5.565789E+03	8.322942E-04	1.245372E-05
5.575746E+03	8.327047E-04	1.250897E-05
5.585702E+03	8.330476E-04	1.256198E-05
5.595659E+03	8.333286E-04	1.261279E-05
5.605616E+03	8.335550E-04	1.266148E-05
5.615572E+03	8.339237E-04	1.271103E-05
5.625529E+03	8.340688E-04	1.275583E-05
5.635486E+03	8.341901E-04	1.279890E-05
5.645442E+03	8.342995E-04	1.284042E-05
5.655399E+03	8.344094E-04	1.288054E-05
5.665356E+03	8.345326E-04	1.291946E-05
5.675312E+03	8.346814E-04	1.295737E-05
5.685269E+03	8.346802E-04	1.299151E-05
5.695226E+03	8.349144E-04	1.302788E-05
5.705182E+03	8.352070E-04	1.306374E-05
5.715139E+03	8.355672E-04	1.309922E-05
5.725096E+03	8.360023E-04	1.313445E-05
5.735053E+03	8.363327E-04	1.316660E-05
5.745009E+03	8.369356E-04	1.320161E-05
5.754966E+03	8.376283E-04	1.323662E-05
5.764923E+03	8.382253E-04	1.326871E-05
5.774879E+03	8.390999E-04	1.330378E-05
5.784836E+03	8.398773E-04	1.333590E-05
5.794793E+03	8.409265E-04	1.337096E-05
5.804749E+03	8.418701E-04	1.340295E-05
5.814706E+03	8.428880E-04	1.343475E-05
5.824663E+03	8.441594E-04	1.346923E-05
5.834619E+03	8.453026E-04	1.350032E-05
5.844576E+03	8.464944E-04	1.353086E-05
5.854533E+03	8.479134E-04	1.356371E-05
5.864489E+03	8.491751E-04	1.359274E-05
5.874446E+03	8.504573E-04	1.362082E-05
5.884403E+03	8.517521E-04	1.364783E-05
5.894360E+03	8.530515E-04	1.367368E-05
5.904316E+03	8.543500E-04	1.369830E-05
5.914273E+03	8.556435E-04	1.372165E-05
5.924230E+03	8.569302E-04	1.374372E-05
5.934186E+03	8.582102E-04	1.376455E-05
5.944143E+03	8.594860E-04	1.378422E-05
5.954100E+03	8.607629E-04	1.380284E-05
5.964056E+03	8.620481E-04	1.382056E-05
5.974013E+03	8.633510E-04	1.383758E-05
5.983970E+03	8.644940E-04	1.385109E-05
5.993926E+03	8.658679E-04	1.386740E-05
6.003883E+03	8.672987E-04	1.388377E-05
6.013840E+03	8.686106E-04	1.389742E-05
6.023796E+03	8.701994E-04	1.391476E-05
6.033753E+03	8.718909E-04	1.393302E-05
6.043710E+03	8.735096E-04	1.394948E-05
6.053667E+03	8.754517E-04	1.397051E-05
6.063623E+03	8.773492E-04	1.399029E-05
6.073580E+03	8.794049E-04	1.401213E-05
6.083537E+03	8.818223E-04	1.403932E-05
6.093493E+03	8.842273E-04	1.406597E-05
6.103450E+03	8.868190E-04	1.409532E-05
6.113407E+03	8.896035E-04	1.412753E-05
6.123363E+03	8.927791E-04	1.416583E-05
6.133320E+03	8.959601E-04	1.420416E-05
6.143277E+03	8.993400E-04	1.424568E-05
6.153233E+03	9.029169E-04	1.429045E-05
6.163190E+03	9.066880E-04	1.433849E-05
6.173147E+03	9.106474E-04	1.438982E-05
6.183103E+03	9.147884E-04	1.444442E-05
6.193060E+03	9.191028E-04	1.450226E-05
6.203017E+03	9.235806E-04	1.456330E-05
6.212974E+03	9.280096E-04	1.462430E-05
6.222930E+03	9.327792E-04	1.469151E-05
6.232887E+03	9.376771E-04	1.476171E-05
6.242844E+03	9.426893E-04	1.483481E-05
6.252800E+03	9.475971E-04	1.490750E-05
6.262757E+03	9.527960E-04	1.498614E-05
6.272714E+03	9.580683E-04	1.506745E-05
6.282670E+03	9.631916E-04	1.514808E-05
6.292627E+03	9.685685E-04	1.523451E-05
6.302584E+03	9.737689E-04	1.532014E-05
6.312540E+03	9.789884E-04	1.540819E-05
6.322497E+03	9.844277E-04	1.550201E-05
6.332454E+03	9.896520E-04	1.559490E-05
6.342411E+03	9.948612E-04	1.569018E-05
6.352367E+03	1.000261E-03	1.579127E-05
6.362324E+03	1.005408E-03	1.589137E-05
6.372281E+03	1.010508E-03	1.599385E-05
6.382237E+03	1.015547E-03	1.609871E-05
6.392194E+03	1.020512E-03	1.620589E-05
6.402151E+03	1.025389E-03	1.631534E-05
6.412107E+03	1.030162E-03	1.642698E-05
6.422064E+03	1.034812E-03	1.654068E-05
6.432021E+03	1.039319E-03	1.665630E-05
6.441977E+03	1.043663E-03	1.677362E-05
6.451934E+03	1.047817E-03	1.689240E-05
6.461891E+03	1.051753E-03	1.701231E-05
6.471847E+03	1.055212E-03	1.712927E-05
6.481804E+03	1.058607E-03	1.725006E-05
6.491761E+03	1.061667E-03	1.737018E-05
6.501718E+03	1.064104E-03	1.748480E-05
6.511674E+03	1.066304E-03	1.760014E-05
6.521631E+03	1.067956E-03	1.771092E-05
6.531588E+03	1.068740E-03	1.781162E-05
6.541544E+03	1.068795E-03	1.790427E-05
6.551501E+03	1.068265E-03	1.799100E-05
6.561458E+03	1.066614E-03	1.806249E-05
6.571414E+03	1.064236E-03	1.812506E-05
6.581371E+03	1.060630E-03	1.816974E-05
6.591328E+03	1.055995E-03	1.819951E-05
6.601284E+03	1.050325E-03	1.821377E-05
6.611241E+03	1.043856E-03	1.821617E-05
6.621198E+03	1.036169E-03	1.819894E-05
6.631154E+03	1.027539E-03	1.816636E-05
6.641111E+03	1.018032E-03	1.811910E-05
6.651068E+03	1.007727E-03	1.805810E-05
6.661025E+03	9.967155E-04	1.798453E-05
6.670981E+03	9.850968E-04	1.789976E-05
6.680938E+03	9.729757E-04	1.780530E-05
6.690895E+03	9.604613E-04	1.770280E-05
6.700851E+03	9.474593E-04	1.759016E-05
6.710808E+03	9.344878E-04	1.747672E-05
6.720765E+03	9.214448E-04	1.736039E-05
6.730721E+03	9.084311E-04	1.724291E-05
6.740678E+03	8.953479E-04	1.712223E-05
6.750635E+03	8.826705E-04	1.700734E-05
6.760591E+03	8.700969E-04	1.689240E-05
6.770548E+03	8.580760E-04	1.678612E-05
6.780505E+03	8.463016E-04	1.668257E-05
6.790461E+03	8.351972E-04	1.659015E-05
6.800418E+03	8.244510E-04	1.650281E-05
6.810375E+03	8.144629E-04	1.642868E-05
6.820332E+03	8.049172E-04	1.636159E-05
6.830288E+03	7.960203E-04	1.630588E-05
6.840245E+03	7.879671E-04	1.626580E-05
6.850202E+03	7.804356E-04	1.623495E-05
6.860158E+03	7.736117E-04	1.621743E-05
6.870115E+03	7.675049E-04	1.621370E-05
6.880072E+03	7.621221E-04	1.622419E-05
6.890028E+03	7.574652E-04	1.624924E-05
6.899985E+03	7.535336E-04	1.628913E-05
6.909942E+03	7.503233E-04	1.634409E-05
6.919898E+03	7.478284E-04	1.641430E-05
6.929855E+03	7.460392E-04	1.649985E-05
6.939812E+03	7.449447E-04	1.660082E-05
6.949769E+03	7.445315E-04	1.671723E-05
6.959725E+03	7.447843E-04	1.684902E-05
6.969682E+03	7.456858E-04	1.699613E-05
6.979639E+03	7.470563E-04	1.715471E-05
6.989595E+03	7.491968E-04	1.733195E-05
6.999552E+03	7.519247E-04	1.752395E-05
7.009509E+03	7.550541E-04	1.772664E-05
7.019465E+03	7.588856E-04	1.794730E-05
7.029422E+03	7.630661E-04	1.817786E-05
7.039379E+03	7.678979E-04	1.842574E-05
7.049335E+03	7.730216E-04	1.868257E-05
7.059292E+03	7.787415E-04	1.895588E-05
7.069249E+03	7.846920E-04	1.923700E-05
7.079205E+03	7.910089E-04	1.952939E-05
7.089162E+03	7.978324E-04	1.983671E-05
7.099119E+03	8.047856E-04	2.014976E-05
7.109076E+03	8.120054E-04	2.047206E-05
7.119032E+03	8.194565E-04	2.080281E-05
7.128989E+03	8.272822E-04	2.114580E-05
7.138946E+03	8.350879E-04	2.149104E-05
7.148902E+03	8.430131E-04	2.184213E-05
7.158859E+03	8.510182E-04	2.219806E-05
7.168816E+03	8.590633E-04	2.255784E-05
7.178772E+03	8.671072E-04	2.292035E-05
7.188729E+03	8.751077E-04	2.328448E-05
7.198686E+03	8.830234E-04	2.364907E-05
7.208642E+03	8.908117E-04	2.401292E-05
7.218599E+03	8.984303E-04	2.437479E-05
7.228556E+03	9.056402E-04	2.472805E-05
7.238512E+03	9.127932E-04	2.508214E-05
7.248469E+03	9.196545E-04	2.543054E-05
7.258426E+03	9.261856E-04	2.577199E-05
7.268383E+03	9.321474E-04	2.609963E-05
7.278339E+03	9.379122E-04	2.642362E-05
7.288296E+03	9.432471E-04	2.673726E-05
7.298253E+03	9.479178E-04	2.703363E-05
7.308209E+03	9.523145E-04	2.732357E-05
7.318166E+03	9.560017E-04	2.759435E-05
7.328123E+03	9.593815E-04	2.785729E-05
7.338079E+03	9.620229E-04	2.809961E-05
7.348036E+03	9.643398E-04	2.833309E-05
7.357993E+03	9.659062E-04	2.854498E-05
7.367949E+03	9.669336E-04	2.874116E-05
7.377906E+03	9.676395E-04	2.892785E-05
7.387863E+03	9.676062E-04	2.909234E-05
7.397819E+03	9.670577E-04	2.924100E-05
7.407776E+03	9.660076E-04	2.937399E-05
7.417733E+03	9.644726E-04	2.949155E-05
7.427690E+03	9.626830E-04	2.960054E-05
7.437646E+03	9.602352E-04	2.968833E-05
7.447603E+03	9.573638E-04	2.976188E-05
7.457560E+03	9.540916E-04	2.982170E-05
7.467516E+03	9.504431E-04	2.986835E-05
7.477473E+03	9.464432E-04	2.990244E-05
7.487430E+03	9.421172E-04	2.992459E-05
7.497386E+03	9.374906E-04	2.993547E-05
7.507343E+03	9.325888E-04	2.993572E-05
7.517300E+03	9.274368E-04	2.992605E-05
7.527256E+03	9.218555E-04	2.990050E-05
7.537213E+03	9.162792E-04	2.987304E-05
7.547170E+03	9.105258E-04	2.983771E-05
7.557126E+03	9.046188E-04	2.979519E-05
7.567083E+03	8.983800E-04	2.973953E-05
7.577040E+03	8.922323E-04	2.968462E-05
7.586997E+03	8.859942E-04	2.962448E-05
7.596953E+03	8.794891E-04	2.955310E-05
7.606910E+03	8.731293E-04	2.948431E-05
7.616867E+03	8.667340E-04	2.941204E-05
7.626823E+03	8.601276E-04	2.933029E-05
7.636780E+03	8.537108E-04	2.925271E-05
7.646737E+03	8.471143E-04	2.916668E-05
7.656693E+03	8.407316E-04	2.908573E-05
7.666650E+03	8.341972E-04	2.899728E-05
7.676607E+03	8.277111E-04	2.890825E-05
7.686563E+03	8.214680E-04	2.882548E-05
7.696520E+03	8.151070E-04	2.873641E-05
7.706477E+03	8.088213E-04	2.864781E-05
7.716434E+03	8.027997E-04	2.856646E-05
7.726390E+03	7.966854E-04	2.847974E-05
