#wls	flux	fluxerr
1.597285E+03	1.155748E-04	1.983508E-06
1.637217E+03	1.167475E-04	1.997014E-06
1.677149E+03	1.178301E-04	2.008691E-06
1.717081E+03	1.187882E-04	2.017966E-06
1.757013E+03	1.196476E-04	2.025291E-06
1.796945E+03	1.203767E-04	2.030141E-06
1.836877E+03	1.209146E-04	2.031518E-06
1.876809E+03	1.212378E-04	2.029055E-06
1.916742E+03	1.212995E-04	2.022010E-06
1.956674E+03	1.210632E-04	2.009830E-06
1.996606E+03	1.205501E-04	1.992921E-06
2.036538E+03	1.198150E-04	1.972245E-06
2.076470E+03	1.190656E-04	1.951254E-06
2.116402E+03	1.185991E-04	1.934799E-06
2.156334E+03	1.186490E-04	1.926611E-06
2.196266E+03	1.193209E-04	1.928274E-06
2.236198E+03	1.204903E-04	1.937638E-06
2.276131E+03	1.219395E-04	1.951093E-06
2.316063E+03	1.234440E-04	1.964987E-06
2.355995E+03	1.248767E-04	1.977285E-06
2.395927E+03	1.261506E-04	1.986628E-06
2.435859E+03	1.273141E-04	1.993804E-06
2.475791E+03	1.283516E-04	1.998593E-06
2.515723E+03	1.293452E-04	2.002292E-06
2.555655E+03	1.303694E-04	2.006054E-06
2.595588E+03	1.314898E-04	2.010866E-06
2.635520E+03	1.328194E-04	2.018413E-06
2.675452E+03	1.344274E-04	2.029669E-06
2.715384E+03	1.364717E-04	2.046914E-06
2.755316E+03	1.390734E-04	2.071809E-06
2.795248E+03	1.423955E-04	2.106583E-06
2.835180E+03	1.466478E-04	2.154076E-06
2.875112E+03	1.520582E-04	2.217296E-06
2.915044E+03	1.589171E-04	2.300048E-06
2.954977E+03	1.675696E-04	2.406782E-06
2.994909E+03	1.784259E-04	2.542708E-06
3.004892E+03	1.815202E-04	2.581668E-06
3.014875E+03	1.848168E-04	2.623305E-06
3.024858E+03	1.882845E-04	2.667159E-06
3.034841E+03	1.919523E-04	2.713623E-06
3.044824E+03	1.958109E-04	2.762549E-06
3.054807E+03	1.999127E-04	2.814656E-06
3.064790E+03	2.042256E-04	2.869471E-06
3.074773E+03	2.087794E-04	2.927393E-06
3.084756E+03	2.135838E-04	2.988534E-06
3.094739E+03	2.186487E-04	3.053009E-06
3.104722E+03	2.239842E-04	3.120937E-06
3.114705E+03	2.296008E-04	3.192436E-06
3.124688E+03	2.355090E-04	3.267626E-06
3.134671E+03	2.417194E-04	3.346625E-06
3.144654E+03	2.482658E-04	3.429875E-06
3.154637E+03	2.551361E-04	3.517173E-06
3.164620E+03	2.623160E-04	3.608294E-06
3.174603E+03	2.698882E-04	3.704341E-06
3.184586E+03	2.777887E-04	3.804403E-06
3.194569E+03	2.861013E-04	3.909591E-06
3.204552E+03	2.947573E-04	4.018929E-06
3.214535E+03	3.038140E-04	4.133164E-06
3.224518E+03	3.132764E-04	4.252323E-06
3.234501E+03	3.231194E-04	4.376027E-06
3.244484E+03	3.333974E-04	4.504974E-06
3.254467E+03	3.440503E-04	4.638311E-06
3.264450E+03	3.550678E-04	4.775860E-06
3.274433E+03	3.664941E-04	4.918181E-06
3.284416E+03	3.782799E-04	5.064571E-06
3.294400E+03	3.903659E-04	5.214200E-06
3.304383E+03	4.027770E-04	5.367371E-06
3.314366E+03	4.154357E-04	5.523019E-06
3.324349E+03	4.282837E-04	5.680343E-06
3.334332E+03	4.412837E-04	5.838832E-06
3.344315E+03	4.543195E-04	5.996932E-06
3.354298E+03	4.672927E-04	6.153341E-06
3.364281E+03	4.801267E-04	6.307055E-06
3.374264E+03	4.926976E-04	6.456464E-06
3.384247E+03	5.048342E-04	6.599349E-06
3.394230E+03	5.164278E-04	6.734333E-06
3.404213E+03	5.273305E-04	6.859542E-06
3.414196E+03	5.373584E-04	6.972655E-06
3.424179E+03	5.464505E-04	7.072963E-06
3.434162E+03	5.544527E-04	7.158567E-06
3.444145E+03	5.612800E-04	7.228478E-06
3.454128E+03	5.669263E-04	7.282730E-06
3.464111E+03	5.713256E-04	7.320591E-06
3.474094E+03	5.746175E-04	7.343968E-06
3.484077E+03	5.769241E-04	7.354527E-06
3.494060E+03	5.784212E-04	7.354599E-06
3.504043E+03	5.792907E-04	7.346571E-06
3.514026E+03	5.798127E-04	7.334049E-06
3.524009E+03	5.802413E-04	7.320274E-06
3.533992E+03	5.808225E-04	7.308351E-06
3.543975E+03	5.817772E-04	7.301038E-06
3.553958E+03	5.832877E-04	7.300580E-06
3.563941E+03	5.855191E-04	7.308981E-06
3.573924E+03	5.885126E-04	7.326685E-06
3.583907E+03	5.923113E-04	7.354149E-06
3.593890E+03	5.968300E-04	7.390239E-06
3.603873E+03	6.020160E-04	7.434230E-06
3.613856E+03	6.076206E-04	7.482992E-06
3.623839E+03	6.134224E-04	7.533766E-06
3.633823E+03	6.190995E-04	7.582586E-06
3.643806E+03	6.242970E-04	7.625133E-06
3.653789E+03	6.285467E-04	7.655751E-06
3.663772E+03	6.313833E-04	7.668886E-06
3.673755E+03	6.323795E-04	7.659504E-06
3.683738E+03	6.311035E-04	7.622581E-06
3.693721E+03	6.273276E-04	7.555603E-06
3.703704E+03	6.208831E-04	7.456804E-06
3.713687E+03	6.119444E-04	7.328544E-06
3.723670E+03	6.008285E-04	7.174867E-06
3.733653E+03	5.882154E-04	7.004094E-06
3.743636E+03	5.749175E-04	6.826030E-06
3.753619E+03	5.619514E-04	6.652779E-06
3.763602E+03	5.503639E-04	6.496669E-06
3.773585E+03	5.412607E-04	6.370570E-06
3.783568E+03	5.356848E-04	6.286471E-06
3.793551E+03	5.346149E-04	6.255457E-06
3.803534E+03	5.389572E-04	6.287636E-06
3.813517E+03	5.495699E-04	6.392426E-06
3.823500E+03	5.671838E-04	6.577652E-06
3.833483E+03	5.925380E-04	6.851131E-06
3.843466E+03	6.262023E-04	7.218624E-06
3.853449E+03	6.686194E-04	7.684347E-06
3.863432E+03	7.199512E-04	8.249240E-06
3.873415E+03	7.799869E-04	8.909959E-06
3.883398E+03	8.480053E-04	9.657377E-06
3.893381E+03	9.227787E-04	1.047671E-05
3.903364E+03	1.002517E-03	1.134699E-05
3.913347E+03	1.084844E-03	1.224087E-05
3.923330E+03	1.167202E-03	1.312931E-05
3.933313E+03	1.246868E-03	1.398177E-05
3.943296E+03	1.321352E-03	1.477068E-05
3.953279E+03	1.388625E-03	1.547397E-05
3.963262E+03	1.447083E-03	1.607459E-05
3.973245E+03	1.495888E-03	1.656418E-05
3.983229E+03	1.534461E-03	1.693738E-05
3.993212E+03	1.562637E-03	1.719342E-05
4.003195E+03	1.580478E-03	1.733411E-05
4.013178E+03	1.588055E-03	1.736131E-05
4.023161E+03	1.585557E-03	1.727816E-05
4.033144E+03	1.573338E-03	1.708957E-05
4.043127E+03	1.551920E-03	1.680224E-05
4.053110E+03	1.522048E-03	1.642516E-05
4.063093E+03	1.484976E-03	1.597274E-05
4.073076E+03	1.442168E-03	1.546143E-05
4.083059E+03	1.395378E-03	1.491057E-05
4.093042E+03	1.346444E-03	1.434019E-05
4.103025E+03	1.297285E-03	1.377087E-05
4.113008E+03	1.249548E-03	1.322006E-05
4.122991E+03	1.204715E-03	1.270324E-05
4.132974E+03	1.164014E-03	1.223302E-05
4.142957E+03	1.128308E-03	1.181800E-05
4.152940E+03	1.098270E-03	1.146467E-05
4.162923E+03	1.074313E-03	1.117674E-05
4.172906E+03	1.056608E-03	1.095534E-05
4.182889E+03	1.045235E-03	1.080063E-05
4.192872E+03	1.040115E-03	1.071114E-05
4.202855E+03	1.041008E-03	1.068374E-05
4.212838E+03	1.047625E-03	1.071486E-05
4.222821E+03	1.059527E-03	1.079939E-05
4.232804E+03	1.076160E-03	1.093119E-05
4.242787E+03	1.096889E-03	1.110331E-05
4.252770E+03	1.120978E-03	1.130793E-05
4.262753E+03	1.147600E-03	1.153636E-05
4.272736E+03	1.175865E-03	1.177944E-05
4.282719E+03	1.204850E-03	1.202779E-05
4.292702E+03	1.233628E-03	1.227212E-05
4.302685E+03	1.261232E-03	1.250286E-05
4.312668E+03	1.286703E-03	1.271069E-05
4.322651E+03	1.309031E-03	1.288588E-05
4.332635E+03	1.327266E-03	1.301946E-05
4.342618E+03	1.340502E-03	1.310300E-05
4.352601E+03	1.348013E-03	1.312996E-05
4.362584E+03	1.349298E-03	1.309606E-05
4.372567E+03	1.344451E-03	1.300286E-05
4.382550E+03	1.334189E-03	1.285792E-05
4.392533E+03	1.320198E-03	1.267797E-05
4.402516E+03	1.304904E-03	1.248663E-05
4.412499E+03	1.291099E-03	1.231063E-05
4.422482E+03	1.281523E-03	1.217587E-05
4.432465E+03	1.278655E-03	1.210539E-05
4.442448E+03	1.284612E-03	1.211847E-05
4.452431E+03	1.301071E-03	1.223001E-05
4.462414E+03	1.329206E-03	1.244993E-05
4.472397E+03	1.369723E-03	1.278366E-05
4.482380E+03	1.422792E-03	1.323155E-05
4.492363E+03	1.487896E-03	1.378756E-05
4.502346E+03	1.563898E-03	1.444001E-05
4.512329E+03	1.648814E-03	1.516959E-05
4.522312E+03	1.740044E-03	1.595159E-05
4.532295E+03	1.834331E-03	1.675566E-05
4.542278E+03	1.927982E-03	1.754791E-05
4.552261E+03	2.017189E-03	1.829389E-05
4.562244E+03	2.098317E-03	1.896120E-05
4.572227E+03	2.168220E-03	1.952232E-05
4.582210E+03	2.224415E-03	1.995610E-05
4.592193E+03	2.265188E-03	2.024855E-05
4.602176E+03	2.289841E-03	2.039497E-05
4.612159E+03	2.298381E-03	2.039697E-05
4.622142E+03	2.291632E-03	2.026340E-05
4.632125E+03	2.271080E-03	2.000883E-05
4.642108E+03	2.238674E-03	1.965168E-05
4.652091E+03	2.196676E-03	1.921288E-05
4.662074E+03	2.147477E-03	1.871415E-05
4.672058E+03	2.093505E-03	1.817727E-05
4.682041E+03	2.036998E-03	1.762204E-05
4.692024E+03	1.979898E-03	1.706541E-05
4.702007E+03	1.923846E-03	1.652154E-05
4.711990E+03	1.870093E-03	1.600100E-05
4.721973E+03	1.819540E-03	1.551125E-05
4.731956E+03	1.772779E-03	1.505702E-05
4.741939E+03	1.730241E-03	1.464158E-05
4.751922E+03	1.692243E-03	1.426719E-05
4.761905E+03	1.659008E-03	1.393530E-05
4.771888E+03	1.630863E-03	1.364819E-05
4.781871E+03	1.608127E-03	1.340805E-05
4.791854E+03	1.591111E-03	1.321694E-05
4.801837E+03	1.580135E-03	1.307698E-05
4.811820E+03	1.575352E-03	1.298888E-05
4.821803E+03	1.576790E-03	1.295229E-05
4.831786E+03	1.584260E-03	1.296510E-05
4.841769E+03	1.597404E-03	1.302383E-05
4.851752E+03	1.615697E-03	1.312371E-05
4.861735E+03	1.638545E-03	1.325947E-05
4.871718E+03	1.665322E-03	1.342564E-05
4.881701E+03	1.695444E-03	1.361721E-05
4.891684E+03	1.728325E-03	1.382917E-05
4.901667E+03	1.763306E-03	1.405603E-05
4.911650E+03	1.799513E-03	1.429070E-05
4.921633E+03	1.835638E-03	1.452271E-05
4.931616E+03	1.869849E-03	1.473766E-05
4.941599E+03	1.899655E-03	1.491616E-05
4.951582E+03	1.922149E-03	1.503589E-05
4.961565E+03	1.934382E-03	1.507452E-05
4.971548E+03	1.933890E-03	1.501385E-05
4.981531E+03	1.919264E-03	1.484411E-05
4.991514E+03	1.890733E-03	1.456829E-05
5.001497E+03	1.850308E-03	1.420306E-05
5.011480E+03	1.801646E-03	1.377741E-05
5.021464E+03	1.749493E-03	1.332819E-05
5.031447E+03	1.698993E-03	1.289475E-05
5.041430E+03	1.654992E-03	1.251355E-05
5.051413E+03	1.621508E-03	1.221432E-05
5.061396E+03	1.601448E-03	1.201794E-05
5.071379E+03	1.596472E-03	1.193571E-05
5.081362E+03	1.607034E-03	1.196973E-05
5.091345E+03	1.632558E-03	1.211443E-05
5.101328E+03	1.671466E-03	1.235694E-05
5.111311E+03	1.721428E-03	1.267899E-05
5.121294E+03	1.779571E-03	1.305864E-05
5.131277E+03	1.842702E-03	1.347190E-05
5.141260E+03	1.907670E-03	1.389547E-05
5.151243E+03	1.971680E-03	1.430895E-05
5.161226E+03	2.032507E-03	1.469640E-05
5.171209E+03	2.088666E-03	1.504741E-05
5.181192E+03	2.139422E-03	1.535713E-05
5.191175E+03	2.184771E-03	1.562598E-05
5.201158E+03	2.225176E-03	1.585775E-05
5.211141E+03	2.261448E-03	1.605861E-05
5.221124E+03	2.294449E-03	1.623502E-05
5.231107E+03	2.324905E-03	1.639238E-05
5.241090E+03	2.353313E-03	1.653442E-05
5.251073E+03	2.379869E-03	1.666270E-05
5.261056E+03	2.404374E-03	1.677601E-05
5.271039E+03	2.426313E-03	1.687095E-05
5.281022E+03	2.445008E-03	1.694305E-05
5.291005E+03	2.459488E-03	1.698587E-05
5.300988E+03	2.468830E-03	1.699338E-05
5.310971E+03	2.472029E-03	1.695906E-05
5.320954E+03	2.468135E-03	1.687688E-05
5.330937E+03	2.456378E-03	1.674207E-05
5.340920E+03	2.436129E-03	1.655089E-05
5.350903E+03	2.407176E-03	1.630247E-05
5.360886E+03	2.369748E-03	1.599890E-05
5.370870E+03	2.324710E-03	1.564651E-05
5.380853E+03	2.273677E-03	1.525661E-05
5.390836E+03	2.218959E-03	1.484496E-05
5.400819E+03	2.163472E-03	1.443121E-05
5.410802E+03	2.110440E-03	1.403678E-05
5.420785E+03	2.063123E-03	1.368313E-05
5.430768E+03	2.024488E-03	1.338949E-05
5.440751E+03	1.996892E-03	1.317093E-05
5.450734E+03	1.982140E-03	1.303868E-05
5.460717E+03	1.981173E-03	1.299825E-05
5.470700E+03	1.994247E-03	1.305061E-05
5.480683E+03	2.020540E-03	1.318969E-05
5.490666E+03	2.057318E-03	1.339707E-05
5.500649E+03	2.099504E-03	1.363928E-05
5.510632E+03	2.140978E-03	1.387646E-05
5.520615E+03	2.175865E-03	1.407068E-05
5.530598E+03	2.199671E-03	1.419326E-05
5.540581E+03	2.209584E-03	1.422657E-05
5.550564E+03	2.204639E-03	1.416500E-05
5.560547E+03	2.185257E-03	1.401181E-05
5.570530E+03	2.152614E-03	1.377507E-05
5.580513E+03	2.107986E-03	1.346337E-05
5.590496E+03	2.052276E-03	1.308286E-05
5.600479E+03	1.985681E-03	1.263513E-05
5.610462E+03	1.907968E-03	1.211897E-05
5.620445E+03	1.818811E-03	1.153263E-05
5.630428E+03	1.718453E-03	1.087790E-05
5.640411E+03	1.608300E-03	1.016394E-05
5.650394E+03	1.491112E-03	9.408337E-06
5.660377E+03	1.371030E-03	8.637273E-06
5.670360E+03	1.252899E-03	7.881204E-06
5.680343E+03	1.141684E-03	7.171143E-06
5.690326E+03	1.041690E-03	6.533793E-06
5.700309E+03	9.561517E-04	5.989031E-06
5.710293E+03	8.871579E-04	5.549470E-06
5.720276E+03	8.357988E-04	5.221446E-06
5.730259E+03	8.024577E-04	5.006878E-06
5.740242E+03	7.872248E-04	4.905874E-06
5.750225E+03	7.900749E-04	4.917850E-06
5.760208E+03	8.110803E-04	5.042856E-06
5.770191E+03	8.504256E-04	5.281664E-06
5.780174E+03	9.082393E-04	5.634719E-06
5.790157E+03	9.844244E-04	6.101087E-06
5.800140E+03	1.078308E-03	6.676297E-06
5.810123E+03	1.188299E-03	7.350244E-06
5.820106E+03	1.311679E-03	8.105897E-06
5.830089E+03	1.444409E-03	8.918173E-06
5.840072E+03	1.581389E-03	9.755525E-06
5.850055E+03	1.716827E-03	1.058227E-05
5.860038E+03	1.844863E-03	1.136240E-05
5.870021E+03	1.960300E-03	1.206413E-05
5.880004E+03	2.059088E-03	1.266279E-05
5.889987E+03	2.138699E-03	1.314312E-05
5.899970E+03	2.198150E-03	1.349936E-05
5.909953E+03	2.237798E-03	1.373399E-05
5.919936E+03	2.259000E-03	1.385559E-05
5.929919E+03	2.263734E-03	1.387649E-05
5.939902E+03	2.254231E-03	1.381055E-05
5.949885E+03	2.232785E-03	1.367194E-05
5.959868E+03	2.201560E-03	1.347400E-05
5.969851E+03	2.162633E-03	1.322952E-05
5.979834E+03	2.117833E-03	1.294973E-05
5.989817E+03	2.068923E-03	1.264542E-05
5.999800E+03	2.017575E-03	1.232682E-05
6.009783E+03	1.965365E-03	1.200353E-05
6.019766E+03	1.913788E-03	1.168467E-05
6.029749E+03	1.864220E-03	1.137859E-05
6.039732E+03	1.817769E-03	1.109204E-05
6.049715E+03	1.775335E-03	1.083046E-05
6.059699E+03	1.737531E-03	1.059754E-05
6.069682E+03	1.704691E-03	1.039530E-05
6.079665E+03	1.676917E-03	1.022430E-05
6.089648E+03	1.654119E-03	1.008400E-05
6.099631E+03	1.636208E-03	9.973812E-06
6.109614E+03	1.623123E-03	9.893354E-06
6.119597E+03	1.614905E-03	9.842861E-06
6.129580E+03	1.611769E-03	9.823649E-06
6.139563E+03	1.614086E-03	9.837974E-06
6.149546E+03	1.622349E-03	9.888842E-06
6.159529E+03	1.637141E-03	9.979828E-06
6.169512E+03	1.659108E-03	1.011489E-05
6.179495E+03	1.689047E-03	1.029893E-05
6.189478E+03	1.727922E-03	1.053785E-05
6.199461E+03	1.777040E-03	1.083969E-05
6.209444E+03	1.838202E-03	1.121552E-05
6.219427E+03	1.913638E-03	1.167903E-05
6.229410E+03	2.005171E-03	1.224146E-05
6.239393E+03	2.111987E-03	1.289797E-05
6.249376E+03	2.229374E-03	1.361991E-05
6.259359E+03	2.350046E-03	1.436287E-05
6.269342E+03	2.466001E-03	1.507800E-05
6.279325E+03	2.569493E-03	1.571793E-05
6.289308E+03	2.654102E-03	1.624328E-05
6.299291E+03	2.715227E-03	1.662575E-05
6.309274E+03	2.750842E-03	1.685272E-05
6.319257E+03	2.761455E-03	1.692705E-05
6.329240E+03	2.749715E-03	1.686473E-05
6.339223E+03	2.719757E-03	1.669088E-05
6.349206E+03	2.676503E-03	1.643549E-05
6.359189E+03	2.624834E-03	1.612839E-05
6.369172E+03	2.569009E-03	1.579562E-05
6.379155E+03	2.512393E-03	1.545781E-05
6.389138E+03	2.457246E-03	1.512883E-05
6.399121E+03	2.404653E-03	1.481536E-05
6.409105E+03	2.354827E-03	1.451873E-05
6.419088E+03	2.307247E-03	1.423572E-05
6.429071E+03	2.260846E-03	1.395976E-05
6.439054E+03	2.214496E-03	1.368386E-05
6.449037E+03	2.167123E-03	1.340138E-05
6.459020E+03	2.118107E-03	1.310844E-05
6.469003E+03	2.067356E-03	1.280443E-05
6.478986E+03	2.015599E-03	1.249382E-05
6.488969E+03	1.964103E-03	1.218444E-05
6.498952E+03	1.914696E-03	1.188762E-05
6.508935E+03	1.869342E-03	1.161556E-05
6.518918E+03	1.829581E-03	1.137788E-05
6.528901E+03	1.795790E-03	1.117701E-05
6.538884E+03	1.767044E-03	1.100726E-05
6.548867E+03	1.741829E-03	1.085925E-05
6.558850E+03	1.718582E-03	1.072327E-05
6.568833E+03	1.695920E-03	1.059070E-05
6.578816E+03	1.672677E-03	1.045426E-05
6.588799E+03	1.648041E-03	1.030884E-05
6.598782E+03	1.621470E-03	1.015102E-05
6.608765E+03	1.592715E-03	9.979216E-06
6.618748E+03	1.561793E-03	9.793469E-06
6.628731E+03	1.528926E-03	9.595153E-06
6.638714E+03	1.494527E-03	9.386820E-06
6.648697E+03	1.459030E-03	9.171172E-06
6.658680E+03	1.422994E-03	8.951704E-06
6.668663E+03	1.386956E-03	8.731788E-06
6.678646E+03	1.351446E-03	8.514771E-06
6.688629E+03	1.316985E-03	8.303941E-06
6.698612E+03	1.284011E-03	8.102074E-06
6.708595E+03	1.252921E-03	7.911711E-06
6.718578E+03	1.223998E-03	7.734659E-06
6.728561E+03	1.197400E-03	7.571946E-06
6.738544E+03	1.173152E-03	7.423779E-06
6.748528E+03	1.151113E-03	7.289284E-06
6.758511E+03	1.131052E-03	7.167040E-06
6.768494E+03	1.112600E-03	7.054725E-06
6.778477E+03	1.095410E-03	6.950172E-06
6.788460E+03	1.079136E-03	6.851186E-06
6.798443E+03	1.063546E-03	6.756319E-06
6.808426E+03	1.048596E-03	6.665299E-06
6.818409E+03	1.034364E-03	6.578631E-06
6.828392E+03	1.021203E-03	6.498574E-06
6.838375E+03	1.009579E-03	6.428112E-06
6.848358E+03	1.000094E-03	6.371092E-06
6.858341E+03	9.934015E-04	6.331710E-06
6.868324E+03	9.901418E-04	6.314076E-06
6.878307E+03	9.908656E-04	6.321737E-06
6.888290E+03	9.959796E-04	6.357328E-06
6.898273E+03	1.005647E-03	6.421929E-06
6.908256E+03	1.019792E-03	6.515089E-06
6.918239E+03	1.038013E-03	6.634278E-06
6.928222E+03	1.059616E-03	6.775091E-06
6.938205E+03	1.083646E-03	6.931441E-06
6.948188E+03	1.108917E-03	7.095749E-06
6.958171E+03	1.134175E-03	7.259998E-06
6.968154E+03	1.158185E-03	7.416270E-06
6.978137E+03	1.179908E-03	7.557897E-06
6.988120E+03	1.198617E-03	7.680211E-06
6.998103E+03	1.213932E-03	7.780757E-06
7.008086E+03	1.225811E-03	7.859236E-06
7.018069E+03	1.234595E-03	7.917824E-06
7.028052E+03	1.240831E-03	7.960023E-06
7.038035E+03	1.245260E-03	7.990564E-06
7.048018E+03	1.248753E-03	8.015046E-06
7.058001E+03	1.252214E-03	8.039265E-06
7.067984E+03	1.256652E-03	8.069709E-06
7.077967E+03	1.263104E-03	8.113054E-06
7.087950E+03	1.272630E-03	8.176113E-06
7.097934E+03	1.286253E-03	8.265489E-06
7.107917E+03	1.304960E-03	8.387550E-06
7.117900E+03	1.329568E-03	8.547574E-06
7.127883E+03	1.360709E-03	8.749659E-06
7.137866E+03	1.398761E-03	8.996267E-06
7.147849E+03	1.443793E-03	9.287883E-06
7.157832E+03	1.495636E-03	9.623457E-06
7.167815E+03	1.553736E-03	9.999469E-06
7.177798E+03	1.617385E-03	1.041141E-05
7.187781E+03	1.685587E-03	1.085289E-05
7.197764E+03	1.757150E-03	1.131628E-05
7.207747E+03	1.830642E-03	1.179240E-05
7.217730E+03	1.904406E-03	1.227060E-05
7.227713E+03	1.976509E-03	1.273846E-05
7.237696E+03	2.044695E-03	1.318147E-05
7.247679E+03	2.106504E-03	1.358376E-05
7.257662E+03	2.159271E-03	1.392816E-05
7.267645E+03	2.200388E-03	1.419781E-05
7.277628E+03	2.227647E-03	1.437843E-05
7.287611E+03	2.239414E-03	1.445941E-05
7.297594E+03	2.235091E-03	1.443682E-05
7.307577E+03	2.215130E-03	1.431347E-05
7.317560E+03	2.181111E-03	1.409949E-05
7.327543E+03	2.135486E-03	1.381062E-05
7.337526E+03	2.081290E-03	1.346640E-05
7.347509E+03	2.021707E-03	1.308736E-05
7.357492E+03	1.959660E-03	1.269237E-05
7.367475E+03	1.897582E-03	1.229715E-05
7.377458E+03	1.837234E-03	1.191311E-05
7.387441E+03	1.779662E-03	1.154703E-05
7.397424E+03	1.725324E-03	1.120190E-05
7.407407E+03	1.674231E-03	1.087781E-05
7.417390E+03	1.626023E-03	1.057246E-05
7.427373E+03	1.580288E-03	1.028317E-05
7.437356E+03	1.536543E-03	1.000682E-05
7.447340E+03	1.494388E-03	9.740824E-06
7.457323E+03	1.453627E-03	9.483904E-06
7.467306E+03	1.414177E-03	9.235519E-06
7.477289E+03	1.376081E-03	8.995954E-06
7.487272E+03	1.339525E-03	8.766431E-06
7.497255E+03	1.304820E-03	8.548999E-06
7.507238E+03	1.272276E-03	8.345715E-06
7.517221E+03	1.242270E-03	8.159069E-06
7.527204E+03	1.215137E-03	7.991307E-06
7.537187E+03	1.191231E-03	7.844800E-06
7.547170E+03	1.170788E-03	7.721151E-06
7.557153E+03	1.153963E-03	7.621472E-06
7.567136E+03	1.140728E-03	7.545655E-06
7.577119E+03	1.130815E-03	7.492014E-06
7.587102E+03	1.123683E-03	7.457065E-06
7.597085E+03	1.118686E-03	7.436586E-06
7.607068E+03	1.115991E-03	7.431761E-06
7.617051E+03	1.117196E-03	7.453330E-06
7.627034E+03	1.124642E-03	7.517073E-06
7.637017E+03	1.140249E-03	7.636099E-06
7.647000E+03	1.165274E-03	7.819176E-06
7.656983E+03	1.200230E-03	8.070157E-06
7.666966E+03	1.244985E-03	8.388604E-06
7.676949E+03	1.298626E-03	8.768817E-06
7.686932E+03	1.359569E-03	9.200518E-06
7.696915E+03	1.425395E-03	9.667713E-06
7.706898E+03	1.493063E-03	1.015002E-05
7.716881E+03	1.558923E-03	1.062273E-05
7.726864E+03	1.619074E-03	1.105919E-05
7.736847E+03	1.669756E-03	1.143345E-05
7.746830E+03	1.707701E-03	1.172266E-05
