#wls	flux	fluxerr
1.597285E+03	2.495265E-05	1.862215E-06
1.637217E+03	2.554660E-05	1.900458E-06
1.677149E+03	2.616185E-05	1.939846E-06
1.717081E+03	2.680463E-05	1.980808E-06
1.757013E+03	2.746609E-05	2.022659E-06
1.796945E+03	2.814825E-05	2.065516E-06
1.836877E+03	2.885160E-05	2.109383E-06
1.876809E+03	2.955933E-05	2.153003E-06
1.916742E+03	3.027406E-05	2.196546E-06
1.956674E+03	3.098433E-05	2.239159E-06
1.996606E+03	3.168650E-05	2.280566E-06
2.036538E+03	3.241391E-05	2.323147E-06
2.076470E+03	3.321602E-05	2.370390E-06
2.116402E+03	3.418037E-05	2.428426E-06
2.156334E+03	3.539926E-05	2.503603E-06
2.196266E+03	3.692607E-05	2.599403E-06
2.236198E+03	3.876145E-05	2.715529E-06
2.276131E+03	4.084549E-05	2.847448E-06
2.316063E+03	4.313273E-05	2.991699E-06
2.355995E+03	4.559496E-05	3.146061E-06
2.395927E+03	4.819978E-05	3.308064E-06
2.435859E+03	5.096171E-05	3.478473E-06
2.475791E+03	5.387881E-05	3.656909E-06
2.515723E+03	5.695037E-05	3.843072E-06
2.555655E+03	6.020524E-05	4.038634E-06
2.595588E+03	6.364080E-05	4.243117E-06
2.635520E+03	6.725966E-05	4.456381E-06
2.675452E+03	7.105867E-05	4.677894E-06
2.715384E+03	7.502692E-05	4.906613E-06
2.755316E+03	7.915792E-05	5.141789E-06
2.795248E+03	8.339189E-05	5.379240E-06
2.835180E+03	8.769515E-05	5.616555E-06
2.875112E+03	9.202020E-05	5.850502E-06
2.915044E+03	9.625215E-05	6.073685E-06
2.954977E+03	1.003203E-04	6.281692E-06
2.994909E+03	1.040650E-04	6.464743E-06
3.004892E+03	1.049368E-04	6.505793E-06
3.014875E+03	1.057969E-04	6.545840E-06
3.024858E+03	1.066058E-04	6.582448E-06
3.034841E+03	1.073797E-04	6.616641E-06
3.044824E+03	1.081177E-04	6.648371E-06
3.054807E+03	1.088187E-04	6.677582E-06
3.064790E+03	1.094992E-04	6.705299E-06
3.074773E+03	1.101184E-04	6.729035E-06
3.084756E+03	1.106931E-04	6.749832E-06
3.094739E+03	1.112213E-04	6.767591E-06
3.104722E+03	1.117012E-04	6.782221E-06
3.114705E+03	1.121317E-04	6.793669E-06
3.124688E+03	1.125320E-04	6.803121E-06
3.134671E+03	1.128630E-04	6.808223E-06
3.144654E+03	1.131456E-04	6.810261E-06
3.154637E+03	1.133824E-04	6.809410E-06
3.164620E+03	1.135972E-04	6.807116E-06
3.174603E+03	1.137560E-04	6.801356E-06
3.184586E+03	1.138864E-04	6.793795E-06
3.194569E+03	1.139981E-04	6.785019E-06
3.204552E+03	1.141027E-04	6.775733E-06
3.214535E+03	1.142339E-04	6.767931E-06
3.224518E+03	1.143669E-04	6.760140E-06
3.234501E+03	1.145380E-04	6.754494E-06
3.244484E+03	1.147637E-04	6.751956E-06
3.254467E+03	1.150807E-04	6.754649E-06
3.264450E+03	1.154641E-04	6.761074E-06
3.274433E+03	1.159472E-04	6.773159E-06
3.284416E+03	1.165410E-04	6.791498E-06
3.294400E+03	1.172738E-04	6.817688E-06
3.304383E+03	1.181093E-04	6.849557E-06
3.314366E+03	1.190682E-04	6.888270E-06
3.324349E+03	1.201474E-04	6.933592E-06
3.334332E+03	1.213611E-04	6.986282E-06
3.344315E+03	1.226561E-04	7.043229E-06
3.354298E+03	1.240389E-04	7.104763E-06
3.364281E+03	1.254910E-04	7.169794E-06
3.374264E+03	1.270130E-04	7.238323E-06
3.384247E+03	1.285361E-04	7.306405E-06
3.394230E+03	1.300550E-04	7.373737E-06
3.404213E+03	1.315409E-04	7.438689E-06
3.414196E+03	1.329877E-04	7.500930E-06
3.424179E+03	1.343211E-04	7.556299E-06
3.434162E+03	1.355387E-04	7.604705E-06
3.444145E+03	1.366434E-04	7.646359E-06
3.454128E+03	1.375731E-04	7.677851E-06
3.464111E+03	1.383441E-04	7.700159E-06
3.474094E+03	1.389573E-04	7.713406E-06
3.484077E+03	1.394457E-04	7.719488E-06
3.494060E+03	1.397769E-04	7.716680E-06
3.504043E+03	1.399973E-04	7.707593E-06
3.514026E+03	1.401328E-04	7.693711E-06
3.524009E+03	1.402359E-04	7.677945E-06
3.533992E+03	1.402859E-04	7.659180E-06
3.543975E+03	1.403331E-04	7.640178E-06
3.553958E+03	1.404243E-04	7.623478E-06
3.563941E+03	1.405278E-04	7.607353E-06
3.573924E+03	1.406793E-04	7.593714E-06
3.583907E+03	1.409076E-04	7.584100E-06
3.593890E+03	1.411606E-04	7.575665E-06
3.603873E+03	1.414475E-04	7.568902E-06
3.613856E+03	1.417449E-04	7.562544E-06
3.623839E+03	1.420487E-04	7.556369E-06
3.633823E+03	1.422770E-04	7.546021E-06
3.643806E+03	1.424189E-04	7.530970E-06
3.653789E+03	1.424633E-04	7.510668E-06
3.663772E+03	1.423263E-04	7.480748E-06
3.673755E+03	1.420017E-04	7.440974E-06
3.683738E+03	1.414647E-04	7.390143E-06
3.693721E+03	1.407237E-04	7.328799E-06
3.703704E+03	1.397256E-04	7.254279E-06
3.713687E+03	1.385045E-04	7.168475E-06
3.723670E+03	1.371093E-04	7.074020E-06
3.733653E+03	1.355339E-04	6.970687E-06
3.743636E+03	1.338596E-04	6.862738E-06
3.753619E+03	1.321809E-04	6.755049E-06
3.763602E+03	1.305342E-04	6.649482E-06
3.773585E+03	1.290330E-04	6.551783E-06
3.783568E+03	1.277710E-04	6.466630E-06
3.793551E+03	1.268640E-04	6.399742E-06
3.803534E+03	1.263586E-04	6.353291E-06
3.813517E+03	1.263615E-04	6.332427E-06
3.823500E+03	1.269716E-04	6.341834E-06
3.833483E+03	1.282127E-04	6.382393E-06
3.843466E+03	1.301633E-04	6.457681E-06
3.853449E+03	1.328678E-04	6.569534E-06
3.863432E+03	1.363798E-04	6.720212E-06
3.873415E+03	1.406666E-04	6.907697E-06
3.883398E+03	1.457455E-04	7.132431E-06
3.893381E+03	1.516143E-04	7.393910E-06
3.903364E+03	1.581686E-04	7.686641E-06
3.913347E+03	1.653523E-04	8.007558E-06
3.923330E+03	1.730558E-04	8.351041E-06
3.933313E+03	1.811728E-04	8.711697E-06
3.943296E+03	1.894800E-04	9.078610E-06
3.953279E+03	1.978256E-04	9.444428E-06
3.963262E+03	2.060166E-04	9.799939E-06
3.973245E+03	2.138950E-04	1.013772E-05
3.983229E+03	2.212022E-04	1.044573E-05
3.993212E+03	2.278073E-04	1.071808E-05
4.003195E+03	2.336133E-04	1.095059E-05
4.013178E+03	2.384410E-04	1.113531E-05
4.023161E+03	2.422730E-04	1.127193E-05
4.033144E+03	2.450982E-04	1.136047E-05
4.043127E+03	2.469936E-04	1.140498E-05
4.053110E+03	2.479511E-04	1.140561E-05
4.063093E+03	2.481262E-04	1.136997E-05
4.073076E+03	2.476613E-04	1.130496E-05
4.083059E+03	2.467614E-04	1.122026E-05
4.093042E+03	2.455152E-04	1.112012E-05
4.103025E+03	2.441405E-04	1.101455E-05
4.113008E+03	2.428059E-04	1.091119E-05
4.122991E+03	2.416658E-04	1.081693E-05
4.132974E+03	2.408960E-04	1.073953E-05
4.142957E+03	2.405246E-04	1.068002E-05
4.152940E+03	2.406768E-04	1.064373E-05
4.162923E+03	2.414090E-04	1.063287E-05
4.172906E+03	2.427913E-04	1.065020E-05
4.182889E+03	2.447438E-04	1.069188E-05
4.192872E+03	2.472864E-04	1.075848E-05
4.202855E+03	2.503771E-04	1.084785E-05
4.212838E+03	2.539560E-04	1.095711E-05
4.222821E+03	2.579930E-04	1.108471E-05
4.232804E+03	2.623159E-04	1.122303E-05
4.242787E+03	2.668765E-04	1.136985E-05
4.252770E+03	2.715798E-04	1.152103E-05
4.262753E+03	2.763321E-04	1.167253E-05
4.272736E+03	2.810928E-04	1.182261E-05
4.282719E+03	2.856873E-04	1.196395E-05
4.292702E+03	2.900975E-04	1.209590E-05
4.302685E+03	2.942755E-04	1.221656E-05
4.312668E+03	2.981937E-04	1.232493E-05
4.322651E+03	3.018471E-04	1.242094E-05
4.332635E+03	3.053054E-04	1.250759E-05
4.342618E+03	3.085051E-04	1.258241E-05
4.352601E+03	3.115596E-04	1.265013E-05
4.362584E+03	3.145497E-04	1.271412E-05
4.372567E+03	3.175736E-04	1.277836E-05
4.382550E+03	3.207443E-04	1.284736E-05
4.392533E+03	3.241995E-04	1.292653E-05
4.402516E+03	3.281519E-04	1.302417E-05
4.412499E+03	3.326459E-04	1.314175E-05
4.422482E+03	3.378819E-04	1.328688E-05
4.432465E+03	3.439847E-04	1.346402E-05
4.442448E+03	3.510478E-04	1.367636E-05
4.452431E+03	3.591217E-04	1.392533E-05
4.462414E+03	3.682009E-04	1.421016E-05
4.472397E+03	3.782106E-04	1.452743E-05
4.482380E+03	3.889954E-04	1.487069E-05
4.492363E+03	4.003795E-04	1.523283E-05
4.502346E+03	4.118935E-04	1.559573E-05
4.512329E+03	4.231851E-04	1.594606E-05
4.522312E+03	4.337708E-04	1.626580E-05
4.532295E+03	4.431324E-04	1.653601E-05
4.542278E+03	4.507582E-04	1.673833E-05
4.552261E+03	4.561903E-04	1.685682E-05
4.562244E+03	4.590715E-04	1.687952E-05
4.572227E+03	4.591844E-04	1.679989E-05
4.582210E+03	4.564758E-04	1.661749E-05
4.592193E+03	4.510608E-04	1.633804E-05
4.602176E+03	4.432078E-04	1.597270E-05
4.612159E+03	4.333065E-04	1.553677E-05
4.622142E+03	4.218244E-04	1.504806E-05
4.632125E+03	4.092617E-04	1.452517E-05
4.642108E+03	3.961092E-04	1.398604E-05
4.652091E+03	3.828153E-04	1.344673E-05
4.662074E+03	3.697642E-04	1.292076E-05
4.672058E+03	3.572651E-04	1.241873E-05
4.682041E+03	3.455502E-04	1.194838E-05
4.692024E+03	3.347804E-04	1.151481E-05
4.702007E+03	3.250540E-04	1.112087E-05
4.711990E+03	3.164182E-04	1.076759E-05
4.721973E+03	3.088798E-04	1.045461E-05
4.731956E+03	3.024164E-04	1.018057E-05
4.741939E+03	2.969845E-04	9.943428E-06
4.751922E+03	2.925279E-04	9.740748E-06
4.761905E+03	2.889826E-04	9.569883E-06
4.771888E+03	2.862823E-04	9.428142E-06
4.781871E+03	2.843596E-04	9.312866E-06
4.791854E+03	2.831486E-04	9.221479E-06
4.801837E+03	2.825367E-04	9.149946E-06
4.811820E+03	2.825549E-04	9.098942E-06
4.821803E+03	2.830897E-04	9.064491E-06
4.831786E+03	2.840734E-04	9.044156E-06
4.841769E+03	2.854351E-04	9.035453E-06
4.851752E+03	2.871011E-04	9.035855E-06
4.861735E+03	2.889951E-04	9.042817E-06
4.871718E+03	2.910410E-04	9.053851E-06
4.881701E+03	2.931655E-04	9.066607E-06
4.891684E+03	2.952503E-04	9.077418E-06
4.901667E+03	2.973358E-04	9.087540E-06
4.911650E+03	2.993236E-04	9.093992E-06
4.921633E+03	3.011772E-04	9.095734E-06
4.931616E+03	3.028734E-04	9.092141E-06
4.941599E+03	3.044016E-04	9.083000E-06
4.951582E+03	3.057136E-04	9.066972E-06
4.961565E+03	3.069301E-04	9.047742E-06
4.971548E+03	3.080336E-04	9.024858E-06
4.981531E+03	3.090774E-04	8.999939E-06
4.991514E+03	3.101369E-04	8.975211E-06
5.001497E+03	3.112595E-04	8.952035E-06
5.011480E+03	3.126752E-04	8.936961E-06
5.021464E+03	3.144791E-04	8.932545E-06
5.031447E+03	3.168354E-04	8.943225E-06
5.041430E+03	3.198620E-04	8.972025E-06
5.051413E+03	3.238337E-04	9.026265E-06
5.061396E+03	3.288465E-04	9.108120E-06
5.071379E+03	3.350167E-04	9.220259E-06
5.081362E+03	3.423559E-04	9.362411E-06
5.091345E+03	3.509865E-04	9.537318E-06
5.101328E+03	3.607895E-04	9.741121E-06
5.111311E+03	3.716247E-04	9.969482E-06
5.121294E+03	3.832088E-04	1.021435E-05
5.131277E+03	3.953772E-04	1.047103E-05
5.141260E+03	4.077161E-04	1.072837E-05
5.151243E+03	4.197643E-04	1.097428E-05
5.161226E+03	4.312568E-04	1.120207E-05
5.171209E+03	4.417346E-04	1.140023E-05
5.181192E+03	4.507721E-04	1.155840E-05
5.191175E+03	4.582345E-04	1.167392E-05
5.201158E+03	4.638418E-04	1.174053E-05
5.211141E+03	4.673977E-04	1.175424E-05
5.221124E+03	4.690302E-04	1.171930E-05
5.231107E+03	4.686346E-04	1.163407E-05
5.241090E+03	4.664910E-04	1.150645E-05
5.251073E+03	4.626970E-04	1.133970E-05
5.261056E+03	4.573910E-04	1.113797E-05
5.271039E+03	4.509668E-04	1.091150E-05
5.281022E+03	4.435957E-04	1.066494E-05
5.291005E+03	4.354539E-04	1.040291E-05
5.300988E+03	4.269312E-04	1.013500E-05
5.310971E+03	4.181120E-04	9.863373E-06
5.320954E+03	4.093527E-04	9.596479E-06
5.330937E+03	4.007106E-04	9.335610E-06
5.340920E+03	3.925002E-04	9.087973E-06
5.350903E+03	3.847465E-04	8.853932E-06
5.360886E+03	3.777179E-04	8.639413E-06
5.370870E+03	3.714642E-04	8.445221E-06
5.380853E+03	3.660155E-04	8.271703E-06
5.390836E+03	3.615612E-04	8.122772E-06
5.400819E+03	3.580143E-04	7.996081E-06
5.410802E+03	3.554975E-04	7.893991E-06
5.420785E+03	3.538520E-04	7.812606E-06
5.430768E+03	3.531128E-04	7.752365E-06
5.440751E+03	3.530234E-04	7.707352E-06
5.450734E+03	3.535086E-04	7.675712E-06
5.460717E+03	3.541985E-04	7.649275E-06
5.470700E+03	3.548511E-04	7.622791E-06
5.480683E+03	3.551881E-04	7.590312E-06
5.490666E+03	3.547563E-04	7.542297E-06
5.500649E+03	3.534088E-04	7.475864E-06
5.510632E+03	3.507918E-04	7.383829E-06
5.520615E+03	3.468232E-04	7.264833E-06
5.530598E+03	3.412344E-04	7.113642E-06
5.540581E+03	3.339938E-04	6.930028E-06
5.550564E+03	3.251355E-04	6.715114E-06
5.560547E+03	3.146029E-04	6.468125E-06
5.570530E+03	3.026307E-04	6.194250E-06
5.580513E+03	2.893083E-04	5.895619E-06
5.590496E+03	2.749358E-04	5.578591E-06
5.600479E+03	2.598432E-04	5.250011E-06
5.610462E+03	2.442504E-04	4.914394E-06
5.620445E+03	2.285612E-04	4.579861E-06
5.630428E+03	2.130116E-04	4.251053E-06
5.640411E+03	1.979426E-04	3.934627E-06
5.650394E+03	1.836601E-04	3.636442E-06
5.660377E+03	1.703418E-04	3.359746E-06
5.670360E+03	1.582235E-04	3.108883E-06
5.680343E+03	1.474901E-04	2.887143E-06
5.690326E+03	1.382093E-04	2.695491E-06
5.700309E+03	1.304889E-04	2.535666E-06
5.710293E+03	1.243809E-04	2.408302E-06
5.720276E+03	1.199371E-04	2.314037E-06
5.730259E+03	1.171391E-04	2.252154E-06
5.740242E+03	1.160298E-04	2.223124E-06
5.750225E+03	1.166571E-04	2.227521E-06
5.760208E+03	1.190206E-04	2.264992E-06
5.770191E+03	1.231859E-04	2.336449E-06
5.780174E+03	1.292002E-04	2.442448E-06
5.790157E+03	1.371209E-04	2.583736E-06
5.800140E+03	1.469053E-04	2.759176E-06
5.810123E+03	1.585193E-04	2.967806E-06
5.820106E+03	1.718204E-04	3.206666E-06
5.830089E+03	1.865853E-04	3.471322E-06
5.840072E+03	2.023672E-04	3.753266E-06
5.850055E+03	2.186724E-04	4.043221E-06
5.860038E+03	2.348592E-04	4.329297E-06
5.870021E+03	2.502066E-04	4.598296E-06
5.880004E+03	2.640208E-04	4.837669E-06
5.889987E+03	2.755342E-04	5.033672E-06
5.899970E+03	2.842403E-04	5.177474E-06
5.909953E+03	2.897840E-04	5.263088E-06
5.919936E+03	2.920394E-04	5.288748E-06
5.929919E+03	2.911127E-04	5.256893E-06
5.939902E+03	2.873641E-04	5.174500E-06
5.949885E+03	2.811640E-04	5.048647E-06
5.959868E+03	2.731231E-04	4.890632E-06
5.969851E+03	2.638367E-04	4.711345E-06
5.979834E+03	2.538808E-04	4.521215E-06
5.989817E+03	2.437749E-04	4.329546E-06
5.999800E+03	2.339602E-04	4.144164E-06
6.009783E+03	2.247922E-04	3.971287E-06
6.019766E+03	2.165802E-04	3.816263E-06
6.029749E+03	2.094513E-04	3.681180E-06
6.039732E+03	2.035863E-04	3.569048E-06
6.049715E+03	1.990856E-04	3.481448E-06
6.059699E+03	1.960221E-04	3.419471E-06
6.069682E+03	1.944556E-04	3.383964E-06
6.079665E+03	1.944441E-04	3.375754E-06
6.089648E+03	1.960553E-04	3.395825E-06
6.099631E+03	1.993763E-04	3.445498E-06
6.109614E+03	2.045223E-04	3.526573E-06
6.119597E+03	2.116450E-04	3.641475E-06
6.129580E+03	2.209418E-04	3.793403E-06
6.139563E+03	2.326651E-04	3.986481E-06
6.149546E+03	2.471322E-04	4.225930E-06
6.159529E+03	2.647375E-04	4.518262E-06
6.169512E+03	2.859651E-04	4.871489E-06
6.179495E+03	3.114010E-04	5.295324E-06
6.189478E+03	3.417421E-04	5.801329E-06
6.199461E+03	3.777937E-04	6.402864E-06
6.209444E+03	4.204446E-04	7.114666E-06
6.219427E+03	4.706036E-04	7.951779E-06
6.229410E+03	5.290837E-04	8.927614E-06
6.239393E+03	5.963244E-04	1.004930E-05
6.249376E+03	6.720463E-04	1.131191E-05
6.259359E+03	7.551343E-04	1.269662E-05
6.269342E+03	8.434940E-04	1.416829E-05
6.279325E+03	9.340182E-04	1.567499E-05
6.289308E+03	1.022718E-03	1.715013E-05
6.299291E+03	1.105041E-03	1.851793E-05
6.309274E+03	1.176346E-03	1.970121E-05
6.319257E+03	1.232469E-03	2.063091E-05
6.329240E+03	1.270266E-03	2.125495E-05
6.339223E+03	1.288018E-03	2.154511E-05
6.349206E+03	1.285620E-03	2.149996E-05
6.359189E+03	1.264512E-03	2.114377E-05
6.369172E+03	1.227385E-03	2.052150E-05
6.379155E+03	1.177545E-03	1.968830E-05
6.389138E+03	1.119225E-03	1.871472E-05
6.399121E+03	1.055938E-03	1.765919E-05
6.409105E+03	9.909566E-04	1.657617E-05
6.419088E+03	9.269130E-04	1.550940E-05
6.429071E+03	8.657160E-04	1.449059E-05
6.439054E+03	8.085783E-04	1.353988E-05
6.449037E+03	7.560985E-04	1.266717E-05
6.459020E+03	7.082571E-04	1.187207E-05
6.469003E+03	6.650275E-04	1.115407E-05
6.478986E+03	6.257554E-04	1.050221E-05
6.488969E+03	5.897704E-04	9.905219E-06
6.498952E+03	5.563556E-04	9.351052E-06
6.508935E+03	5.248334E-04	8.828309E-06
6.518918E+03	4.946354E-04	8.327401E-06
6.528901E+03	4.654085E-04	7.842328E-06
6.538884E+03	4.373511E-04	7.376381E-06
6.548867E+03	4.104687E-04	6.929621E-06
6.558850E+03	3.848551E-04	6.503614E-06
6.568833E+03	3.605858E-04	6.099638E-06
6.578816E+03	3.376510E-04	5.717540E-06
6.588799E+03	3.161838E-04	5.359599E-06
6.598782E+03	2.961145E-04	5.024674E-06
6.608765E+03	2.774146E-04	4.712325E-06
6.618748E+03	2.600428E-04	4.421898E-06
6.628731E+03	2.439086E-04	4.151908E-06
6.638714E+03	2.290418E-04	3.902913E-06
6.648697E+03	2.153404E-04	3.673235E-06
6.658680E+03	2.027437E-04	3.461892E-06
6.668663E+03	1.911566E-04	3.267313E-06
6.678646E+03	1.805806E-04	3.089574E-06
6.688629E+03	1.709160E-04	2.927022E-06
6.698612E+03	1.620977E-04	2.778589E-06
6.708595E+03	1.540358E-04	2.642776E-06
6.718578E+03	1.467215E-04	2.519473E-06
6.728561E+03	1.400695E-04	2.407252E-06
6.738544E+03	1.340259E-04	2.305221E-06
6.748528E+03	1.285201E-04	2.212195E-06
6.758511E+03	1.235524E-04	2.128209E-06
6.768494E+03	1.190622E-04	2.052242E-06
6.778477E+03	1.149977E-04	1.983425E-06
6.788460E+03	1.113712E-04	1.921990E-06
6.798443E+03	1.081416E-04	1.867246E-06
6.808426E+03	1.052933E-04	1.818940E-06
6.818409E+03	1.027989E-04	1.776611E-06
6.828392E+03	1.006881E-04	1.740790E-06
6.838375E+03	9.894327E-05	1.711178E-06
6.848358E+03	9.755181E-05	1.687570E-06
6.858341E+03	9.655431E-05	1.670676E-06
6.868324E+03	9.594410E-05	1.660385E-06
6.878307E+03	9.571700E-05	1.656630E-06
6.888290E+03	9.591756E-05	1.660185E-06
6.898273E+03	9.654178E-05	1.670982E-06
6.908256E+03	9.758415E-05	1.688922E-06
6.918239E+03	9.908596E-05	1.714716E-06
6.928222E+03	1.010201E-04	1.747890E-06
6.938205E+03	1.034225E-04	1.789058E-06
6.948188E+03	1.062759E-04	1.837908E-06
6.958171E+03	1.095574E-04	1.894035E-06
6.968154E+03	1.132965E-04	1.957931E-06
6.978137E+03	1.174660E-04	2.029114E-06
6.988120E+03	1.220365E-04	2.107056E-06
6.998103E+03	1.270399E-04	2.192292E-06
7.008086E+03	1.324296E-04	2.283998E-06
7.018069E+03	1.382504E-04	2.382925E-06
7.028052E+03	1.444911E-04	2.488863E-06
7.038035E+03	1.511491E-04	2.601744E-06
7.048018E+03	1.583143E-04	2.723094E-06
7.058001E+03	1.659980E-04	2.853081E-06
7.067984E+03	1.743477E-04	2.994218E-06
7.077967E+03	1.834674E-04	3.148255E-06
7.087950E+03	1.934994E-04	3.317602E-06
7.097934E+03	2.047336E-04	3.507183E-06
7.107917E+03	2.173854E-04	3.720637E-06
7.117900E+03	2.318678E-04	3.964962E-06
7.127883E+03	2.485041E-04	4.245613E-06
7.137866E+03	2.678256E-04	4.571568E-06
7.147849E+03	2.902320E-04	4.949540E-06
7.157832E+03	3.163164E-04	5.389519E-06
7.167815E+03	3.464500E-04	5.897690E-06
7.177798E+03	3.811380E-04	6.482512E-06
7.187781E+03	4.205689E-04	7.147054E-06
7.197764E+03	4.646647E-04	7.889867E-06
7.207747E+03	5.132319E-04	8.707588E-06
7.217730E+03	5.653266E-04	9.584169E-06
7.227713E+03	6.198473E-04	1.050098E-05
7.237696E+03	6.747904E-04	1.142421E-05
7.247679E+03	7.281080E-04	1.231942E-05
7.257662E+03	7.769873E-04	1.313934E-05
7.267645E+03	8.190293E-04	1.384379E-05
7.277628E+03	8.515248E-04	1.438741E-05
7.287611E+03	8.728194E-04	1.474269E-05
7.297594E+03	8.814297E-04	1.488495E-05
7.307577E+03	8.771831E-04	1.481156E-05
7.317560E+03	8.607907E-04	1.453469E-05
7.327543E+03	8.332839E-04	1.407178E-05
7.337526E+03	7.968308E-04	1.345932E-05
7.347509E+03	7.533509E-04	1.272953E-05
7.357492E+03	7.053770E-04	1.192488E-05
7.367475E+03	6.548125E-04	1.107722E-05
7.377458E+03	6.037812E-04	1.022213E-05
7.387441E+03	5.536340E-04	9.382144E-06
7.397424E+03	5.057764E-04	8.580814E-06
7.407407E+03	4.609011E-04	7.829689E-06
7.417390E+03	4.196717E-04	7.139904E-06
7.427373E+03	3.824732E-04	6.517962E-06
7.437356E+03	3.492945E-04	5.963697E-06
7.447340E+03	3.202367E-04	5.478929E-06
7.457323E+03	2.950611E-04	5.059725E-06
7.467306E+03	2.736336E-04	4.703960E-06
7.477289E+03	2.557665E-04	4.408641E-06
7.487272E+03	2.411230E-04	4.168241E-06
7.497255E+03	2.295352E-04	3.980167E-06
7.507238E+03	2.206725E-04	3.839029E-06
7.517221E+03	2.143236E-04	3.741501E-06
7.527204E+03	2.102645E-04	3.684039E-06
7.537187E+03	2.081443E-04	3.660863E-06
7.547170E+03	2.077208E-04	3.668056E-06
7.557153E+03	2.085641E-04	3.698340E-06
7.567136E+03	2.102991E-04	3.745318E-06
7.577119E+03	2.125135E-04	3.801828E-06
7.587102E+03	2.146832E-04	3.858582E-06
7.597085E+03	2.164380E-04	3.908891E-06
7.607068E+03	2.175258E-04	3.948082E-06
7.617051E+03	2.177951E-04	3.973215E-06
7.627034E+03	2.173593E-04	3.986132E-06
7.637017E+03	2.164248E-04	3.990428E-06
7.647000E+03	2.151277E-04	3.988457E-06
7.656983E+03	2.137035E-04	3.984481E-06
7.666966E+03	2.123414E-04	3.981991E-06
7.676949E+03	2.110589E-04	3.981313E-06
7.686932E+03	2.099132E-04	3.983544E-06
7.696915E+03	2.088980E-04	3.988592E-06
7.706898E+03	2.078502E-04	3.993356E-06
7.716881E+03	2.066791E-04	3.996052E-06
7.726864E+03	2.052777E-04	3.994542E-06
7.736847E+03	2.034397E-04	3.984677E-06
7.746830E+03	2.010867E-04	3.964727E-06
