#wls	flux	fluxerr
1.589667E+03	2.521895E-02	0.000000E+00
1.629409E+03	2.687690E-02	0.000000E+00
1.669151E+03	2.862762E-02	0.000000E+00
1.708892E+03	3.046976E-02	0.000000E+00
1.748634E+03	3.239989E-02	0.000000E+00
1.788376E+03	3.441156E-02	0.000000E+00
1.828117E+03	3.649467E-02	0.000000E+00
1.867859E+03	3.863440E-02	0.000000E+00
1.907601E+03	4.080983E-02	0.000000E+00
1.947342E+03	4.299260E-02	0.000000E+00
1.987084E+03	4.514533E-02	0.000000E+00
2.026826E+03	4.721974E-02	0.000000E+00
2.066567E+03	4.915786E-02	0.000000E+00
2.106309E+03	5.090172E-02	0.000000E+00
2.146051E+03	5.239151E-02	0.000000E+00
2.185792E+03	5.355749E-02	0.000000E+00
2.225534E+03	5.432396E-02	0.000000E+00
2.265276E+03	5.465182E-02	0.000000E+00
2.305017E+03	5.459089E-02	0.000000E+00
2.344759E+03	5.423103E-02	0.000000E+00
2.384501E+03	5.365883E-02	0.000000E+00
2.424242E+03	5.295107E-02	0.000000E+00
2.463984E+03	5.217520E-02	0.000000E+00
2.503726E+03	5.138996E-02	0.000000E+00
2.543467E+03	5.064125E-02	0.000000E+00
2.583209E+03	4.994238E-02	0.000000E+00
2.622951E+03	4.929119E-02	0.000000E+00
2.662692E+03	4.868012E-02	0.000000E+00
2.702434E+03	4.809933E-02	0.000000E+00
2.742176E+03	4.753969E-02	0.000000E+00
2.781918E+03	4.699410E-02	0.000000E+00
2.821659E+03	4.645789E-02	0.000000E+00
2.861401E+03	4.592835E-02	0.000000E+00
2.901143E+03	4.540398E-02	0.000000E+00
2.940884E+03	4.488426E-02	0.000000E+00
2.980626E+03	4.436911E-02	0.000000E+00
2.990561E+03	4.424105E-02	0.000000E+00
3.000497E+03	4.411321E-02	0.000000E+00
3.010432E+03	4.398575E-02	0.000000E+00
3.020368E+03	4.385868E-02	0.000000E+00
3.030303E+03	4.373180E-02	0.000000E+00
3.040238E+03	4.360522E-02	0.000000E+00
3.050174E+03	4.347911E-02	0.000000E+00
3.060109E+03	4.335318E-02	0.000000E+00
3.070045E+03	4.322759E-02	0.000000E+00
3.079980E+03	4.310245E-02	0.000000E+00
3.089916E+03	4.297752E-02	0.000000E+00
3.099851E+03	4.285299E-02	0.000000E+00
3.109786E+03	4.272873E-02	0.000000E+00
3.119722E+03	4.260481E-02	0.000000E+00
3.129657E+03	4.248120E-02	0.000000E+00
3.139593E+03	4.235796E-02	0.000000E+00
3.149528E+03	4.223505E-02	0.000000E+00
3.159463E+03	4.211244E-02	0.000000E+00
3.169399E+03	4.199016E-02	0.000000E+00
3.179334E+03	4.186818E-02	0.000000E+00
3.189270E+03	4.174644E-02	0.000000E+00
3.199205E+03	4.162507E-02	0.000000E+00
3.209141E+03	4.150392E-02	0.000000E+00
3.219076E+03	4.138303E-02	0.000000E+00
3.229011E+03	4.126232E-02	0.000000E+00
3.238947E+03	4.114193E-02	0.000000E+00
3.248882E+03	4.102176E-02	0.000000E+00
3.258818E+03	4.090164E-02	0.000000E+00
3.268753E+03	4.078179E-02	0.000000E+00
3.278689E+03	4.066190E-02	0.000000E+00
3.288624E+03	4.054221E-02	0.000000E+00
3.298559E+03	4.042249E-02	0.000000E+00
3.308495E+03	4.030266E-02	0.000000E+00
3.318430E+03	4.018280E-02	0.000000E+00
3.328366E+03	4.006281E-02	0.000000E+00
3.338301E+03	3.994257E-02	0.000000E+00
3.348236E+03	3.982197E-02	0.000000E+00
3.358172E+03	3.970089E-02	0.000000E+00
3.368107E+03	3.957943E-02	0.000000E+00
3.378043E+03	3.945723E-02	0.000000E+00
3.387978E+03	3.933429E-02	0.000000E+00
3.397914E+03	3.921050E-02	0.000000E+00
3.407849E+03	3.908560E-02	0.000000E+00
3.417784E+03	3.895971E-02	0.000000E+00
3.427720E+03	3.883260E-02	0.000000E+00
3.437655E+03	3.870449E-02	0.000000E+00
3.447591E+03	3.857517E-02	0.000000E+00
3.457526E+03	3.844466E-02	0.000000E+00
3.467462E+03	3.831298E-02	0.000000E+00
3.477397E+03	3.818017E-02	0.000000E+00
3.487332E+03	3.804615E-02	0.000000E+00
3.497268E+03	3.791088E-02	0.000000E+00
3.507203E+03	3.777454E-02	0.000000E+00
3.517139E+03	3.763686E-02	0.000000E+00
3.527074E+03	3.749804E-02	0.000000E+00
3.537009E+03	3.735793E-02	0.000000E+00
3.546945E+03	3.721662E-02	0.000000E+00
3.556880E+03	3.707400E-02	0.000000E+00
3.566816E+03	3.693026E-02	0.000000E+00
3.576751E+03	3.678514E-02	0.000000E+00
3.586687E+03	3.663883E-02	0.000000E+00
3.596622E+03	3.649128E-02	0.000000E+00
3.606557E+03	3.634233E-02	0.000000E+00
3.616493E+03	3.619198E-02	0.000000E+00
3.626428E+03	3.604028E-02	0.000000E+00
3.636364E+03	3.588696E-02	0.000000E+00
3.646299E+03	3.573211E-02	0.000000E+00
3.656234E+03	3.557558E-02	0.000000E+00
3.666170E+03	3.541718E-02	0.000000E+00
3.676105E+03	3.525673E-02	0.000000E+00
3.686041E+03	3.509437E-02	0.000000E+00
3.695976E+03	3.492967E-02	0.000000E+00
3.705912E+03	3.476280E-02	0.000000E+00
3.715847E+03	3.459345E-02	0.000000E+00
3.725782E+03	3.442168E-02	0.000000E+00
3.735718E+03	3.424737E-02	0.000000E+00
3.745653E+03	3.407063E-02	0.000000E+00
3.755589E+03	3.389126E-02	0.000000E+00
3.765524E+03	3.370967E-02	0.000000E+00
3.775460E+03	3.352561E-02	0.000000E+00
3.785395E+03	3.333944E-02	0.000000E+00
3.795330E+03	3.315131E-02	0.000000E+00
3.805266E+03	3.296130E-02	0.000000E+00
3.815201E+03	3.276973E-02	0.000000E+00
3.825137E+03	3.257686E-02	0.000000E+00
3.835072E+03	3.238307E-02	0.000000E+00
3.845007E+03	3.218840E-02	0.000000E+00
3.854943E+03	3.199352E-02	0.000000E+00
3.864878E+03	3.179850E-02	0.000000E+00
3.874814E+03	3.160392E-02	0.000000E+00
3.884749E+03	3.140997E-02	0.000000E+00
3.894685E+03	3.121709E-02	0.000000E+00
3.904620E+03	3.102556E-02	0.000000E+00
3.914555E+03	3.083579E-02	0.000000E+00
3.924491E+03	3.064788E-02	0.000000E+00
3.934426E+03	3.046229E-02	0.000000E+00
3.944362E+03	3.027903E-02	0.000000E+00
3.954297E+03	3.009832E-02	0.000000E+00
3.964232E+03	2.992021E-02	0.000000E+00
3.974168E+03	2.974479E-02	0.000000E+00
3.984103E+03	2.957188E-02	0.000000E+00
3.994039E+03	2.940145E-02	0.000000E+00
4.003974E+03	2.923344E-02	0.000000E+00
4.013910E+03	2.906760E-02	0.000000E+00
4.023845E+03	2.890355E-02	0.000000E+00
4.033780E+03	2.874123E-02	0.000000E+00
4.043716E+03	2.858022E-02	0.000000E+00
4.053651E+03	2.842034E-02	0.000000E+00
4.063587E+03	2.826118E-02	0.000000E+00
4.073522E+03	2.810276E-02	0.000000E+00
4.083458E+03	2.794466E-02	0.000000E+00
4.093393E+03	2.778688E-02	0.000000E+00
4.103328E+03	2.762950E-02	0.000000E+00
4.113264E+03	2.747231E-02	0.000000E+00
4.123199E+03	2.731556E-02	0.000000E+00
4.133135E+03	2.715941E-02	0.000000E+00
4.143070E+03	2.700401E-02	0.000000E+00
4.153005E+03	2.684964E-02	0.000000E+00
4.162941E+03	2.669666E-02	0.000000E+00
4.172876E+03	2.654514E-02	0.000000E+00
4.182812E+03	2.639546E-02	0.000000E+00
4.192747E+03	2.624792E-02	0.000000E+00
4.202683E+03	2.610259E-02	0.000000E+00
4.212618E+03	2.595968E-02	0.000000E+00
4.222553E+03	2.581901E-02	0.000000E+00
4.232489E+03	2.568071E-02	0.000000E+00
4.242424E+03	2.554466E-02	0.000000E+00
4.252360E+03	2.541035E-02	0.000000E+00
4.262295E+03	2.527782E-02	0.000000E+00
4.272231E+03	2.514653E-02	0.000000E+00
4.282166E+03	2.501630E-02	0.000000E+00
4.292101E+03	2.488690E-02	0.000000E+00
4.302037E+03	2.475794E-02	0.000000E+00
4.311972E+03	2.462930E-02	0.000000E+00
4.321908E+03	2.450095E-02	0.000000E+00
4.331843E+03	2.437279E-02	0.000000E+00
4.341778E+03	2.424494E-02	0.000000E+00
4.351714E+03	2.411760E-02	0.000000E+00
4.361649E+03	2.399107E-02	0.000000E+00
4.371585E+03	2.386534E-02	0.000000E+00
4.381520E+03	2.374077E-02	0.000000E+00
4.391456E+03	2.361737E-02	0.000000E+00
4.401391E+03	2.349530E-02	0.000000E+00
4.411326E+03	2.337473E-02	0.000000E+00
4.421262E+03	2.325571E-02	0.000000E+00
4.431197E+03	2.313844E-02	0.000000E+00
4.441133E+03	2.302283E-02	0.000000E+00
4.451068E+03	2.290893E-02	0.000000E+00
4.461003E+03	2.279682E-02	0.000000E+00
4.470939E+03	2.268653E-02	0.000000E+00
4.480874E+03	2.257787E-02	0.000000E+00
4.490810E+03	2.247088E-02	0.000000E+00
4.500745E+03	2.236548E-02	0.000000E+00
4.510681E+03	2.226145E-02	0.000000E+00
4.520616E+03	2.215885E-02	0.000000E+00
4.530551E+03	2.205732E-02	0.000000E+00
4.540487E+03	2.195676E-02	0.000000E+00
4.550422E+03	2.185684E-02	0.000000E+00
4.560358E+03	2.175718E-02	0.000000E+00
4.570293E+03	2.165772E-02	0.000000E+00
4.580229E+03	2.155796E-02	0.000000E+00
4.590164E+03	2.145730E-02	0.000000E+00
4.600099E+03	2.135543E-02	0.000000E+00
4.610035E+03	2.125248E-02	0.000000E+00
4.619970E+03	2.114864E-02	0.000000E+00
4.629906E+03	2.104440E-02	0.000000E+00
4.639841E+03	2.094031E-02	0.000000E+00
4.649776E+03	2.083653E-02	0.000000E+00
4.659712E+03	2.073337E-02	0.000000E+00
4.669647E+03	2.063149E-02	0.000000E+00
4.679583E+03	2.053084E-02	0.000000E+00
4.689518E+03	2.043196E-02	0.000000E+00
4.699454E+03	2.033510E-02	0.000000E+00
4.709389E+03	2.024049E-02	0.000000E+00
4.719324E+03	2.014834E-02	0.000000E+00
4.729260E+03	2.005879E-02	0.000000E+00
4.739195E+03	1.997196E-02	0.000000E+00
4.749131E+03	1.988774E-02	0.000000E+00
4.759066E+03	1.980610E-02	0.000000E+00
4.769001E+03	1.972695E-02	0.000000E+00
4.778937E+03	1.965014E-02	0.000000E+00
4.788872E+03	1.957516E-02	0.000000E+00
4.798808E+03	1.950189E-02	0.000000E+00
4.808743E+03	1.942992E-02	0.000000E+00
4.818679E+03	1.935894E-02	0.000000E+00
4.828614E+03	1.928848E-02	0.000000E+00
4.838549E+03	1.921828E-02	0.000000E+00
4.848485E+03	1.914806E-02	0.000000E+00
4.858420E+03	1.907745E-02	0.000000E+00
4.868356E+03	1.900612E-02	0.000000E+00
4.878291E+03	1.893408E-02	0.000000E+00
4.888227E+03	1.886097E-02	0.000000E+00
4.898162E+03	1.878688E-02	0.000000E+00
4.908097E+03	1.871155E-02	0.000000E+00
4.918033E+03	1.863519E-02	0.000000E+00
4.927968E+03	1.855788E-02	0.000000E+00
4.937904E+03	1.847946E-02	0.000000E+00
4.947839E+03	1.840005E-02	0.000000E+00
4.957774E+03	1.831981E-02	0.000000E+00
4.967710E+03	1.823888E-02	0.000000E+00
4.977645E+03	1.815726E-02	0.000000E+00
4.987581E+03	1.807508E-02	0.000000E+00
4.997516E+03	1.799231E-02	0.000000E+00
5.007452E+03	1.790903E-02	0.000000E+00
5.017387E+03	1.782548E-02	0.000000E+00
5.027322E+03	1.774126E-02	0.000000E+00
5.037258E+03	1.765671E-02	0.000000E+00
5.047193E+03	1.757156E-02	0.000000E+00
5.057129E+03	1.748600E-02	0.000000E+00
5.067064E+03	1.739991E-02	0.000000E+00
5.077000E+03	1.731317E-02	0.000000E+00
5.086935E+03	1.722601E-02	0.000000E+00
5.096870E+03	1.713838E-02	0.000000E+00
5.106806E+03	1.705038E-02	0.000000E+00
5.116741E+03	1.696202E-02	0.000000E+00
5.126677E+03	1.687349E-02	0.000000E+00
5.136612E+03	1.678517E-02	0.000000E+00
5.146547E+03	1.669688E-02	0.000000E+00
5.156483E+03	1.660919E-02	0.000000E+00
5.166418E+03	1.652230E-02	0.000000E+00
5.176354E+03	1.643656E-02	0.000000E+00
5.186289E+03	1.635218E-02	0.000000E+00
5.196225E+03	1.626957E-02	0.000000E+00
5.206160E+03	1.618909E-02	0.000000E+00
5.216095E+03	1.611115E-02	0.000000E+00
5.226031E+03	1.603596E-02	0.000000E+00
5.235966E+03	1.596402E-02	0.000000E+00
5.245902E+03	1.589534E-02	0.000000E+00
5.255837E+03	1.583030E-02	0.000000E+00
5.265772E+03	1.576923E-02	0.000000E+00
5.275708E+03	1.571191E-02	0.000000E+00
5.285643E+03	1.565847E-02	0.000000E+00
5.295579E+03	1.560862E-02	0.000000E+00
5.305514E+03	1.556243E-02	0.000000E+00
5.315450E+03	1.551956E-02	0.000000E+00
5.325385E+03	1.547937E-02	0.000000E+00
5.335320E+03	1.544164E-02	0.000000E+00
5.345256E+03	1.540592E-02	0.000000E+00
5.355191E+03	1.537140E-02	0.000000E+00
5.365127E+03	1.533743E-02	0.000000E+00
5.375062E+03	1.530324E-02	0.000000E+00
5.384998E+03	1.526750E-02	0.000000E+00
5.394933E+03	1.522827E-02	0.000000E+00
5.404868E+03	1.518478E-02	0.000000E+00
5.414804E+03	1.513792E-02	0.000000E+00
5.424739E+03	1.508824E-02	0.000000E+00
5.434675E+03	1.503652E-02	0.000000E+00
5.444610E+03	1.498397E-02	0.000000E+00
5.454545E+03	1.493188E-02	0.000000E+00
5.464481E+03	1.488162E-02	0.000000E+00
5.474416E+03	1.483230E-02	0.000000E+00
5.484352E+03	1.478311E-02	0.000000E+00
5.494287E+03	1.473401E-02	0.000000E+00
5.504223E+03	1.468482E-02	0.000000E+00
5.514158E+03	1.463550E-02	0.000000E+00
5.524093E+03	1.458649E-02	0.000000E+00
5.534029E+03	1.453793E-02	0.000000E+00
5.543964E+03	1.448974E-02	0.000000E+00
5.553900E+03	1.444203E-02	0.000000E+00
5.563835E+03	1.439485E-02	0.000000E+00
5.573770E+03	1.434787E-02	0.000000E+00
5.583706E+03	1.430098E-02	0.000000E+00
5.593641E+03	1.425393E-02	0.000000E+00
5.603577E+03	1.420658E-02	0.000000E+00
5.613512E+03	1.415870E-02	0.000000E+00
5.623448E+03	1.411006E-02	0.000000E+00
5.633383E+03	1.406051E-02	0.000000E+00
5.643318E+03	1.401029E-02	0.000000E+00
5.653254E+03	1.395920E-02	0.000000E+00
5.663189E+03	1.390728E-02	0.000000E+00
5.673125E+03	1.385481E-02	0.000000E+00
5.683060E+03	1.380191E-02	0.000000E+00
5.692996E+03	1.374892E-02	0.000000E+00
5.702931E+03	1.369587E-02	0.000000E+00
5.712866E+03	1.364307E-02	0.000000E+00
5.722802E+03	1.359083E-02	0.000000E+00
5.732737E+03	1.353913E-02	0.000000E+00
5.742673E+03	1.348800E-02	0.000000E+00
5.752608E+03	1.343781E-02	0.000000E+00
5.762543E+03	1.338835E-02	0.000000E+00
5.772479E+03	1.333971E-02	0.000000E+00
5.782414E+03	1.329162E-02	0.000000E+00
5.792350E+03	1.324425E-02	0.000000E+00
5.802285E+03	1.319711E-02	0.000000E+00
5.812221E+03	1.315034E-02	0.000000E+00
5.822156E+03	1.310378E-02	0.000000E+00
5.832091E+03	1.305725E-02	0.000000E+00
5.842027E+03	1.301061E-02	0.000000E+00
5.851962E+03	1.296373E-02	0.000000E+00
5.861898E+03	1.291648E-02	0.000000E+00
5.871833E+03	1.286911E-02	0.000000E+00
5.881769E+03	1.282123E-02	0.000000E+00
5.891704E+03	1.277296E-02	0.000000E+00
5.901639E+03	1.272443E-02	0.000000E+00
5.911575E+03	1.267531E-02	0.000000E+00
5.921510E+03	1.262610E-02	0.000000E+00
5.931446E+03	1.257652E-02	0.000000E+00
5.941381E+03	1.252677E-02	0.000000E+00
5.951316E+03	1.247674E-02	0.000000E+00
5.961252E+03	1.242683E-02	0.000000E+00
5.971187E+03	1.237697E-02	0.000000E+00
5.981123E+03	1.232742E-02	0.000000E+00
5.991058E+03	1.227795E-02	0.000000E+00
6.000994E+03	1.222917E-02	0.000000E+00
6.010929E+03	1.218085E-02	0.000000E+00
6.020864E+03	1.213327E-02	0.000000E+00
6.030800E+03	1.208655E-02	0.000000E+00
6.040735E+03	1.204076E-02	0.000000E+00
6.050671E+03	1.199602E-02	0.000000E+00
6.060606E+03	1.195258E-02	0.000000E+00
6.070541E+03	1.191050E-02	0.000000E+00
6.080477E+03	1.186970E-02	0.000000E+00
6.090412E+03	1.183022E-02	0.000000E+00
6.100348E+03	1.179194E-02	0.000000E+00
6.110283E+03	1.175491E-02	0.000000E+00
6.120219E+03	1.171881E-02	0.000000E+00
6.130154E+03	1.168368E-02	0.000000E+00
6.140089E+03	1.164936E-02	0.000000E+00
6.150025E+03	1.161587E-02	0.000000E+00
6.159960E+03	1.158304E-02	0.000000E+00
6.169896E+03	1.155086E-02	0.000000E+00
6.179831E+03	1.151916E-02	0.000000E+00
6.189767E+03	1.148791E-02	0.000000E+00
6.199702E+03	1.145709E-02	0.000000E+00
6.209637E+03	1.142648E-02	0.000000E+00
6.219573E+03	1.139623E-02	0.000000E+00
6.229508E+03	1.136609E-02	0.000000E+00
6.239444E+03	1.133619E-02	0.000000E+00
6.249379E+03	1.130615E-02	0.000000E+00
6.259314E+03	1.127624E-02	0.000000E+00
6.269250E+03	1.124610E-02	0.000000E+00
6.279185E+03	1.121585E-02	0.000000E+00
6.289121E+03	1.118550E-02	0.000000E+00
6.299056E+03	1.115488E-02	0.000000E+00
6.308992E+03	1.112418E-02	0.000000E+00
6.318927E+03	1.109331E-02	0.000000E+00
6.328862E+03	1.106252E-02	0.000000E+00
6.338798E+03	1.103192E-02	0.000000E+00
6.348733E+03	1.100163E-02	0.000000E+00
6.358669E+03	1.097164E-02	0.000000E+00
6.368604E+03	1.094264E-02	0.000000E+00
6.378539E+03	1.091444E-02	0.000000E+00
6.388475E+03	1.088739E-02	0.000000E+00
6.398410E+03	1.086181E-02	0.000000E+00
6.408346E+03	1.083782E-02	0.000000E+00
6.418281E+03	1.081552E-02	0.000000E+00
6.428217E+03	1.079496E-02	0.000000E+00
6.438152E+03	1.077631E-02	0.000000E+00
6.448087E+03	1.075972E-02	0.000000E+00
6.458023E+03	1.074470E-02	0.000000E+00
6.467958E+03	1.073147E-02	0.000000E+00
6.477894E+03	1.071962E-02	0.000000E+00
6.487829E+03	1.070909E-02	0.000000E+00
6.497765E+03	1.069975E-02	0.000000E+00
6.507700E+03	1.069091E-02	0.000000E+00
6.517635E+03	1.068237E-02	0.000000E+00
6.527571E+03	1.067379E-02	0.000000E+00
6.537506E+03	1.066481E-02	0.000000E+00
6.547442E+03	1.065525E-02	0.000000E+00
6.557377E+03	1.064461E-02	0.000000E+00
6.567312E+03	1.063261E-02	0.000000E+00
6.577248E+03	1.061920E-02	0.000000E+00
6.587183E+03	1.060401E-02	0.000000E+00
6.597119E+03	1.058709E-02	0.000000E+00
6.607054E+03	1.056816E-02	0.000000E+00
6.616990E+03	1.054720E-02	0.000000E+00
6.626925E+03	1.052419E-02	0.000000E+00
6.636860E+03	1.049937E-02	0.000000E+00
6.646796E+03	1.047262E-02	0.000000E+00
6.656731E+03	1.044404E-02	0.000000E+00
6.666667E+03	1.041392E-02	0.000000E+00
6.676602E+03	1.038219E-02	0.000000E+00
6.686538E+03	1.034899E-02	0.000000E+00
6.696473E+03	1.031444E-02	0.000000E+00
6.706408E+03	1.027868E-02	0.000000E+00
6.716344E+03	1.024186E-02	0.000000E+00
6.726279E+03	1.020413E-02	0.000000E+00
6.736215E+03	1.016582E-02	0.000000E+00
6.746150E+03	1.012671E-02	0.000000E+00
6.756085E+03	1.008712E-02	0.000000E+00
6.766021E+03	1.004701E-02	0.000000E+00
6.775956E+03	1.000694E-02	0.000000E+00
6.785892E+03	9.966659E-03	0.000000E+00
6.795827E+03	9.926487E-03	0.000000E+00
6.805763E+03	9.886386E-03	0.000000E+00
6.815698E+03	9.846667E-03	0.000000E+00
6.825633E+03	9.807246E-03	0.000000E+00
6.835569E+03	9.768434E-03	0.000000E+00
6.845504E+03	9.730114E-03	0.000000E+00
6.855440E+03	9.692568E-03	0.000000E+00
6.865375E+03	9.655451E-03	0.000000E+00
6.875310E+03	9.619218E-03	0.000000E+00
6.885246E+03	9.583696E-03	0.000000E+00
6.895181E+03	9.548908E-03	0.000000E+00
6.905117E+03	9.515050E-03	0.000000E+00
6.915052E+03	9.481715E-03	0.000000E+00
6.924988E+03	9.449092E-03	0.000000E+00
6.934923E+03	9.417125E-03	0.000000E+00
6.944858E+03	9.385588E-03	0.000000E+00
6.954794E+03	9.354832E-03	0.000000E+00
6.964729E+03	9.324381E-03	0.000000E+00
6.974665E+03	9.294172E-03	0.000000E+00
6.984600E+03	9.264346E-03	0.000000E+00
6.994536E+03	9.234832E-03	0.000000E+00
7.004471E+03	9.205343E-03	0.000000E+00
7.014406E+03	9.176017E-03	0.000000E+00
7.024342E+03	9.146589E-03	0.000000E+00
7.034277E+03	9.116998E-03	0.000000E+00
7.044213E+03	9.087179E-03	0.000000E+00
7.054148E+03	9.057096E-03	0.000000E+00
7.064083E+03	9.026895E-03	0.000000E+00
7.074019E+03	8.996350E-03	0.000000E+00
7.083954E+03	8.965219E-03	0.000000E+00
7.093890E+03	8.933900E-03	0.000000E+00
7.103825E+03	8.901965E-03	0.000000E+00
7.113761E+03	8.869622E-03	0.000000E+00
7.123696E+03	8.836874E-03	0.000000E+00
7.133631E+03	8.803735E-03	0.000000E+00
7.143567E+03	8.770010E-03	0.000000E+00
7.153502E+03	8.735933E-03	0.000000E+00
7.163438E+03	8.701528E-03	0.000000E+00
7.173373E+03	8.666639E-03	0.000000E+00
7.183308E+03	8.631507E-03	0.000000E+00
7.193244E+03	8.595766E-03	0.000000E+00
7.203179E+03	8.560071E-03	0.000000E+00
7.213115E+03	8.524065E-03	0.000000E+00
7.223050E+03	8.487800E-03	0.000000E+00
7.232986E+03	8.451340E-03	0.000000E+00
7.242921E+03	8.414724E-03	0.000000E+00
7.252856E+03	8.378224E-03	0.000000E+00
7.262792E+03	8.341686E-03	0.000000E+00
7.272727E+03	8.304976E-03	0.000000E+00
7.282663E+03	8.268547E-03	0.000000E+00
7.292598E+03	8.232259E-03	0.000000E+00
7.302534E+03	8.196159E-03	0.000000E+00
7.312469E+03	8.160316E-03	0.000000E+00
7.322404E+03	8.124762E-03	0.000000E+00
7.332340E+03	8.089349E-03	0.000000E+00
7.342275E+03	8.054515E-03	0.000000E+00
7.352211E+03	8.020102E-03	0.000000E+00
7.362146E+03	7.985923E-03	0.000000E+00
7.372081E+03	7.952401E-03	0.000000E+00
7.382017E+03	7.919364E-03	0.000000E+00
7.391952E+03	7.886615E-03	0.000000E+00
7.401888E+03	7.854570E-03	0.000000E+00
7.411823E+03	7.823221E-03	0.000000E+00
7.421759E+03	7.792174E-03	0.000000E+00
7.431694E+03	7.762033E-03	0.000000E+00
7.441629E+03	7.732196E-03	0.000000E+00
7.451565E+03	7.703064E-03	0.000000E+00
7.461500E+03	7.674237E-03	0.000000E+00
7.471436E+03	7.646317E-03	0.000000E+00
7.481371E+03	7.618705E-03	0.000000E+00
7.491307E+03	7.591807E-03	0.000000E+00
7.501242E+03	7.565427E-03	0.000000E+00
7.511177E+03	7.539571E-03	0.000000E+00
7.521113E+03	7.514244E-03	0.000000E+00
7.531048E+03	7.489654E-03	0.000000E+00
7.540984E+03	7.465607E-03	0.000000E+00
7.550919E+03	7.442108E-03	0.000000E+00
7.560854E+03	7.419365E-03	0.000000E+00
7.570790E+03	7.397180E-03	0.000000E+00
7.580725E+03	7.375558E-03	0.000000E+00
7.590661E+03	7.354499E-03	0.000000E+00
7.600596E+03	7.334203E-03	0.000000E+00
7.610532E+03	7.314466E-03	0.000000E+00
7.620467E+03	7.295484E-03	0.000000E+00
7.630402E+03	7.276844E-03	0.000000E+00
7.640338E+03	7.258935E-03	0.000000E+00
7.650273E+03	7.241741E-03	0.000000E+00
7.660209E+03	7.224833E-03	0.000000E+00
7.670144E+03	7.208588E-03	0.000000E+00
7.680079E+03	7.192977E-03	0.000000E+00
7.690015E+03	7.177551E-03	0.000000E+00
7.699950E+03	7.162680E-03	0.000000E+00
7.709886E+03	7.148113E-03	0.000000E+00
