#wls	flux	fluxerr
1.589667E+03	1.486261E-04	5.660740E-06
1.629409E+03	1.506173E-04	5.725712E-06
1.669151E+03	1.527298E-04	5.794714E-06
1.708892E+03	1.550895E-04	5.872468E-06
1.748634E+03	1.577022E-04	5.959122E-06
1.788376E+03	1.605101E-04	6.052412E-06
1.828117E+03	1.635813E-04	6.154832E-06
1.867859E+03	1.669215E-04	6.266508E-06
1.907601E+03	1.704708E-04	6.385100E-06
1.947342E+03	1.744329E-04	6.518133E-06
1.987084E+03	1.786157E-04	6.658311E-06
2.026826E+03	1.832275E-04	6.813279E-06
2.066567E+03	1.881404E-04	6.978140E-06
2.106309E+03	1.934297E-04	7.155548E-06
2.146051E+03	1.991027E-04	7.345624E-06
2.185792E+03	2.052384E-04	7.551109E-06
2.225534E+03	2.117734E-04	7.769486E-06
2.265276E+03	2.187874E-04	8.003484E-06
2.305017E+03	2.262884E-04	8.253186E-06
2.344759E+03	2.342838E-04	8.518635E-06
2.384501E+03	2.428560E-04	8.802576E-06
2.424242E+03	2.518591E-04	9.099469E-06
2.463984E+03	2.615277E-04	9.417530E-06
2.503726E+03	2.717124E-04	9.751069E-06
2.543467E+03	2.825730E-04	1.010552E-05
2.583209E+03	2.941934E-04	1.048351E-05
2.622951E+03	3.064966E-04	1.088192E-05
2.662692E+03	3.196451E-04	1.130612E-05
2.702434E+03	3.336392E-04	1.175564E-05
2.742176E+03	3.485588E-04	1.223281E-05
2.781918E+03	3.645666E-04	1.274279E-05
2.821659E+03	3.815709E-04	1.328177E-05
2.861401E+03	3.998990E-04	1.386051E-05
2.901143E+03	4.193648E-04	1.447181E-05
2.940884E+03	4.403752E-04	1.512894E-05
2.980626E+03	4.628164E-04	1.582710E-05
2.990561E+03	4.686541E-04	1.600808E-05
3.000497E+03	4.746598E-04	1.619423E-05
3.010432E+03	4.807458E-04	1.638254E-05
3.020368E+03	4.869111E-04	1.657297E-05
3.030303E+03	4.932424E-04	1.676845E-05
3.040238E+03	4.996515E-04	1.696596E-05
3.050174E+03	5.061372E-04	1.716544E-05
3.060109E+03	5.127864E-04	1.736983E-05
3.070045E+03	5.195980E-04	1.757907E-05
3.079980E+03	5.264834E-04	1.779013E-05
3.089916E+03	5.335290E-04	1.800592E-05
3.099851E+03	5.407340E-04	1.822638E-05
3.109786E+03	5.480088E-04	1.844849E-05
3.119722E+03	5.554403E-04	1.867514E-05
3.129657E+03	5.630271E-04	1.890626E-05
3.139593E+03	5.707676E-04	1.914178E-05
3.149528E+03	5.786606E-04	1.938163E-05
3.159463E+03	5.867042E-04	1.962573E-05
3.169399E+03	5.948966E-04	1.987398E-05
3.179334E+03	6.031477E-04	2.012336E-05
3.189270E+03	6.117209E-04	2.038264E-05
3.199205E+03	6.203487E-04	2.064286E-05
3.209141E+03	6.292062E-04	2.090983E-05
3.219076E+03	6.381138E-04	2.117755E-05
3.229011E+03	6.473350E-04	2.145475E-05
3.238947E+03	6.566902E-04	2.173543E-05
3.248882E+03	6.661768E-04	2.201948E-05
3.258818E+03	6.758807E-04	2.230972E-05
3.268753E+03	6.857990E-04	2.260602E-05
3.278689E+03	6.958402E-04	2.290532E-05
3.288624E+03	7.060897E-04	2.321042E-05
3.298559E+03	7.165444E-04	2.352117E-05
3.308495E+03	7.272006E-04	2.383742E-05
3.318430E+03	7.380552E-04	2.415903E-05
3.328366E+03	7.491924E-04	2.448873E-05
3.338301E+03	7.604314E-04	2.482057E-05
3.348236E+03	7.719455E-04	2.516017E-05
3.358172E+03	7.836417E-04	2.550446E-05
3.368107E+03	7.956032E-04	2.585611E-05
3.378043E+03	8.078266E-04	2.621496E-05
3.387978E+03	8.202181E-04	2.657795E-05
3.397914E+03	8.328603E-04	2.694770E-05
3.407849E+03	8.457490E-04	2.732403E-05
3.417784E+03	8.588786E-04	2.770672E-05
3.427720E+03	8.722427E-04	2.809553E-05
3.437655E+03	8.858357E-04	2.849024E-05
3.447591E+03	8.997389E-04	2.889340E-05
3.457526E+03	9.139451E-04	2.930474E-05
3.467462E+03	9.283620E-04	2.972125E-05
3.477397E+03	9.429819E-04	3.014264E-05
3.487332E+03	9.579712E-04	3.057419E-05
3.497268E+03	9.732355E-04	3.101283E-05
3.507203E+03	9.887676E-04	3.145828E-05
3.517139E+03	1.004560E-03	3.191024E-05
3.527074E+03	1.020689E-03	3.237111E-05
3.537009E+03	1.037063E-03	3.283788E-05
3.546945E+03	1.053841E-03	3.331558E-05
3.556880E+03	1.070845E-03	3.379850E-05
3.566816E+03	1.088150E-03	3.428898E-05
3.576751E+03	1.105747E-03	3.478667E-05
3.586687E+03	1.123711E-03	3.529385E-05
3.596622E+03	1.141947E-03	3.580750E-05
3.606557E+03	1.160530E-03	3.632987E-05
3.616493E+03	1.179446E-03	3.686054E-05
3.626428E+03	1.198687E-03	3.739914E-05
3.636364E+03	1.218240E-03	3.794523E-05
3.646299E+03	1.238095E-03	3.849840E-05
3.656234E+03	1.258321E-03	3.906079E-05
3.666170E+03	1.278825E-03	3.962943E-05
3.676105E+03	1.299677E-03	4.020640E-05
3.686041E+03	1.320864E-03	4.079129E-05
3.695976E+03	1.342374E-03	4.138360E-05
3.705912E+03	1.364193E-03	4.198289E-05
3.715847E+03	1.386391E-03	4.259121E-05
3.725782E+03	1.408872E-03	4.320558E-05
3.735718E+03	1.431705E-03	4.382804E-05
3.745653E+03	1.454874E-03	4.445805E-05
3.755589E+03	1.478289E-03	4.509277E-05
3.765524E+03	1.502094E-03	4.573655E-05
3.775460E+03	1.526274E-03	4.638885E-05
3.785395E+03	1.550660E-03	4.704450E-05
3.795330E+03	1.575473E-03	4.771010E-05
3.805266E+03	1.600542E-03	4.838045E-05
3.815201E+03	1.625934E-03	4.905746E-05
3.825137E+03	1.651634E-03	4.974068E-05
3.835072E+03	1.677629E-03	5.042964E-05
3.845007E+03	1.703907E-03	5.112389E-05
3.854943E+03	1.730531E-03	5.182527E-05
3.864878E+03	1.757488E-03	5.253334E-05
3.874814E+03	1.784691E-03	5.324543E-05
3.884749E+03	1.812203E-03	5.396335E-05
3.894685E+03	1.840013E-03	5.468674E-05
3.904620E+03	1.868183E-03	5.541735E-05
3.914555E+03	1.896557E-03	5.615049E-05
3.924491E+03	1.925197E-03	5.688798E-05
3.934426E+03	1.954167E-03	5.763162E-05
3.944362E+03	1.983386E-03	5.837901E-05
3.954297E+03	2.012847E-03	5.912982E-05
3.964232E+03	2.042613E-03	5.988590E-05
3.974168E+03	2.072678E-03	6.064697E-05
3.984103E+03	2.102965E-03	6.141077E-05
3.994039E+03	2.133470E-03	6.217710E-05
4.003974E+03	2.164327E-03	6.294984E-05
4.013910E+03	2.195327E-03	6.372284E-05
4.023845E+03	2.226605E-03	6.449998E-05
4.033780E+03	2.258159E-03	6.528115E-05
4.043716E+03	2.289922E-03	6.606436E-05
4.053651E+03	2.321962E-03	6.685152E-05
4.063587E+03	2.354213E-03	6.764068E-05
4.073522E+03	2.386680E-03	6.843195E-05
4.083458E+03	2.419367E-03	6.922538E-05
4.093393E+03	2.452279E-03	7.002109E-05
4.103328E+03	2.485423E-03	7.081923E-05
4.113264E+03	2.518742E-03	7.161814E-05
4.123199E+03	2.552247E-03	7.241806E-05
4.133135E+03	2.586010E-03	7.322105E-05
4.143070E+03	2.619978E-03	7.402555E-05
4.153005E+03	2.654104E-03	7.483014E-05
4.162941E+03	2.688399E-03	7.563517E-05
4.172876E+03	2.722941E-03	7.644280E-05
4.182812E+03	2.757563E-03	7.724824E-05
4.192747E+03	2.792465E-03	7.805710E-05
4.202683E+03	2.827422E-03	7.886307E-05
4.212618E+03	2.862634E-03	7.967172E-05
4.222553E+03	2.897943E-03	8.047856E-05
4.232489E+03	2.933429E-03	8.128584E-05
4.242424E+03	2.968997E-03	8.209088E-05
4.252360E+03	3.004728E-03	8.289595E-05
4.262295E+03	3.040590E-03	8.370006E-05
4.272231E+03	3.076490E-03	8.450071E-05
4.282166E+03	3.112570E-03	8.530178E-05
4.292101E+03	3.148683E-03	8.609919E-05
4.302037E+03	3.184915E-03	8.689531E-05
4.311972E+03	3.221234E-03	8.768925E-05
4.321908E+03	3.257556E-03	8.847873E-05
4.331843E+03	3.293964E-03	8.926602E-05
4.341778E+03	3.330376E-03	9.004885E-05
4.351714E+03	3.366763E-03	9.082650E-05
4.361649E+03	3.403210E-03	9.160124E-05
4.371585E+03	3.439578E-03	9.236936E-05
4.381520E+03	3.475951E-03	9.313313E-05
4.391456E+03	3.512246E-03	9.389033E-05
4.401391E+03	3.548491E-03	9.464177E-05
4.411326E+03	3.584549E-03	9.538381E-05
4.421262E+03	3.620502E-03	9.611868E-05
4.431197E+03	3.656323E-03	9.684569E-05
4.441133E+03	3.691873E-03	9.756122E-05
4.451068E+03	3.727287E-03	9.826891E-05
4.461003E+03	3.762483E-03	9.896658E-05
4.470939E+03	3.797429E-03	9.965350E-05
4.480874E+03	3.832202E-03	1.003317E-04
4.490810E+03	3.866772E-03	1.010005E-04
4.500745E+03	3.901158E-03	1.016605E-04
4.510681E+03	3.935329E-03	1.023108E-04
4.520616E+03	3.969303E-03	1.029519E-04
4.530551E+03	4.003097E-03	1.035844E-04
4.540487E+03	4.036678E-03	1.042075E-04
4.550422E+03	4.070113E-03	1.048229E-04
4.560358E+03	4.103366E-03	1.054298E-04
4.570293E+03	4.136450E-03	1.060285E-04
4.580229E+03	4.169327E-03	1.066181E-04
4.590164E+03	4.202115E-03	1.072017E-04
4.600099E+03	4.234720E-03	1.077768E-04
4.610035E+03	4.267153E-03	1.083440E-04
4.619970E+03	4.299476E-03	1.089047E-04
4.629906E+03	4.331699E-03	1.094592E-04
4.639841E+03	4.363777E-03	1.100065E-04
4.649776E+03	4.395771E-03	1.105481E-04
4.659712E+03	4.427634E-03	1.110829E-04
4.669647E+03	4.459425E-03	1.116125E-04
4.679583E+03	4.491150E-03	1.121369E-04
4.689518E+03	4.522812E-03	1.126564E-04
4.699454E+03	4.554417E-03	1.131710E-04
4.709389E+03	4.585966E-03	1.136809E-04
4.719324E+03	4.617464E-03	1.141862E-04
4.729260E+03	4.648911E-03	1.146870E-04
4.739195E+03	4.680362E-03	1.151846E-04
4.749131E+03	4.711765E-03	1.156778E-04
4.759066E+03	4.743226E-03	1.161693E-04
4.769001E+03	4.774639E-03	1.166564E-04
4.778937E+03	4.806163E-03	1.171431E-04
4.788872E+03	4.837692E-03	1.176267E-04
4.798808E+03	4.869329E-03	1.181100E-04
4.808743E+03	4.901128E-03	1.185941E-04
4.818679E+03	4.932980E-03	1.190764E-04
4.828614E+03	4.965043E-03	1.195608E-04
4.838549E+03	4.997207E-03	1.200447E-04
4.848485E+03	5.029578E-03	1.205305E-04
4.858420E+03	5.062044E-03	1.210157E-04
4.868356E+03	5.094764E-03	1.215041E-04
4.878291E+03	5.127572E-03	1.219916E-04
4.888227E+03	5.160626E-03	1.224821E-04
4.898162E+03	5.193814E-03	1.229730E-04
4.908097E+03	5.227128E-03	1.234640E-04
4.918033E+03	5.260675E-03	1.239577E-04
4.927968E+03	5.294337E-03	1.244514E-04
4.937904E+03	5.328220E-03	1.249476E-04
4.947839E+03	5.362261E-03	1.254448E-04
4.957774E+03	5.396395E-03	1.259416E-04
4.967710E+03	5.430730E-03	1.264404E-04
4.977645E+03	5.465255E-03	1.269411E-04
4.987581E+03	5.499905E-03	1.274422E-04
4.997516E+03	5.534671E-03	1.279435E-04
5.007452E+03	5.569658E-03	1.284475E-04
5.017387E+03	5.604741E-03	1.289514E-04
5.027322E+03	5.640024E-03	1.294575E-04
5.037258E+03	5.675437E-03	1.299644E-04
5.047193E+03	5.711028E-03	1.304731E-04
5.057129E+03	5.746725E-03	1.309821E-04
5.067064E+03	5.782633E-03	1.314938E-04
5.077000E+03	5.818679E-03	1.320066E-04
5.086935E+03	5.854850E-03	1.325203E-04
5.096870E+03	5.891188E-03	1.330359E-04
5.106806E+03	5.927742E-03	1.335545E-04
5.116741E+03	5.964433E-03	1.340745E-04
5.126677E+03	6.001245E-03	1.345955E-04
5.136612E+03	6.038282E-03	1.351199E-04
5.146547E+03	6.075406E-03	1.356447E-04
5.156483E+03	6.112782E-03	1.361737E-04
5.166418E+03	6.150267E-03	1.367037E-04
5.176354E+03	6.187904E-03	1.372358E-04
5.186289E+03	6.225736E-03	1.377710E-04
5.196225E+03	6.263678E-03	1.383075E-04
5.206160E+03	6.301835E-03	1.388477E-04
5.216095E+03	6.340122E-03	1.393899E-04
5.226031E+03	6.378516E-03	1.399335E-04
5.235966E+03	6.417120E-03	1.404810E-04
5.245902E+03	6.455847E-03	1.410305E-04
5.255837E+03	6.494670E-03	1.415816E-04
5.265772E+03	6.533628E-03	1.421351E-04
5.275708E+03	6.572695E-03	1.426907E-04
5.285643E+03	6.611907E-03	1.432493E-04
5.295579E+03	6.651170E-03	1.438088E-04
5.305514E+03	6.690518E-03	1.443702E-04
5.315450E+03	6.729921E-03	1.449329E-04
5.325385E+03	6.769412E-03	1.454977E-04
5.335320E+03	6.808890E-03	1.460627E-04
5.345256E+03	6.848384E-03	1.466285E-04
5.355191E+03	6.887788E-03	1.471931E-04
5.365127E+03	6.927269E-03	1.477601E-04
5.375062E+03	6.966576E-03	1.483243E-04
5.384998E+03	7.005802E-03	1.488880E-04
5.394933E+03	7.044902E-03	1.494501E-04
5.404868E+03	7.083758E-03	1.500085E-04
5.414804E+03	7.122459E-03	1.505652E-04
5.424739E+03	7.160814E-03	1.511163E-04
5.434675E+03	7.198914E-03	1.516639E-04
5.444610E+03	7.236565E-03	1.522040E-04
5.454545E+03	7.273863E-03	1.527389E-04
5.464481E+03	7.310687E-03	1.532660E-04
5.474416E+03	7.347071E-03	1.537864E-04
5.484352E+03	7.382972E-03	1.542992E-04
5.494287E+03	7.418283E-03	1.548024E-04
5.504223E+03	7.453048E-03	1.552970E-04
5.514158E+03	7.487237E-03	1.557825E-04
5.524093E+03	7.520829E-03	1.562585E-04
5.534029E+03	7.553805E-03	1.567246E-04
5.543964E+03	7.586072E-03	1.571790E-04
5.553900E+03	7.617618E-03	1.576215E-04
5.563835E+03	7.648505E-03	1.580533E-04
5.573770E+03	7.678650E-03	1.584728E-04
5.583706E+03	7.707968E-03	1.588783E-04
5.593641E+03	7.736535E-03	1.592713E-04
5.603577E+03	7.764267E-03	1.596502E-04
5.613512E+03	7.791242E-03	1.600167E-04
5.623448E+03	7.817310E-03	1.603675E-04
5.633383E+03	7.842469E-03	1.607029E-04
5.643318E+03	7.866804E-03	1.610244E-04
5.653254E+03	7.890242E-03	1.613307E-04
5.663189E+03	7.912715E-03	1.616203E-04
5.673125E+03	7.934231E-03	1.618935E-04
5.683060E+03	7.954802E-03	1.621504E-04
5.692996E+03	7.974441E-03	1.623915E-04
5.702931E+03	7.993083E-03	1.626153E-04
5.712866E+03	8.010746E-03	1.628222E-04
5.722802E+03	8.027378E-03	1.630112E-04
5.732737E+03	8.042979E-03	1.631823E-04
5.742673E+03	8.057596E-03	1.633364E-04
5.752608E+03	8.071153E-03	1.634720E-04
5.762543E+03	8.083603E-03	1.635882E-04
5.772479E+03	8.095062E-03	1.636872E-04
5.782414E+03	8.105475E-03	1.637680E-04
5.792350E+03	8.114870E-03	1.638312E-04
5.802285E+03	8.123207E-03	1.638758E-04
5.812221E+03	8.130444E-03	1.639011E-04
5.822156E+03	8.136699E-03	1.639094E-04
5.832091E+03	8.141924E-03	1.638997E-04
5.842027E+03	8.146092E-03	1.638715E-04
5.851962E+03	8.149251E-03	1.638257E-04
5.861898E+03	8.151431E-03	1.637629E-04
5.871833E+03	8.152542E-03	1.636813E-04
5.881769E+03	8.152785E-03	1.635848E-04
5.891704E+03	8.152052E-03	1.634714E-04
5.901639E+03	8.150400E-03	1.633420E-04
5.911575E+03	8.147803E-03	1.631962E-04
5.921510E+03	8.144404E-03	1.630367E-04
5.931446E+03	8.140187E-03	1.628634E-04
5.941381E+03	8.135126E-03	1.626755E-04
5.951316E+03	8.129284E-03	1.624743E-04
5.961252E+03	8.122806E-03	1.622627E-04
5.971187E+03	8.115601E-03	1.620388E-04
5.981123E+03	8.107726E-03	1.618038E-04
5.991058E+03	8.099340E-03	1.615607E-04
6.000994E+03	8.090419E-03	1.613091E-04
6.010929E+03	8.080953E-03	1.610487E-04
6.020864E+03	8.071168E-03	1.607840E-04
6.030800E+03	8.060974E-03	1.605131E-04
6.040735E+03	8.050427E-03	1.602372E-04
6.050671E+03	8.039768E-03	1.599610E-04
6.060606E+03	8.028883E-03	1.596821E-04
6.070541E+03	8.018004E-03	1.594052E-04
6.080477E+03	8.007032E-03	1.591282E-04
6.090412E+03	7.996182E-03	1.588554E-04
6.100348E+03	7.985511E-03	1.585880E-04
6.110283E+03	7.975075E-03	1.583268E-04
6.120219E+03	7.964926E-03	1.580729E-04
6.130154E+03	7.955191E-03	1.578289E-04
6.140089E+03	7.945916E-03	1.575956E-04
6.150025E+03	7.937223E-03	1.573754E-04
6.159960E+03	7.929152E-03	1.571689E-04
6.169896E+03	7.921897E-03	1.569801E-04
6.179831E+03	7.915328E-03	1.568064E-04
6.189767E+03	7.909554E-03	1.566497E-04
6.199702E+03	7.904755E-03	1.565138E-04
6.209637E+03	7.900868E-03	1.563972E-04
6.219573E+03	7.897985E-03	1.563019E-04
6.229508E+03	7.896031E-03	1.562262E-04
6.239444E+03	7.895169E-03	1.561733E-04
6.249379E+03	7.895393E-03	1.561433E-04
6.259314E+03	7.896773E-03	1.561372E-04
6.269250E+03	7.899290E-03	1.561549E-04
6.279185E+03	7.902920E-03	1.561958E-04
6.289121E+03	7.907712E-03	1.562608E-04
6.299056E+03	7.913714E-03	1.563509E-04
6.308992E+03	7.920960E-03	1.564668E-04
6.318927E+03	7.929315E-03	1.566057E-04
6.328862E+03	7.938886E-03	1.567698E-04
6.338798E+03	7.949606E-03	1.569577E-04
6.348733E+03	7.961399E-03	1.571679E-04
6.358669E+03	7.974265E-03	1.574005E-04
6.368604E+03	7.988201E-03	1.576554E-04
6.378539E+03	8.003107E-03	1.579305E-04
6.388475E+03	8.018787E-03	1.582221E-04
6.398410E+03	8.035303E-03	1.585314E-04
6.408346E+03	8.052531E-03	1.588560E-04
6.418281E+03	8.070348E-03	1.591933E-04
6.428217E+03	8.088621E-03	1.595409E-04
6.438152E+03	8.107293E-03	1.598976E-04
6.448087E+03	8.126225E-03	1.602607E-04
6.458023E+03	8.145376E-03	1.606294E-04
6.467958E+03	8.164681E-03	1.610024E-04
6.477894E+03	8.183914E-03	1.613752E-04
6.487829E+03	8.203133E-03	1.617489E-04
6.497765E+03	8.222095E-03	1.621186E-04
6.507700E+03	8.240771E-03	1.624837E-04
6.517635E+03	8.258943E-03	1.628399E-04
6.527571E+03	8.276581E-03	1.631864E-04
6.537506E+03	8.293572E-03	1.635211E-04
6.547442E+03	8.309806E-03	1.638417E-04
6.557377E+03	8.325187E-03	1.641462E-04
6.567312E+03	8.339501E-03	1.644303E-04
6.577248E+03	8.352859E-03	1.646962E-04
6.587183E+03	8.364977E-03	1.649383E-04
6.597119E+03	8.375862E-03	1.651565E-04
6.607054E+03	8.385462E-03	1.653499E-04
6.616990E+03	8.393585E-03	1.655146E-04
6.626925E+03	8.400185E-03	1.656496E-04
6.636860E+03	8.405306E-03	1.657558E-04
6.646796E+03	8.408796E-03	1.658300E-04
6.656731E+03	8.410636E-03	1.658719E-04
6.666667E+03	8.410794E-03	1.658808E-04
6.676602E+03	8.409251E-03	1.658563E-04
6.686538E+03	8.406008E-03	1.657982E-04
6.696473E+03	8.400956E-03	1.657045E-04
6.706408E+03	8.394116E-03	1.655755E-04
6.716344E+03	8.385608E-03	1.654136E-04
6.726279E+03	8.375477E-03	1.652194E-04
6.736215E+03	8.363542E-03	1.649896E-04
6.746150E+03	8.349966E-03	1.647271E-04
6.756085E+03	8.334798E-03	1.644331E-04
6.766021E+03	8.318115E-03	1.641088E-04
6.775956E+03	8.299975E-03	1.637556E-04
6.785892E+03	8.280349E-03	1.633727E-04
6.795827E+03	8.259431E-03	1.629639E-04
6.805763E+03	8.237208E-03	1.625291E-04
6.815698E+03	8.213755E-03	1.620695E-04
6.825633E+03	8.189177E-03	1.615874E-04
6.835569E+03	8.163564E-03	1.610844E-04
6.845504E+03	8.137119E-03	1.605645E-04
6.855440E+03	8.109739E-03	1.600257E-04
6.865375E+03	8.081507E-03	1.594696E-04
6.875310E+03	8.052741E-03	1.589025E-04
6.885246E+03	8.023334E-03	1.583223E-04
6.895181E+03	7.993366E-03	1.577305E-04
6.905117E+03	7.962934E-03	1.571290E-04
6.915052E+03	7.932238E-03	1.565219E-04
6.924988E+03	7.901263E-03	1.559087E-04
6.934923E+03	7.870094E-03	1.552912E-04
6.944858E+03	7.838806E-03	1.546709E-04
6.954794E+03	7.807480E-03	1.540493E-04
6.964729E+03	7.776082E-03	1.534258E-04
6.974665E+03	7.744788E-03	1.528039E-04
6.984600E+03	7.713663E-03	1.521849E-04
6.994536E+03	7.682661E-03	1.515679E-04
7.004471E+03	7.651945E-03	1.509561E-04
7.014406E+03	7.621459E-03	1.503484E-04
7.024342E+03	7.591251E-03	1.497458E-04
7.034277E+03	7.561365E-03	1.491491E-04
7.044213E+03	7.531944E-03	1.485613E-04
7.054148E+03	7.502813E-03	1.479788E-04
7.064083E+03	7.474212E-03	1.474065E-04
7.074019E+03	7.445957E-03	1.468407E-04
7.083954E+03	7.418177E-03	1.462840E-04
7.093890E+03	7.390891E-03	1.457368E-04
7.103825E+03	7.364011E-03	1.451973E-04
7.113761E+03	7.337654E-03	1.446680E-04
7.123696E+03	7.311724E-03	1.441470E-04
7.133631E+03	7.286336E-03	1.436365E-04
7.143567E+03	7.261388E-03	1.431346E-04
7.153502E+03	7.236987E-03	1.426433E-04
7.163438E+03	7.212925E-03	1.421588E-04
7.173373E+03	7.189409E-03	1.416850E-04
7.183308E+03	7.166331E-03	1.412198E-04
7.193244E+03	7.143685E-03	1.407633E-04
7.203179E+03	7.121466E-03	1.403152E-04
7.213115E+03	7.099665E-03	1.398756E-04
7.223050E+03	7.078273E-03	1.394442E-04
7.232986E+03	7.057282E-03	1.390209E-04
7.242921E+03	7.036681E-03	1.386056E-04
7.252856E+03	7.016354E-03	1.381961E-04
7.262792E+03	6.996394E-03	1.377941E-04
7.272727E+03	6.976790E-03	1.373995E-04
7.282663E+03	6.957527E-03	1.370122E-04
7.292598E+03	6.938492E-03	1.366298E-04
7.302534E+03	6.919774E-03	1.362542E-04
7.312469E+03	6.901259E-03	1.358833E-04
7.322404E+03	6.883036E-03	1.355187E-04
7.332340E+03	6.865094E-03	1.351604E-04
7.342275E+03	6.847214E-03	1.348041E-04
7.352211E+03	6.829694E-03	1.344558E-04
7.362146E+03	6.812212E-03	1.341090E-04
7.372081E+03	6.794963E-03	1.337678E-04
7.382017E+03	6.777833E-03	1.334299E-04
7.391952E+03	6.760913E-03	1.330973E-04
7.401888E+03	6.743987E-03	1.327656E-04
7.411823E+03	6.727251E-03	1.324389E-04
7.421759E+03	6.710486E-03	1.321129E-04
7.431694E+03	6.693891E-03	1.317915E-04
7.441629E+03	6.677455E-03	1.314746E-04
7.451565E+03	6.660961E-03	1.311580E-04
7.461500E+03	6.644607E-03	1.308456E-04
7.471436E+03	6.628279E-03	1.305354E-04
7.481371E+03	6.611968E-03	1.302271E-04
7.491307E+03	6.595767E-03	1.299227E-04
7.501242E+03	6.579668E-03	1.296221E-04
7.511177E+03	6.563557E-03	1.293231E-04
7.521113E+03	6.547632E-03	1.290296E-04
7.531048E+03	6.531675E-03	1.287375E-04
7.540984E+03	6.515781E-03	1.284487E-04
7.550919E+03	6.500044E-03	1.281651E-04
7.560854E+03	6.484350E-03	1.278846E-04
7.570790E+03	6.468687E-03	1.276069E-04
7.580725E+03	6.453151E-03	1.273341E-04
7.590661E+03	6.437626E-03	1.270639E-04
7.600596E+03	6.422206E-03	1.267982E-04
7.610532E+03	6.406881E-03	1.265370E-04
7.620467E+03	6.391534E-03	1.262780E-04
7.630402E+03	6.376260E-03	1.260230E-04
7.640338E+03	6.361153E-03	1.257742E-04
7.650273E+03	6.345992E-03	1.255271E-04
7.660209E+03	6.330870E-03	1.252838E-04
7.670144E+03	6.315884E-03	1.250461E-04
7.680079E+03	6.300811E-03	1.248097E-04
7.690015E+03	6.285957E-03	1.245808E-04
7.699950E+03	6.270995E-03	1.243530E-04
7.709886E+03	6.256129E-03	1.241304E-04
