#wls	flux	fluxerr
1.600000E+03	1.132810E-19	8.959320E-20
1.640000E+03	1.138107E-19	8.976967E-20
1.680000E+03	1.143868E-19	8.995849E-20
1.720000E+03	1.150127E-19	9.016000E-20
1.760000E+03	1.156923E-19	9.037445E-20
1.800000E+03	1.164296E-19	9.060200E-20
1.840000E+03	1.172288E-19	9.084268E-20
1.880000E+03	1.180944E-19	9.109639E-20
1.920000E+03	1.190312E-19	9.136281E-20
1.960000E+03	1.200442E-19	9.164142E-20
2.000000E+03	1.211388E-19	9.193137E-20
2.040000E+03	1.223204E-19	9.223152E-20
2.080000E+03	1.235948E-19	9.254027E-20
2.120000E+03	1.249681E-19	9.285555E-20
2.160000E+03	1.264462E-19	9.317467E-20
2.200000E+03	1.280355E-19	9.349425E-20
2.240000E+03	1.297422E-19	9.381006E-20
2.280000E+03	1.315725E-19	9.411685E-20
2.320000E+03	1.335322E-19	9.440824E-20
2.360000E+03	1.356268E-19	9.467643E-20
2.400000E+03	1.378613E-19	9.491207E-20
2.440000E+03	1.402395E-19	9.510393E-20
2.480000E+03	1.427641E-19	9.523869E-20
2.520000E+03	1.454357E-19	9.530060E-20
2.560000E+03	1.482528E-19	9.527125E-20
2.600000E+03	1.512108E-19	9.512918E-20
2.640000E+03	1.543012E-19	9.484969E-20
2.680000E+03	1.575104E-19	9.440457E-20
2.720000E+03	1.608191E-19	9.376202E-20
2.760000E+03	1.642005E-19	9.288665E-20
2.800000E+03	1.676191E-19	9.173973E-20
2.840000E+03	1.710290E-19	9.027980E-20
2.880000E+03	1.743729E-19	8.846361E-20
2.920000E+03	1.775804E-19	8.624774E-20
2.960000E+03	1.805674E-19	8.359079E-20
3.000000E+03	1.832360E-19	8.045640E-20
3.010000E+03	1.838407E-19	7.959473E-20
3.020000E+03	1.844168E-19	7.870113E-20
3.030000E+03	1.849624E-19	7.777533E-20
3.040000E+03	1.854756E-19	7.681715E-20
3.050000E+03	1.859545E-19	7.582645E-20
3.060000E+03	1.863972E-19	7.480320E-20
3.070000E+03	1.868016E-19	7.374740E-20
3.080000E+03	1.871659E-19	7.265919E-20
3.090000E+03	1.874880E-19	7.153875E-20
3.100000E+03	1.877660E-19	7.038638E-20
3.110000E+03	1.879979E-19	6.920249E-20
3.120000E+03	1.881820E-19	6.798758E-20
3.130000E+03	1.883162E-19	6.674226E-20
3.140000E+03	1.883989E-19	6.546727E-20
3.150000E+03	1.884282E-19	6.416346E-20
3.160000E+03	1.884026E-19	6.283180E-20
3.170000E+03	1.883206E-19	6.147340E-20
3.180000E+03	1.881806E-19	6.008949E-20
3.190000E+03	1.879814E-19	5.868144E-20
3.200000E+03	1.877218E-19	5.725074E-20
3.210000E+03	1.874009E-19	5.579905E-20
3.220000E+03	1.870178E-19	5.432812E-20
3.230000E+03	1.865720E-19	5.283987E-20
3.240000E+03	1.860631E-19	5.133632E-20
3.250000E+03	1.854909E-19	4.981964E-20
3.260000E+03	1.848556E-19	4.829212E-20
3.270000E+03	1.841575E-19	4.675616E-20
3.280000E+03	1.833973E-19	4.521428E-20
3.290000E+03	1.825761E-19	4.366909E-20
3.300000E+03	1.816950E-19	4.212331E-20
3.310000E+03	1.807558E-19	4.057973E-20
3.320000E+03	1.797604E-19	3.904122E-20
3.330000E+03	1.787111E-19	3.751069E-20
3.340000E+03	1.776106E-19	3.599110E-20
3.350000E+03	1.764619E-19	3.448545E-20
3.360000E+03	1.752684E-19	3.299673E-20
3.370000E+03	1.740339E-19	3.152796E-20
3.380000E+03	1.727623E-19	3.008209E-20
3.390000E+03	1.714581E-19	2.866209E-20
3.400000E+03	1.701259E-19	2.727084E-20
3.410000E+03	1.687707E-19	2.591117E-20
3.420000E+03	1.673976E-19	2.458586E-20
3.430000E+03	1.660120E-19	2.329758E-20
3.440000E+03	1.646191E-19	2.204897E-20
3.450000E+03	1.632246E-19	2.084258E-20
3.460000E+03	1.618337E-19	1.968094E-20
3.470000E+03	1.604516E-19	1.856658E-20
3.480000E+03	1.590831E-19	1.750209E-20
3.490000E+03	1.577324E-19	1.649016E-20
3.500000E+03	1.564032E-19	1.553367E-20
3.510000E+03	1.550979E-19	1.463577E-20
3.520000E+03	1.538180E-19	1.379997E-20
3.530000E+03	1.525633E-19	1.303009E-20
3.540000E+03	1.513323E-19	1.233030E-20
3.550000E+03	1.501212E-19	1.170487E-20
3.560000E+03	1.489248E-19	1.115785E-20
3.570000E+03	1.477357E-19	1.069243E-20
3.580000E+03	1.465453E-19	1.031021E-20
3.590000E+03	1.453434E-19	1.001018E-20
3.600000E+03	1.441191E-19	9.788006E-21
3.610000E+03	1.428609E-19	9.635717E-21
3.620000E+03	1.415576E-19	9.542469E-21
3.630000E+03	1.401992E-19	9.495864E-21
3.640000E+03	1.387779E-19	9.483310E-21
3.650000E+03	1.372884E-19	9.493075E-21
3.660000E+03	1.357291E-19	9.514985E-21
3.670000E+03	1.341024E-19	9.540766E-21
3.680000E+03	1.324153E-19	9.564140E-21
3.690000E+03	1.306796E-19	9.580738E-21
3.700000E+03	1.289120E-19	9.587923E-21
3.710000E+03	1.271340E-19	9.584562E-21
3.720000E+03	1.253716E-19	9.570782E-21
3.730000E+03	1.236545E-19	9.547731E-21
3.740000E+03	1.220156E-19	9.517351E-21
3.750000E+03	1.204899E-19	9.482167E-21
3.760000E+03	1.191138E-19	9.445102E-21
3.770000E+03	1.179239E-19	9.409305E-21
3.780000E+03	1.169565E-19	9.378016E-21
3.790000E+03	1.162469E-19	9.354439E-21
3.800000E+03	1.158281E-19	9.341648E-21
3.810000E+03	1.157313E-19	9.342499E-21
3.820000E+03	1.159846E-19	9.359566E-21
3.830000E+03	1.166126E-19	9.395084E-21
3.840000E+03	1.176364E-19	9.450893E-21
3.850000E+03	1.190724E-19	9.528390E-21
3.860000E+03	1.209319E-19	9.628483E-21
3.870000E+03	1.232202E-19	9.751538E-21
3.880000E+03	1.259354E-19	9.897336E-21
3.890000E+03	1.290673E-19	1.006503E-20
3.900000E+03	1.325965E-19	1.025312E-20
3.910000E+03	1.364928E-19	1.045943E-20
3.920000E+03	1.407150E-19	1.068112E-20
3.930000E+03	1.452099E-19	1.091473E-20
3.940000E+03	1.499130E-19	1.115623E-20
3.950000E+03	1.547494E-19	1.140117E-20
3.960000E+03	1.596354E-19	1.164478E-20
3.970000E+03	1.644819E-19	1.188217E-20
3.980000E+03	1.691975E-19	1.210853E-20
3.990000E+03	1.736930E-19	1.231930E-20
4.000000E+03	1.778858E-19	1.251042E-20
4.010000E+03	1.817037E-19	1.267846E-20
4.020000E+03	1.850896E-19	1.282080E-20
4.030000E+03	1.880035E-19	1.293571E-20
4.040000E+03	1.904246E-19	1.302240E-20
4.050000E+03	1.923514E-19	1.308105E-20
4.060000E+03	1.938012E-19	1.311274E-20
4.070000E+03	1.948075E-19	1.311937E-20
4.080000E+03	1.954170E-19	1.310350E-20
4.090000E+03	1.956864E-19	1.306826E-20
4.100000E+03	1.956778E-19	1.301707E-20
4.110000E+03	1.954554E-19	1.295353E-20
4.120000E+03	1.950818E-19	1.288118E-20
4.130000E+03	1.946151E-19	1.280331E-20
4.140000E+03	1.941069E-19	1.272285E-20
4.150000E+03	1.936003E-19	1.264221E-20
4.160000E+03	1.931297E-19	1.256320E-20
4.170000E+03	1.927198E-19	1.248700E-20
4.180000E+03	1.923859E-19	1.241412E-20
4.190000E+03	1.921348E-19	1.234442E-20
4.200000E+03	1.919652E-19	1.227715E-20
4.210000E+03	1.918687E-19	1.221106E-20
4.220000E+03	1.918313E-19	1.214446E-20
4.230000E+03	1.918343E-19	1.207536E-20
4.240000E+03	1.918558E-19	1.200165E-20
4.250000E+03	1.918714E-19	1.192119E-20
4.260000E+03	1.918558E-19	1.183206E-20
4.270000E+03	1.917834E-19	1.173266E-20
4.280000E+03	1.916298E-19	1.162186E-20
4.290000E+03	1.913721E-19	1.149921E-20
4.300000E+03	1.909905E-19	1.136502E-20
4.310000E+03	1.904688E-19	1.122052E-20
4.320000E+03	1.897961E-19	1.106793E-20
4.330000E+03	1.889670E-19	1.091061E-20
4.340000E+03	1.879833E-19	1.075300E-20
4.350000E+03	1.868545E-19	1.060049E-20
4.360000E+03	1.855987E-19	1.045914E-20
4.370000E+03	1.842429E-19	1.033512E-20
4.380000E+03	1.828230E-19	1.023384E-20
4.390000E+03	1.813827E-19	1.015908E-20
4.400000E+03	1.799713E-19	1.011220E-20
4.410000E+03	1.786417E-19	1.009231E-20
4.420000E+03	1.774482E-19	1.009707E-20
4.430000E+03	1.764432E-19	1.012366E-20
4.440000E+03	1.756753E-19	1.016939E-20
4.450000E+03	1.751854E-19	1.023206E-20
4.460000E+03	1.750057E-19	1.030999E-20
4.470000E+03	1.751573E-19	1.040195E-20
4.480000E+03	1.756497E-19	1.050695E-20
4.490000E+03	1.764805E-19	1.062401E-20
4.500000E+03	1.776347E-19	1.075202E-20
4.510000E+03	1.790856E-19	1.088956E-20
4.520000E+03	1.807958E-19	1.103478E-20
4.530000E+03	1.827175E-19	1.118542E-20
4.540000E+03	1.847950E-19	1.133878E-20
4.550000E+03	1.869660E-19	1.149180E-20
4.560000E+03	1.891638E-19	1.164116E-20
4.570000E+03	1.913199E-19	1.178338E-20
4.580000E+03	1.933659E-19	1.191499E-20
4.590000E+03	1.952360E-19	1.203265E-20
4.600000E+03	1.968688E-19	1.213331E-20
4.610000E+03	1.982088E-19	1.221427E-20
4.620000E+03	1.992079E-19	1.227335E-20
4.630000E+03	1.998260E-19	1.230887E-20
4.640000E+03	2.000317E-19	1.231971E-20
4.650000E+03	1.998022E-19	1.230529E-20
4.660000E+03	1.991241E-19	1.226552E-20
4.670000E+03	1.979925E-19	1.220075E-20
4.680000E+03	1.964117E-19	1.211168E-20
4.690000E+03	1.943948E-19	1.199933E-20
4.700000E+03	1.919635E-19	1.186503E-20
4.710000E+03	1.891477E-19	1.171037E-20
4.720000E+03	1.859853E-19	1.153723E-20
4.730000E+03	1.825211E-19	1.134782E-20
4.740000E+03	1.788057E-19	1.114462E-20
4.750000E+03	1.748945E-19	1.093042E-20
4.760000E+03	1.708461E-19	1.070816E-20
4.770000E+03	1.667203E-19	1.048097E-20
4.780000E+03	1.625771E-19	1.025198E-20
4.790000E+03	1.584742E-19	1.002428E-20
4.800000E+03	1.544662E-19	9.800845E-21
4.810000E+03	1.506025E-19	9.584434E-21
4.820000E+03	1.469266E-19	9.377548E-21
4.830000E+03	1.434753E-19	9.182367E-21
4.840000E+03	1.402779E-19	9.000705E-21
4.850000E+03	1.373565E-19	8.833971E-21
4.860000E+03	1.347257E-19	8.683135E-21
4.870000E+03	1.323928E-19	8.548715E-21
4.880000E+03	1.303587E-19	8.430772E-21
4.890000E+03	1.286177E-19	8.328919E-21
4.900000E+03	1.271582E-19	8.242357E-21
4.910000E+03	1.259633E-19	8.169917E-21
4.920000E+03	1.250109E-19	8.110129E-21
4.930000E+03	1.242751E-19	8.061296E-21
4.940000E+03	1.237264E-19	8.021579E-21
4.950000E+03	1.233328E-19	7.989099E-21
4.960000E+03	1.230619E-19	7.962027E-21
4.970000E+03	1.228818E-19	7.938683E-21
4.980000E+03	1.227629E-19	7.917631E-21
4.990000E+03	1.226802E-19	7.897747E-21
5.000000E+03	1.226145E-19	7.878279E-21
5.010000E+03	1.225534E-19	7.858877E-21
5.020000E+03	1.224922E-19	7.839587E-21
5.030000E+03	1.224336E-19	7.820824E-21
5.040000E+03	1.223870E-19	7.803309E-21
5.050000E+03	1.223671E-19	7.787990E-21
5.060000E+03	1.223920E-19	7.775947E-21
5.070000E+03	1.224810E-19	7.768287E-21
5.080000E+03	1.226529E-19	7.766044E-21
5.090000E+03	1.229239E-19	7.770084E-21
5.100000E+03	1.233062E-19	7.781029E-21
5.110000E+03	1.238072E-19	7.799198E-21
5.120000E+03	1.244284E-19	7.824575E-21
5.130000E+03	1.251663E-19	7.856803E-21
5.140000E+03	1.260120E-19	7.895205E-21
5.150000E+03	1.269523E-19	7.938818E-21
5.160000E+03	1.279710E-19	7.986451E-21
5.170000E+03	1.290494E-19	8.036741E-21
5.180000E+03	1.301677E-19	8.088219E-21
5.190000E+03	1.313055E-19	8.139371E-21
5.200000E+03	1.324430E-19	8.188687E-21
5.210000E+03	1.335606E-19	8.234712E-21
5.220000E+03	1.346394E-19	8.276072E-21
5.230000E+03	1.356610E-19	8.311494E-21
5.240000E+03	1.366072E-19	8.339820E-21
5.250000E+03	1.374603E-19	8.359997E-21
5.260000E+03	1.382024E-19	8.371080E-21
5.270000E+03	1.388159E-19	8.372215E-21
5.280000E+03	1.392842E-19	8.362644E-21
5.290000E+03	1.395916E-19	8.341695E-21
5.300000E+03	1.397246E-19	8.308791E-21
5.310000E+03	1.396724E-19	8.263465E-21
5.320000E+03	1.394277E-19	8.205380E-21
5.330000E+03	1.389874E-19	8.134364E-21
5.340000E+03	1.383530E-19	8.050447E-21
5.350000E+03	1.375306E-19	7.953901E-21
5.360000E+03	1.365308E-19	7.845282E-21
5.370000E+03	1.353683E-19	7.725463E-21
5.380000E+03	1.340614E-19	7.595658E-21
5.390000E+03	1.326310E-19	7.457433E-21
5.400000E+03	1.311000E-19	7.312710E-21
5.410000E+03	1.294919E-19	7.163767E-21
5.420000E+03	1.278306E-19	7.013221E-21
5.430000E+03	1.261391E-19	6.864019E-21
5.440000E+03	1.244390E-19	6.719391E-21
5.450000E+03	1.227502E-19	6.582776E-21
5.460000E+03	1.210899E-19	6.457663E-21
5.470000E+03	1.194729E-19	6.347330E-21
5.480000E+03	1.179101E-19	6.254444E-21
5.490000E+03	1.164078E-19	6.180543E-21
5.500000E+03	1.149667E-19	6.125541E-21
5.510000E+03	1.135812E-19	6.087629E-21
5.520000E+03	1.122419E-19	6.063762E-21
5.530000E+03	1.109377E-19	6.050360E-21
5.540000E+03	1.096579E-19	6.043877E-21
5.550000E+03	1.083930E-19	6.041172E-21
5.560000E+03	1.071359E-19	6.039686E-21
5.570000E+03	1.058823E-19	6.037495E-21
5.580000E+03	1.046305E-19	6.033270E-21
5.590000E+03	1.033821E-19	6.026208E-21
5.600000E+03	1.021409E-19	6.015936E-21
5.610000E+03	1.009137E-19	6.002432E-21
5.620000E+03	9.970875E-20	5.985948E-21
5.630000E+03	9.853622E-20	5.966952E-21
5.640000E+03	9.740720E-20	5.946078E-21
5.650000E+03	9.633358E-20	5.924090E-21
5.660000E+03	9.532766E-20	5.901854E-21
5.670000E+03	9.440206E-20	5.880316E-21
5.680000E+03	9.356956E-20	5.860493E-21
5.690000E+03	9.284302E-20	5.843454E-21
5.700000E+03	9.223533E-20	5.830305E-21
5.710000E+03	9.175928E-20	5.822168E-21
5.720000E+03	9.142737E-20	5.820148E-21
5.730000E+03	9.125155E-20	5.825305E-21
5.740000E+03	9.124292E-20	5.838611E-21
5.750000E+03	9.141136E-20	5.860920E-21
5.760000E+03	9.176508E-20	5.892928E-21
5.770000E+03	9.231024E-20	5.935150E-21
5.780000E+03	9.305053E-20	5.987899E-21
5.790000E+03	9.398676E-20	6.051272E-21
5.800000E+03	9.511654E-20	6.125141E-21
5.810000E+03	9.643403E-20	6.209148E-21
5.820000E+03	9.792972E-20	6.302704E-21
5.830000E+03	9.959035E-20	6.404988E-21
5.840000E+03	1.013989E-19	6.514940E-21
5.850000E+03	1.033347E-19	6.631275E-21
5.860000E+03	1.053738E-19	6.752484E-21
5.870000E+03	1.074888E-19	6.876858E-21
5.880000E+03	1.096500E-19	7.002525E-21
5.890000E+03	1.118256E-19	7.127498E-21
5.900000E+03	1.139823E-19	7.249736E-21
5.910000E+03	1.160867E-19	7.367219E-21
5.920000E+03	1.181057E-19	7.478015E-21
5.930000E+03	1.200085E-19	7.580348E-21
5.940000E+03	1.217669E-19	7.672648E-21
5.950000E+03	1.233566E-19	7.753580E-21
5.960000E+03	1.247587E-19	7.822066E-21
5.970000E+03	1.259593E-19	7.877287E-21
5.980000E+03	1.269508E-19	7.918686E-21
5.990000E+03	1.277312E-19	7.945959E-21
6.000000E+03	1.283038E-19	7.959058E-21
6.010000E+03	1.286768E-19	7.958176E-21
6.020000E+03	1.288622E-19	7.943735E-21
6.030000E+03	1.288747E-19	7.916353E-21
6.040000E+03	1.287307E-19	7.876801E-21
6.050000E+03	1.284474E-19	7.825943E-21
6.060000E+03	1.280418E-19	7.764675E-21
6.070000E+03	1.275302E-19	7.693858E-21
6.080000E+03	1.269272E-19	7.614258E-21
6.090000E+03	1.262460E-19	7.526518E-21
6.100000E+03	1.254977E-19	7.431137E-21
6.110000E+03	1.246914E-19	7.328501E-21
6.120000E+03	1.238347E-19	7.218937E-21
6.130000E+03	1.229336E-19	7.102806E-21
6.140000E+03	1.219931E-19	6.980633E-21
6.150000E+03	1.210180E-19	6.853250E-21
6.160000E+03	1.200128E-19	6.721960E-21
6.170000E+03	1.189833E-19	6.588686E-21
6.180000E+03	1.179364E-19	6.456091E-21
6.190000E+03	1.168813E-19	6.327637E-21
6.200000E+03	1.158300E-19	6.207530E-21
6.210000E+03	1.147973E-19	6.100517E-21
6.220000E+03	1.138012E-19	6.011477E-21
6.230000E+03	1.128621E-19	5.944795E-21
6.240000E+03	1.120013E-19	5.903566E-21
6.250000E+03	1.112393E-19	5.888888E-21
6.260000E+03	1.105947E-19	5.899762E-21
6.270000E+03	1.100839E-19	5.933713E-21
6.280000E+03	1.097217E-19	5.987584E-21
6.290000E+03	1.095201E-19	6.058145E-21
6.300000E+03	1.094884E-19	6.142443E-21
6.310000E+03	1.096318E-19	6.237947E-21
6.320000E+03	1.099510E-19	6.342545E-21
6.330000E+03	1.104421E-19	6.454471E-21
6.340000E+03	1.110964E-19	6.572200E-21
6.350000E+03	1.119004E-19	6.694358E-21
6.360000E+03	1.128367E-19	6.819637E-21
6.370000E+03	1.138841E-19	6.946751E-21
6.380000E+03	1.150188E-19	7.074407E-21
6.390000E+03	1.162146E-19	7.201304E-21
6.400000E+03	1.174446E-19	7.326142E-21
6.410000E+03	1.186818E-19	7.447649E-21
6.420000E+03	1.198998E-19	7.564610E-21
6.430000E+03	1.210746E-19	7.675911E-21
6.440000E+03	1.221847E-19	7.780575E-21
6.450000E+03	1.232125E-19	7.877812E-21
6.460000E+03	1.241447E-19	7.967061E-21
6.470000E+03	1.249727E-19	8.048024E-21
6.480000E+03	1.256932E-19	8.120698E-21
6.490000E+03	1.263081E-19	8.185388E-21
6.500000E+03	1.268242E-19	8.242697E-21
6.510000E+03	1.272528E-19	8.293514E-21
6.520000E+03	1.276092E-19	8.338969E-21
6.530000E+03	1.279115E-19	8.380386E-21
6.540000E+03	1.281803E-19	8.419216E-21
6.550000E+03	1.284368E-19	8.456970E-21
6.560000E+03	1.287023E-19	8.495144E-21
6.570000E+03	1.289972E-19	8.535139E-21
6.580000E+03	1.293393E-19	8.578196E-21
6.590000E+03	1.297437E-19	8.625328E-21
6.600000E+03	1.302215E-19	8.677265E-21
6.610000E+03	1.307792E-19	8.734420E-21
6.620000E+03	1.314189E-19	8.796866E-21
6.630000E+03	1.321378E-19	8.864341E-21
6.640000E+03	1.329285E-19	8.936269E-21
6.650000E+03	1.337796E-19	9.011812E-21
6.660000E+03	1.346765E-19	9.089924E-21
6.670000E+03	1.356020E-19	9.169435E-21
6.680000E+03	1.365373E-19	9.249126E-21
6.690000E+03	1.374631E-19	9.327802E-21
6.700000E+03	1.383606E-19	9.404363E-21
6.710000E+03	1.392123E-19	9.477851E-21
6.720000E+03	1.400024E-19	9.547479E-21
6.730000E+03	1.407181E-19	9.612648E-21
6.740000E+03	1.413492E-19	9.672941E-21
6.750000E+03	1.418888E-19	9.728116E-21
6.760000E+03	1.423332E-19	9.778081E-21
6.770000E+03	1.426816E-19	9.822872E-21
6.780000E+03	1.429361E-19	9.862633E-21
6.790000E+03	1.431016E-19	9.897596E-21
6.800000E+03	1.431848E-19	9.928062E-21
6.810000E+03	1.431943E-19	9.954384E-21
6.820000E+03	1.431399E-19	9.976962E-21
6.830000E+03	1.430325E-19	9.996226E-21
6.840000E+03	1.428832E-19	1.001263E-20
6.850000E+03	1.427032E-19	1.002666E-20
6.860000E+03	1.425037E-19	1.003880E-20
6.870000E+03	1.422951E-19	1.004959E-20
6.880000E+03	1.420874E-19	1.005954E-20
6.890000E+03	1.418899E-19	1.006922E-20
6.900000E+03	1.417111E-19	1.007920E-20
6.910000E+03	1.415586E-19	1.009007E-20
6.920000E+03	1.414394E-19	1.010242E-20
6.930000E+03	1.413598E-19	1.011680E-20
6.940000E+03	1.413254E-19	1.013377E-20
6.950000E+03	1.413411E-19	1.015381E-20
6.960000E+03	1.414110E-19	1.017734E-20
6.970000E+03	1.415383E-19	1.020469E-20
6.980000E+03	1.417253E-19	1.023608E-20
6.990000E+03	1.419730E-19	1.027163E-20
7.000000E+03	1.422810E-19	1.031136E-20
7.010000E+03	1.426477E-19	1.035516E-20
7.020000E+03	1.430700E-19	1.040286E-20
7.030000E+03	1.435432E-19	1.045418E-20
7.040000E+03	1.440615E-19	1.050877E-20
7.050000E+03	1.446181E-19	1.056626E-20
7.060000E+03	1.452052E-19	1.062623E-20
7.070000E+03	1.458148E-19	1.068823E-20
7.080000E+03	1.464387E-19	1.075184E-20
7.090000E+03	1.470689E-19	1.081663E-20
7.100000E+03	1.476980E-19	1.088221E-20
7.110000E+03	1.483194E-19	1.094824E-20
7.120000E+03	1.489274E-19	1.101439E-20
7.130000E+03	1.495173E-19	1.108041E-20
7.140000E+03	1.500857E-19	1.114607E-20
7.150000E+03	1.506300E-19	1.121118E-20
7.160000E+03	1.511486E-19	1.127558E-20
7.170000E+03	1.516405E-19	1.133911E-20
7.180000E+03	1.521052E-19	1.140162E-20
7.190000E+03	1.525422E-19	1.146295E-20
7.200000E+03	1.529510E-19	1.152293E-20
7.210000E+03	1.533306E-19	1.158137E-20
7.220000E+03	1.536793E-19	1.163807E-20
7.230000E+03	1.539945E-19	1.169279E-20
7.240000E+03	1.542728E-19	1.174526E-20
7.250000E+03	1.545094E-19	1.179519E-20
7.260000E+03	1.546987E-19	1.184228E-20
7.270000E+03	1.548342E-19	1.188618E-20
7.280000E+03	1.549083E-19	1.192651E-20
7.290000E+03	1.549130E-19	1.196285E-20
7.300000E+03	1.548400E-19	1.199474E-20
7.310000E+03	1.546808E-19	1.202163E-20
7.320000E+03	1.544271E-19	1.204288E-20
7.330000E+03	1.540711E-19	1.205772E-20
7.340000E+03	1.536055E-19	1.206522E-20
7.350000E+03	1.530245E-19	1.206423E-20
7.360000E+03	1.523231E-19	1.205342E-20
7.370000E+03	1.514981E-19	1.203119E-20
7.380000E+03	1.505478E-19	1.199569E-20
7.390000E+03	1.494724E-19	1.194488E-20
7.400000E+03	1.482737E-19	1.187653E-20
7.410000E+03	1.469555E-19	1.178831E-20
7.420000E+03	1.455232E-19	1.167791E-20
7.430000E+03	1.439837E-19	1.154314E-20
7.440000E+03	1.423453E-19	1.138210E-20
7.450000E+03	1.406174E-19	1.119330E-20
7.460000E+03	1.388103E-19	1.097585E-20
7.470000E+03	1.369347E-19	1.072954E-20
7.480000E+03	1.350020E-19	1.045500E-20
7.490000E+03	1.330237E-19	1.015384E-20
7.500000E+03	1.310114E-19	9.828732E-21
7.510000E+03	1.289771E-19	9.483542E-21
7.520000E+03	1.269325E-19	9.123484E-21
7.530000E+03	1.248894E-19	8.755250E-21
7.540000E+03	1.228598E-19	8.387153E-21
7.550000E+03	1.208555E-19	8.029243E-21
7.560000E+03	1.188888E-19	7.693313E-21
7.570000E+03	1.169715E-19	7.392706E-21
7.580000E+03	1.151157E-19	7.141762E-21
7.590000E+03	1.133326E-19	6.954774E-21
7.600000E+03	1.116323E-19	6.844407E-21
7.610000E+03	1.100224E-19	6.819806E-21
7.620000E+03	1.085064E-19	6.884907E-21
7.630000E+03	1.070833E-19	7.037777E-21
7.640000E+03	1.057485E-19	7.271418E-21
7.650000E+03	1.044958E-19	7.575536E-21
7.660000E+03	1.033184E-19	7.938422E-21
7.670000E+03	1.022101E-19	8.348440E-21
7.680000E+03	1.011657E-19	8.794955E-21
7.690000E+03	1.001803E-19	9.268778E-21
7.700000E+03	9.925033E-20	9.762255E-21
7.710000E+03	9.837252E-20	1.026918E-20
7.720000E+03	9.754429E-20	1.078460E-20
7.730000E+03	9.676347E-20	1.130464E-20
7.740000E+03	9.602817E-20	1.182626E-20
7.750000E+03	9.533670E-20	1.234712E-20
7.760000E+03	9.468748E-20	1.286543E-20
