#wls	flux	fluxerr
1.600000E+03	2.493515E-17	1.969670E-17
1.640000E+03	2.493062E-17	1.963762E-17
1.680000E+03	2.493577E-17	1.958119E-17
1.720000E+03	2.496047E-17	1.953465E-17
1.760000E+03	2.499621E-17	1.949077E-17
1.800000E+03	2.505302E-17	1.945676E-17
1.840000E+03	2.513184E-17	1.943260E-17
1.880000E+03	2.523370E-17	1.941828E-17
1.920000E+03	2.536907E-17	1.942092E-17
1.960000E+03	2.553002E-17	1.943333E-17
2.000000E+03	2.573209E-17	1.946616E-17
2.040000E+03	2.597713E-17	1.951931E-17
2.080000E+03	2.626255E-17	1.958919E-17
2.120000E+03	2.660492E-17	1.968627E-17
2.160000E+03	2.700242E-17	1.980692E-17
2.200000E+03	2.746313E-17	1.995452E-17
2.240000E+03	2.799096E-17	2.012895E-17
2.280000E+03	2.858552E-17	2.032661E-17
2.320000E+03	2.926170E-17	2.055427E-17
2.360000E+03	3.001567E-17	2.080485E-17
2.400000E+03	3.085919E-17	2.108161E-17
2.440000E+03	3.179513E-17	2.138087E-17
2.480000E+03	3.283246E-17	2.170231E-17
2.520000E+03	3.397631E-17	2.204210E-17
2.560000E+03	3.524372E-17	2.240309E-17
2.600000E+03	3.664852E-17	2.278446E-17
2.640000E+03	3.820118E-17	2.318174E-17
2.680000E+03	3.992558E-17	2.359683E-17
2.720000E+03	4.183741E-17	2.402434E-17
2.760000E+03	4.396119E-17	2.446161E-17
2.800000E+03	4.632538E-17	2.490506E-17
2.840000E+03	4.896305E-17	2.534999E-17
2.880000E+03	5.189933E-17	2.578362E-17
2.920000E+03	5.518407E-17	2.620126E-17
2.960000E+03	5.886773E-17	2.659254E-17
3.000000E+03	6.302348E-17	2.695056E-17
3.010000E+03	6.414524E-17	2.703344E-17
3.020000E+03	6.530627E-17	2.711466E-17
3.030000E+03	6.650796E-17	2.719388E-17
3.040000E+03	6.774384E-17	2.726756E-17
3.050000E+03	6.901507E-17	2.733534E-17
3.060000E+03	7.033901E-17	2.740314E-17
3.070000E+03	7.170116E-17	2.746421E-17
3.080000E+03	7.311939E-17	2.752436E-17
3.090000E+03	7.457885E-17	2.757685E-17
3.100000E+03	7.608943E-17	2.762428E-17
3.110000E+03	7.765288E-17	2.766610E-17
3.120000E+03	7.927098E-17	2.770174E-17
3.130000E+03	8.094557E-17	2.773056E-17
3.140000E+03	8.268757E-17	2.775494E-17
3.150000E+03	8.448094E-17	2.776811E-17
3.160000E+03	8.634587E-17	2.777538E-17
3.170000E+03	8.828475E-17	2.777591E-17
3.180000E+03	9.029046E-17	2.776586E-17
3.190000E+03	9.237481E-17	2.774730E-17
3.200000E+03	9.453041E-17	2.771633E-17
3.210000E+03	9.677947E-17	2.767775E-17
3.220000E+03	9.910459E-17	2.762466E-17
3.230000E+03	1.015182E-16	2.755881E-17
3.240000E+03	1.040230E-16	2.747898E-17
3.250000E+03	1.066320E-16	2.738664E-17
3.260000E+03	1.093375E-16	2.727758E-17
3.270000E+03	1.121418E-16	2.715038E-17
3.280000E+03	1.150585E-16	2.700616E-17
3.290000E+03	1.180903E-16	2.684322E-17
3.300000E+03	1.212397E-16	2.665973E-17
3.310000E+03	1.245091E-16	2.645380E-17
3.320000E+03	1.279127E-16	2.622590E-17
3.330000E+03	1.314404E-16	2.597132E-17
3.340000E+03	1.350934E-16	2.568783E-17
3.350000E+03	1.388853E-16	2.537542E-17
3.360000E+03	1.428298E-16	2.503374E-17
3.370000E+03	1.469011E-16	2.465540E-17
3.380000E+03	1.511243E-16	2.424201E-17
3.390000E+03	1.554842E-16	2.378825E-17
3.400000E+03	1.600052E-16	2.329502E-17
3.410000E+03	1.646551E-16	2.275472E-17
3.420000E+03	1.694554E-16	2.216774E-17
3.430000E+03	1.743832E-16	2.152839E-17
3.440000E+03	1.794416E-16	2.083470E-17
3.450000E+03	1.846160E-16	2.008278E-17
3.460000E+03	1.898880E-16	1.926887E-17
3.470000E+03	1.952498E-16	1.839096E-17
3.480000E+03	2.006575E-16	1.744442E-17
3.490000E+03	2.060918E-16	1.642839E-17
3.500000E+03	2.115110E-16	1.534172E-17
3.510000E+03	2.168809E-16	1.418630E-17
3.520000E+03	2.221261E-16	1.296480E-17
3.530000E+03	2.271937E-16	1.168687E-17
3.540000E+03	2.320040E-16	1.036888E-17
3.550000E+03	2.364667E-16	9.040483E-18
3.560000E+03	2.404990E-16	7.754962E-18
3.570000E+03	2.439785E-16	6.604209E-18
3.580000E+03	2.468164E-16	5.740631E-18
3.590000E+03	2.489050E-16	5.358003E-18
3.600000E+03	2.502245E-16	5.569514E-18
3.610000E+03	2.507639E-16	6.282674E-18
3.620000E+03	2.505792E-16	7.293104E-18
3.630000E+03	2.497531E-16	8.428575E-18
3.640000E+03	2.483938E-16	9.582778E-18
3.650000E+03	2.465816E-16	1.069501E-17
3.660000E+03	2.444108E-16	1.173252E-17
3.670000E+03	2.419992E-16	1.268008E-17
3.680000E+03	2.394038E-16	1.352936E-17
3.690000E+03	2.367060E-16	1.427945E-17
3.700000E+03	2.340069E-16	1.493499E-17
3.710000E+03	2.313519E-16	1.550009E-17
3.720000E+03	2.288203E-16	1.598287E-17
3.730000E+03	2.264632E-16	1.639084E-17
3.740000E+03	2.243519E-16	1.673365E-17
3.750000E+03	2.225422E-16	1.702032E-17
3.760000E+03	2.210871E-16	1.725970E-17
3.770000E+03	2.200269E-16	1.745949E-17
3.780000E+03	2.194204E-16	1.762848E-17
3.790000E+03	2.193038E-16	1.777321E-17
3.800000E+03	2.197315E-16	1.790106E-17
3.810000E+03	2.207363E-16	1.801700E-17
3.820000E+03	2.223592E-16	1.812589E-17
3.830000E+03	2.246392E-16	1.823171E-17
3.840000E+03	2.276131E-16	1.833745E-17
3.850000E+03	2.313154E-16	1.844515E-17
3.860000E+03	2.357680E-16	1.855520E-17
3.870000E+03	2.410166E-16	1.866917E-17
3.880000E+03	2.470560E-16	1.878421E-17
3.890000E+03	2.539204E-16	1.890015E-17
3.900000E+03	2.616084E-16	1.901398E-17
3.910000E+03	2.701086E-16	1.912209E-17
3.920000E+03	2.794256E-16	1.922246E-17
3.930000E+03	2.895028E-16	1.930953E-17
3.940000E+03	3.003149E-16	1.938111E-17
3.950000E+03	3.117896E-16	1.943343E-17
3.960000E+03	3.238442E-16	1.946409E-17
3.970000E+03	3.363647E-16	1.947120E-17
3.980000E+03	3.492254E-16	1.945478E-17
3.990000E+03	3.622899E-16	1.941666E-17
4.000000E+03	3.753683E-16	1.935755E-17
4.010000E+03	3.882727E-16	1.927925E-17
4.020000E+03	4.008119E-16	1.918363E-17
4.030000E+03	4.127635E-16	1.907028E-17
4.040000E+03	4.239149E-16	1.893754E-17
4.050000E+03	4.340466E-16	1.878209E-17
4.060000E+03	4.429636E-16	1.860099E-17
4.070000E+03	4.504907E-16	1.839186E-17
4.080000E+03	4.564786E-16	1.815384E-17
4.090000E+03	4.607978E-16	1.788757E-17
4.100000E+03	4.633677E-16	1.759601E-17
4.110000E+03	4.641536E-16	1.728407E-17
4.120000E+03	4.631686E-16	1.695745E-17
4.130000E+03	4.605154E-16	1.662265E-17
4.140000E+03	4.563368E-16	1.628518E-17
4.150000E+03	4.508354E-16	1.594985E-17
4.160000E+03	4.442878E-16	1.562067E-17
4.170000E+03	4.369768E-16	1.530018E-17
4.180000E+03	4.292039E-16	1.499129E-17
4.190000E+03	4.212239E-16	1.469541E-17
4.200000E+03	4.132897E-16	1.441485E-17
4.210000E+03	4.055967E-16	1.415102E-17
4.220000E+03	3.983147E-16	1.390476E-17
4.230000E+03	3.915464E-16	1.367485E-17
4.240000E+03	3.853879E-16	1.345917E-17
4.250000E+03	3.798659E-16	1.325179E-17
4.260000E+03	3.749977E-16	1.304613E-17
4.270000E+03	3.707626E-16	1.283510E-17
4.280000E+03	3.670986E-16	1.261143E-17
4.290000E+03	3.639479E-16	1.237009E-17
4.300000E+03	3.612148E-16	1.210751E-17
4.310000E+03	3.587701E-16	1.182197E-17
4.320000E+03	3.564876E-16	1.151563E-17
4.330000E+03	3.542206E-16	1.119395E-17
4.340000E+03	3.518079E-16	1.086585E-17
4.350000E+03	3.491037E-16	1.054448E-17
4.360000E+03	3.459713E-16	1.024574E-17
4.370000E+03	3.422987E-16	9.985787E-18
4.380000E+03	3.380299E-16	9.778211E-18
4.390000E+03	3.331687E-16	9.629948E-18
4.400000E+03	3.278074E-16	9.539494E-18
4.410000E+03	3.220818E-16	9.496941E-18
4.420000E+03	3.161855E-16	9.488355E-18
4.430000E+03	3.103343E-16	9.499233E-18
4.440000E+03	3.047474E-16	9.517764E-18
4.450000E+03	2.996347E-16	9.536291E-18
4.460000E+03	2.951780E-16	9.550916E-18
4.470000E+03	2.915533E-16	9.561797E-18
4.480000E+03	2.889176E-16	9.571715E-18
4.490000E+03	2.873978E-16	9.584506E-18
4.500000E+03	2.871256E-16	9.605617E-18
4.510000E+03	2.882078E-16	9.640489E-18
4.520000E+03	2.907597E-16	9.695023E-18
4.530000E+03	2.948895E-16	9.774875E-18
4.540000E+03	3.006962E-16	9.884975E-18
4.550000E+03	3.082760E-16	1.002919E-17
4.560000E+03	3.177136E-16	1.021022E-17
4.570000E+03	3.290731E-16	1.042905E-17
4.580000E+03	3.423808E-16	1.068393E-17
4.590000E+03	3.576337E-16	1.097140E-17
4.600000E+03	3.747685E-16	1.128597E-17
4.610000E+03	3.936850E-16	1.162107E-17
4.620000E+03	4.141930E-16	1.196877E-17
4.630000E+03	4.360633E-16	1.232233E-17
4.640000E+03	4.589563E-16	1.267445E-17
4.650000E+03	4.824667E-16	1.301959E-17
4.660000E+03	5.061176E-16	1.335307E-17
4.670000E+03	5.293176E-16	1.366847E-17
4.680000E+03	5.514281E-16	1.396059E-17
4.690000E+03	5.717549E-16	1.422506E-17
4.700000E+03	5.895536E-16	1.445643E-17
4.710000E+03	6.041168E-16	1.465009E-17
4.720000E+03	6.148451E-16	1.480061E-17
4.730000E+03	6.212930E-16	1.489841E-17
4.740000E+03	6.232318E-16	1.493313E-17
4.750000E+03	6.206479E-16	1.489504E-17
4.760000E+03	6.137551E-16	1.477537E-17
4.770000E+03	6.029536E-16	1.457059E-17
4.780000E+03	5.887829E-16	1.428512E-17
4.790000E+03	5.718414E-16	1.392933E-17
4.800000E+03	5.527581E-16	1.351905E-17
4.810000E+03	5.321486E-16	1.307180E-17
4.820000E+03	5.106022E-16	1.260322E-17
4.830000E+03	4.886530E-16	1.212747E-17
4.840000E+03	4.668157E-16	1.165800E-17
4.850000E+03	4.455376E-16	1.120518E-17
4.860000E+03	4.252279E-16	1.077883E-17
4.870000E+03	4.062549E-16	1.038860E-17
4.880000E+03	3.889207E-16	1.004229E-17
4.890000E+03	3.734885E-16	9.746779E-18
4.900000E+03	3.601808E-16	9.506998E-18
4.910000E+03	3.491633E-16	9.324349E-18
4.920000E+03	3.405669E-16	9.198956E-18
4.930000E+03	3.344848E-16	9.130708E-18
4.940000E+03	3.309667E-16	9.118728E-18
4.950000E+03	3.300302E-16	9.161920E-18
4.960000E+03	3.316791E-16	9.258874E-18
4.970000E+03	3.358797E-16	9.406133E-18
4.980000E+03	3.425657E-16	9.598662E-18
4.990000E+03	3.516443E-16	9.829933E-18
5.000000E+03	3.629685E-16	1.009070E-17
5.010000E+03	3.763338E-16	1.037021E-17
5.020000E+03	3.914539E-16	1.065701E-17
5.030000E+03	4.079409E-16	1.093933E-17
5.040000E+03	4.253098E-16	1.120678E-17
5.050000E+03	4.429412E-16	1.144979E-17
5.060000E+03	4.601219E-16	1.166025E-17
5.070000E+03	4.760545E-16	1.183212E-17
5.080000E+03	4.899345E-16	1.196126E-17
5.090000E+03	5.010498E-16	1.204452E-17
5.100000E+03	5.088418E-16	1.208146E-17
5.110000E+03	5.129696E-16	1.207497E-17
5.120000E+03	5.134115E-16	1.203083E-17
5.130000E+03	5.104141E-16	1.195627E-17
5.140000E+03	5.044825E-16	1.185751E-17
5.150000E+03	4.963079E-16	1.173626E-17
5.160000E+03	4.866822E-16	1.159349E-17
5.170000E+03	4.763610E-16	1.143136E-17
5.180000E+03	4.659942E-16	1.125289E-17
5.190000E+03	4.561054E-16	1.106303E-17
5.200000E+03	4.470835E-16	1.086797E-17
5.210000E+03	4.391834E-16	1.067329E-17
5.220000E+03	4.325560E-16	1.048478E-17
5.230000E+03	4.272856E-16	1.030863E-17
5.240000E+03	4.233927E-16	1.014981E-17
5.250000E+03	4.208839E-16	1.001328E-17
5.260000E+03	4.197404E-16	9.902165E-18
5.270000E+03	4.199286E-16	9.816362E-18
5.280000E+03	4.214315E-16	9.755091E-18
5.290000E+03	4.242244E-16	9.717562E-18
5.300000E+03	4.282786E-16	9.702807E-18
5.310000E+03	4.335655E-16	9.711166E-18
5.320000E+03	4.400445E-16	9.743701E-18
5.330000E+03	4.476378E-16	9.800005E-18
5.340000E+03	4.562417E-16	9.879343E-18
5.350000E+03	4.656981E-16	9.978928E-18
5.360000E+03	4.758014E-16	1.009164E-17
5.370000E+03	4.862871E-16	1.020717E-17
5.380000E+03	4.968663E-16	1.031267E-17
5.390000E+03	5.072197E-16	1.039103E-17
5.400000E+03	5.170384E-16	1.042478E-17
5.410000E+03	5.260403E-16	1.039854E-17
5.420000E+03	5.340014E-16	1.030010E-17
5.430000E+03	5.407859E-16	1.012547E-17
5.440000E+03	5.463466E-16	9.881863E-18
5.450000E+03	5.507681E-16	9.589400E-18
5.460000E+03	5.542097E-16	9.283956E-18
5.470000E+03	5.569220E-16	9.016223E-18
5.480000E+03	5.592298E-16	8.842035E-18
5.490000E+03	5.614455E-16	8.808538E-18
5.500000E+03	5.638861E-16	8.936552E-18
5.510000E+03	5.668546E-16	9.210082E-18
5.520000E+03	5.706029E-16	9.588258E-18
5.530000E+03	5.752924E-16	1.002195E-17
5.540000E+03	5.810067E-16	1.046400E-17
5.550000E+03	5.877105E-16	1.087690E-17
5.560000E+03	5.952443E-16	1.123531E-17
5.570000E+03	6.032388E-16	1.152221E-17
5.580000E+03	6.111904E-16	1.173102E-17
5.590000E+03	6.184406E-16	1.186422E-17
5.600000E+03	6.242397E-16	1.193104E-17
5.610000E+03	6.277914E-16	1.194577E-17
5.620000E+03	6.283828E-16	1.192134E-17
5.630000E+03	6.254552E-16	1.186114E-17
5.640000E+03	6.186758E-16	1.176322E-17
5.650000E+03	6.079437E-16	1.162303E-17
5.660000E+03	5.934297E-16	1.143425E-17
5.670000E+03	5.755142E-16	1.119455E-17
5.680000E+03	5.547494E-16	1.090866E-17
5.690000E+03	5.317881E-16	1.058591E-17
5.700000E+03	5.073313E-16	1.024085E-17
5.710000E+03	4.821273E-16	9.891239E-18
5.720000E+03	4.568830E-16	9.552177E-18
5.730000E+03	4.322823E-16	9.237239E-18
5.740000E+03	4.089319E-16	8.956109E-18
5.750000E+03	3.873571E-16	8.712652E-18
5.760000E+03	3.679942E-16	8.507984E-18
5.770000E+03	3.511743E-16	8.341808E-18
5.780000E+03	3.371330E-16	8.212038E-18
5.790000E+03	3.260207E-16	8.116484E-18
5.800000E+03	3.179423E-16	8.054359E-18
5.810000E+03	3.129472E-16	8.024994E-18
5.820000E+03	3.110609E-16	8.028515E-18
5.830000E+03	3.123071E-16	8.066281E-18
5.840000E+03	3.166849E-16	8.139802E-18
5.850000E+03	3.241904E-16	8.251112E-18
5.860000E+03	3.347949E-16	8.401362E-18
5.870000E+03	3.484255E-16	8.589645E-18
5.880000E+03	3.649572E-16	8.814121E-18
5.890000E+03	3.842053E-16	9.072497E-18
5.900000E+03	4.059005E-16	9.361352E-18
5.910000E+03	4.296781E-16	9.677460E-18
5.920000E+03	4.550625E-16	1.001721E-17
5.930000E+03	4.814676E-16	1.037477E-17
5.940000E+03	5.082056E-16	1.074310E-17
5.950000E+03	5.345111E-16	1.111299E-17
5.960000E+03	5.596347E-16	1.147150E-17
5.970000E+03	5.828328E-16	1.180354E-17
5.980000E+03	6.034780E-16	1.209469E-17
5.990000E+03	6.210968E-16	1.233017E-17
6.000000E+03	6.353940E-16	1.249891E-17
6.010000E+03	6.462338E-16	1.259459E-17
6.020000E+03	6.536662E-16	1.261436E-17
6.030000E+03	6.578497E-16	1.256083E-17
6.040000E+03	6.590131E-16	1.244156E-17
6.050000E+03	6.574150E-16	1.226558E-17
6.060000E+03	6.533265E-16	1.204679E-17
6.070000E+03	6.470229E-16	1.180393E-17
6.080000E+03	6.387969E-16	1.155616E-17
6.090000E+03	6.289312E-16	1.132101E-17
6.100000E+03	6.177417E-16	1.110765E-17
6.110000E+03	6.055688E-16	1.090990E-17
6.120000E+03	5.927600E-16	1.071440E-17
6.130000E+03	5.796679E-16	1.050798E-17
6.140000E+03	5.666484E-16	1.027876E-17
6.150000E+03	5.540333E-16	1.001962E-17
6.160000E+03	5.421224E-16	9.728195E-18
6.170000E+03	5.311697E-16	9.403869E-18
6.180000E+03	5.213790E-16	9.050549E-18
6.190000E+03	5.128782E-16	8.677081E-18
6.200000E+03	5.057212E-16	8.297052E-18
6.210000E+03	4.998907E-16	7.934666E-18
6.220000E+03	4.953342E-16	7.627885E-18
6.230000E+03	4.919635E-16	7.421259E-18
6.240000E+03	4.896696E-16	7.352243E-18
6.250000E+03	4.883491E-16	7.433981E-18
6.260000E+03	4.879078E-16	7.647479E-18
6.270000E+03	4.882538E-16	7.952192E-18
6.280000E+03	4.892715E-16	8.300460E-18
6.290000E+03	4.908359E-16	8.647615E-18
6.300000E+03	4.927675E-16	8.959579E-18
6.310000E+03	4.948500E-16	9.215998E-18
6.320000E+03	4.968339E-16	9.408303E-18
6.330000E+03	4.984272E-16	9.538023E-18
6.340000E+03	4.993576E-16	9.613799E-18
6.350000E+03	4.993749E-16	9.646306E-18
6.360000E+03	4.982989E-16	9.648095E-18
6.370000E+03	4.960371E-16	9.630326E-18
6.380000E+03	4.925947E-16	9.598698E-18
6.390000E+03	4.880767E-16	9.556519E-18
6.400000E+03	4.826433E-16	9.505850E-18
6.410000E+03	4.764774E-16	9.446404E-18
6.420000E+03	4.697707E-16	9.378749E-18
6.430000E+03	4.627069E-16	9.305164E-18
6.440000E+03	4.554354E-16	9.227584E-18
6.450000E+03	4.480865E-16	9.149327E-18
6.460000E+03	4.407563E-16	9.074027E-18
6.470000E+03	4.335229E-16	9.003493E-18
6.480000E+03	4.264421E-16	8.938951E-18
6.490000E+03	4.195505E-16	8.880862E-18
6.500000E+03	4.128539E-16	8.827118E-18
6.510000E+03	4.063404E-16	8.775544E-18
6.520000E+03	4.000090E-16	8.725682E-18
6.530000E+03	3.938867E-16	8.678285E-18
6.540000E+03	3.880227E-16	8.636044E-18
6.550000E+03	3.825120E-16	8.603207E-18
6.560000E+03	3.775160E-16	8.584062E-18
6.570000E+03	3.732280E-16	8.582895E-18
6.580000E+03	3.698766E-16	8.603626E-18
6.590000E+03	3.677085E-16	8.648140E-18
6.600000E+03	3.669735E-16	8.717651E-18
6.610000E+03	3.678881E-16	8.812963E-18
6.620000E+03	3.706162E-16	8.933666E-18
6.630000E+03	3.752644E-16	9.079189E-18
6.640000E+03	3.818519E-16	9.248625E-18
6.650000E+03	3.903248E-16	9.440628E-18
6.660000E+03	4.005110E-16	9.652802E-18
6.670000E+03	4.121531E-16	9.881863E-18
6.680000E+03	4.248954E-16	1.012202E-17
6.690000E+03	4.382900E-16	1.036612E-17
6.700000E+03	4.518518E-16	1.060690E-17
6.710000E+03	4.650766E-16	1.083633E-17
6.720000E+03	4.774986E-16	1.104823E-17
6.730000E+03	4.886937E-16	1.123831E-17
6.740000E+03	4.983335E-16	1.140402E-17
6.750000E+03	5.061891E-16	1.154588E-17
6.760000E+03	5.121345E-16	1.166695E-17
6.770000E+03	5.161291E-16	1.177015E-17
6.780000E+03	5.182029E-16	1.185848E-17
6.790000E+03	5.184608E-16	1.193382E-17
6.800000E+03	5.170298E-16	1.199336E-17
6.810000E+03	5.140621E-16	1.203291E-17
6.820000E+03	5.097492E-16	1.204975E-17
6.830000E+03	5.042514E-16	1.204096E-17
6.840000E+03	4.977565E-16	1.200651E-17
6.850000E+03	4.904251E-16	1.194780E-17
6.860000E+03	4.824227E-16	1.186671E-17
6.870000E+03	4.738713E-16	1.176527E-17
6.880000E+03	4.649126E-16	1.164689E-17
6.890000E+03	4.556471E-16	1.151322E-17
6.900000E+03	4.461868E-16	1.136671E-17
6.910000E+03	4.366433E-16	1.121030E-17
6.920000E+03	4.271348E-16	1.104661E-17
6.930000E+03	4.178084E-16	1.087953E-17
6.940000E+03	4.088052E-16	1.071335E-17
6.950000E+03	4.002958E-16	1.055265E-17
6.960000E+03	3.924527E-16	1.040238E-17
6.970000E+03	3.854455E-16	1.026746E-17
6.980000E+03	3.794340E-16	1.015169E-17
6.990000E+03	3.745555E-16	1.005826E-17
7.000000E+03	3.709292E-16	9.989943E-18
7.010000E+03	3.686328E-16	9.948015E-18
7.020000E+03	3.677044E-16	9.933294E-18
7.030000E+03	3.681322E-16	9.946391E-18
7.040000E+03	3.698569E-16	9.987400E-18
7.050000E+03	3.727751E-16	1.005639E-17
7.060000E+03	3.767306E-16	1.015263E-17
7.070000E+03	3.815320E-16	1.027388E-17
7.080000E+03	3.869602E-16	1.041693E-17
7.090000E+03	3.927875E-16	1.057754E-17
7.100000E+03	3.987948E-16	1.074978E-17
7.110000E+03	4.047806E-16	1.092751E-17
7.120000E+03	4.105640E-16	1.110514E-17
7.130000E+03	4.160036E-16	1.127786E-17
7.140000E+03	4.209937E-16	1.144246E-17
7.150000E+03	4.254689E-16	1.159739E-17
7.160000E+03	4.293761E-16	1.174097E-17
7.170000E+03	4.327236E-16	1.187363E-17
7.180000E+03	4.355122E-16	1.199618E-17
7.190000E+03	4.377845E-16	1.211024E-17
7.200000E+03	4.395927E-16	1.221767E-17
7.210000E+03	4.409939E-16	1.231992E-17
7.220000E+03	4.420567E-16	1.241713E-17
7.230000E+03	4.428515E-16	1.250894E-17
7.240000E+03	4.434403E-16	1.259483E-17
7.250000E+03	4.438848E-16	1.267415E-17
7.260000E+03	4.442316E-16	1.274692E-17
7.270000E+03	4.445263E-16	1.281472E-17
7.280000E+03	4.447833E-16	1.287933E-17
7.290000E+03	4.450153E-16	1.294388E-17
7.300000E+03	4.452234E-16	1.301215E-17
7.310000E+03	4.453990E-16	1.308753E-17
7.320000E+03	4.455157E-16	1.317320E-17
7.330000E+03	4.455556E-16	1.327276E-17
7.340000E+03	4.454997E-16	1.338913E-17
7.350000E+03	4.453225E-16	1.352459E-17
7.360000E+03	4.450014E-16	1.368059E-17
7.370000E+03	4.445047E-16	1.385622E-17
7.380000E+03	4.437968E-16	1.404867E-17
7.390000E+03	4.428438E-16	1.425303E-17
7.400000E+03	4.416091E-16	1.446130E-17
7.410000E+03	4.400434E-16	1.466232E-17
7.420000E+03	4.381157E-16	1.484256E-17
7.430000E+03	4.357827E-16	1.498494E-17
7.440000E+03	4.330262E-16	1.507198E-17
7.450000E+03	4.298349E-16	1.508771E-17
7.460000E+03	4.262183E-16	1.501932E-17
7.470000E+03	4.221913E-16	1.485679E-17
7.480000E+03	4.177960E-16	1.459351E-17
7.490000E+03	4.130890E-16	1.422544E-17
7.500000E+03	4.081323E-16	1.375044E-17
7.510000E+03	4.030010E-16	1.316822E-17
7.520000E+03	3.977683E-16	1.247973E-17
7.530000E+03	3.925080E-16	1.168729E-17
7.540000E+03	3.873020E-16	1.079539E-17
7.550000E+03	3.822198E-16	9.811121E-18
7.560000E+03	3.773246E-16	8.746887E-18
7.570000E+03	3.726958E-16	7.625758E-18
7.580000E+03	3.684032E-16	6.490869E-18
7.590000E+03	3.645389E-16	5.426833E-18
7.600000E+03	3.611861E-16	4.593731E-18
7.610000E+03	3.584162E-16	4.231826E-18
7.620000E+03	3.562061E-16	4.496728E-18
7.630000E+03	3.544159E-16	5.265652E-18
7.640000E+03	3.528178E-16	6.294972E-18
7.650000E+03	3.511801E-16	7.411305E-18
7.660000E+03	3.493159E-16	8.521839E-18
7.670000E+03	3.471011E-16	9.579693E-18
7.680000E+03	3.444539E-16	1.056120E-17
7.690000E+03	3.413542E-16	1.145572E-17
7.700000E+03	3.378349E-16	1.226058E-17
7.710000E+03	3.339814E-16	1.297872E-17
7.720000E+03	3.299090E-16	1.361675E-17
7.730000E+03	3.257658E-16	1.418431E-17
7.740000E+03	3.217217E-16	1.469337E-17
7.750000E+03	3.179429E-16	1.515672E-17
7.760000E+03	3.145950E-16	1.558791E-17
