#wls	flux	fluxerr
1.600000E+03	2.376721E-18	1.909219E-18
1.640000E+03	2.348848E-18	1.884771E-18
1.680000E+03	2.320633E-18	1.859931E-18
1.720000E+03	2.291275E-18	1.834054E-18
1.760000E+03	2.261627E-18	1.807822E-18
1.800000E+03	2.231320E-18	1.780933E-18
1.840000E+03	2.200789E-18	1.753734E-18
1.880000E+03	2.169304E-18	1.725639E-18
1.920000E+03	2.137700E-18	1.697311E-18
1.960000E+03	2.105283E-18	1.668197E-18
2.000000E+03	2.072879E-18	1.638951E-18
2.040000E+03	2.040195E-18	1.609340E-18
2.080000E+03	2.007678E-18	1.579713E-18
2.120000E+03	1.974715E-18	1.549589E-18
2.160000E+03	1.942118E-18	1.519604E-18
2.200000E+03	1.909653E-18	1.489575E-18
2.240000E+03	1.877450E-18	1.459600E-18
2.280000E+03	1.845972E-18	1.430040E-18
2.320000E+03	1.814717E-18	1.400504E-18
2.360000E+03	1.784485E-18	1.371608E-18
2.400000E+03	1.755129E-18	1.343233E-18
2.440000E+03	1.726831E-18	1.315517E-18
2.480000E+03	1.700087E-18	1.288829E-18
2.520000E+03	1.674514E-18	1.262869E-18
2.560000E+03	1.650927E-18	1.238244E-18
2.600000E+03	1.629278E-18	1.214900E-18
2.640000E+03	1.610114E-18	1.193225E-18
2.680000E+03	1.593166E-18	1.172997E-18
2.720000E+03	1.579307E-18	1.154828E-18
2.760000E+03	1.568610E-18	1.138735E-18
2.800000E+03	1.561465E-18	1.124957E-18
2.840000E+03	1.558308E-18	1.113753E-18
2.880000E+03	1.559896E-18	1.105597E-18
2.920000E+03	1.566517E-18	1.100612E-18
2.960000E+03	1.578810E-18	1.099154E-18
3.000000E+03	1.597508E-18	1.101619E-18
3.010000E+03	1.603349E-18	1.102947E-18
3.020000E+03	1.609383E-18	1.104368E-18
3.030000E+03	1.616173E-18	1.106265E-18
3.040000E+03	1.623462E-18	1.108459E-18
3.050000E+03	1.631266E-18	1.110959E-18
3.060000E+03	1.639603E-18	1.113773E-18
3.070000E+03	1.648489E-18	1.116910E-18
3.080000E+03	1.657945E-18	1.120381E-18
3.090000E+03	1.667706E-18	1.124004E-18
3.100000E+03	1.678356E-18	1.128169E-18
3.110000E+03	1.689636E-18	1.132698E-18
3.120000E+03	1.701566E-18	1.137602E-18
3.130000E+03	1.714170E-18	1.142891E-18
3.140000E+03	1.727473E-18	1.148578E-18
3.150000E+03	1.741497E-18	1.154674E-18
3.160000E+03	1.756271E-18	1.161194E-18
3.170000E+03	1.771820E-18	1.168148E-18
3.180000E+03	1.788173E-18	1.175553E-18
3.190000E+03	1.805359E-18	1.183421E-18
3.200000E+03	1.823410E-18	1.191768E-18
3.210000E+03	1.842357E-18	1.200609E-18
3.220000E+03	1.862234E-18	1.209960E-18
3.230000E+03	1.883077E-18	1.219837E-18
3.240000E+03	1.904922E-18	1.230259E-18
3.250000E+03	1.927808E-18	1.241242E-18
3.260000E+03	1.951774E-18	1.252806E-18
3.270000E+03	1.976863E-18	1.264970E-18
3.280000E+03	2.003119E-18	1.277754E-18
3.290000E+03	2.030587E-18	1.291179E-18
3.300000E+03	2.059660E-18	1.305485E-18
3.310000E+03	2.089704E-18	1.320260E-18
3.320000E+03	2.121111E-18	1.335744E-18
3.330000E+03	2.153936E-18	1.351961E-18
3.340000E+03	2.188236E-18	1.368937E-18
3.350000E+03	2.224072E-18	1.386697E-18
3.360000E+03	2.261505E-18	1.405269E-18
3.370000E+03	2.300602E-18	1.424680E-18
3.380000E+03	2.341821E-18	1.445202E-18
3.390000E+03	2.384459E-18	1.466384E-18
3.400000E+03	2.428976E-18	1.488498E-18
3.410000E+03	2.475449E-18	1.511574E-18
3.420000E+03	2.523961E-18	1.535646E-18
3.430000E+03	2.575023E-18	1.561009E-18
3.440000E+03	2.627879E-18	1.587183E-18
3.450000E+03	2.683039E-18	1.614460E-18
3.460000E+03	2.740603E-18	1.642879E-18
3.470000E+03	2.800670E-18	1.672478E-18
3.480000E+03	2.863821E-18	1.703581E-18
3.490000E+03	2.929228E-18	1.735669E-18
3.500000E+03	2.997469E-18	1.769062E-18
3.510000E+03	3.068666E-18	1.803804E-18
3.520000E+03	3.142941E-18	1.839940E-18
3.530000E+03	3.220959E-18	1.877826E-18
3.540000E+03	3.301802E-18	1.916895E-18
3.550000E+03	3.386132E-18	1.957500E-18
3.560000E+03	3.474094E-18	1.999688E-18
3.570000E+03	3.566430E-18	2.043849E-18
3.580000E+03	3.662136E-18	2.089364E-18
3.590000E+03	3.761950E-18	2.136617E-18
3.600000E+03	3.866681E-18	2.186019E-18
3.610000E+03	3.975248E-18	2.236911E-18
3.620000E+03	4.088456E-18	2.289699E-18
3.630000E+03	4.206494E-18	2.344435E-18
3.640000E+03	4.330272E-18	2.401571E-18
3.650000E+03	4.458589E-18	2.460377E-18
3.660000E+03	4.592348E-18	2.521294E-18
3.670000E+03	4.732544E-18	2.584801E-18
3.680000E+03	4.877870E-18	2.650110E-18
3.690000E+03	5.029311E-18	2.717689E-18
3.700000E+03	5.187106E-18	2.787588E-18
3.710000E+03	5.352376E-18	2.860326E-18
3.720000E+03	5.523646E-18	2.935025E-18
3.730000E+03	5.702023E-18	3.012188E-18
3.740000E+03	5.888737E-18	3.092366E-18
3.750000E+03	6.082160E-18	3.174601E-18
3.760000E+03	6.283504E-18	3.259424E-18
3.770000E+03	6.494110E-18	3.347418E-18
3.780000E+03	6.712178E-18	3.437534E-18
3.790000E+03	6.939029E-18	3.530332E-18
3.800000E+03	7.174956E-18	3.625835E-18
3.810000E+03	7.421471E-18	3.724667E-18
3.820000E+03	7.676496E-18	3.825642E-18
3.830000E+03	7.941508E-18	3.929357E-18
3.840000E+03	8.218150E-18	4.036468E-18
3.850000E+03	8.504101E-18	4.145673E-18
3.860000E+03	8.800962E-18	4.257594E-18
3.870000E+03	9.110518E-18	4.372921E-18
3.880000E+03	9.430166E-18	4.490220E-18
3.890000E+03	9.761635E-18	4.610143E-18
3.900000E+03	1.010522E-17	4.732641E-18
3.910000E+03	1.046291E-17	4.858444E-18
3.920000E+03	1.083165E-17	4.985927E-18
3.930000E+03	1.121335E-17	5.115781E-18
3.940000E+03	1.161016E-17	5.248766E-18
3.950000E+03	1.201862E-17	5.383106E-18
3.960000E+03	1.244080E-17	5.519520E-18
3.970000E+03	1.287690E-17	5.657889E-18
3.980000E+03	1.332927E-17	5.799020E-18
3.990000E+03	1.379388E-17	5.940923E-18
4.000000E+03	1.427295E-17	6.084363E-18
4.010000E+03	1.476661E-17	6.229185E-18
4.020000E+03	1.527743E-17	6.376251E-18
4.030000E+03	1.580063E-17	6.523358E-18
4.040000E+03	1.633866E-17	6.671332E-18
4.050000E+03	1.689150E-17	6.819995E-18
4.060000E+03	1.746195E-17	6.970281E-18
4.070000E+03	1.804441E-17	7.119790E-18
4.080000E+03	1.864148E-17	7.269435E-18
4.090000E+03	1.925302E-17	7.419037E-18
4.100000E+03	1.987882E-17	7.568424E-18
4.110000E+03	2.052194E-17	7.718669E-18
4.120000E+03	2.117559E-17	7.867167E-18
4.130000E+03	2.184263E-17	8.014995E-18
4.140000E+03	2.252266E-17	8.162035E-18
4.150000E+03	2.321522E-17	8.308188E-18
4.160000E+03	2.391982E-17	8.453381E-18
4.170000E+03	2.463983E-17	8.598945E-18
4.180000E+03	2.536688E-17	8.742138E-18
4.190000E+03	2.610412E-17	8.884333E-18
4.200000E+03	2.685083E-17	9.025588E-18
4.210000E+03	2.760623E-17	9.165999E-18
4.220000E+03	2.836951E-17	9.305706E-18
4.230000E+03	2.913978E-17	9.444889E-18
4.240000E+03	2.991612E-17	9.583772E-18
4.250000E+03	3.069756E-17	9.722622E-18
4.260000E+03	3.148811E-17	9.863317E-18
4.270000E+03	3.227681E-17	1.000309E-17
4.280000E+03	3.306748E-17	1.014386E-17
4.290000E+03	3.385901E-17	1.028605E-17
4.300000E+03	3.465028E-17	1.043010E-17
4.310000E+03	3.544012E-17	1.057647E-17
4.320000E+03	3.622738E-17	1.072562E-17
4.330000E+03	3.701089E-17	1.087802E-17
4.340000E+03	3.778949E-17	1.103413E-17
4.350000E+03	3.856202E-17	1.119439E-17
4.360000E+03	3.932733E-17	1.135922E-17
4.370000E+03	4.008429E-17	1.152899E-17
4.380000E+03	4.083180E-17	1.170403E-17
4.390000E+03	4.156879E-17	1.188461E-17
4.400000E+03	4.228754E-17	1.206902E-17
4.410000E+03	4.300033E-17	1.226118E-17
4.420000E+03	4.369963E-17	1.245927E-17
4.430000E+03	4.438456E-17	1.266325E-17
4.440000E+03	4.505429E-17	1.287303E-17
4.450000E+03	4.570805E-17	1.308841E-17
4.460000E+03	4.634513E-17	1.330913E-17
4.470000E+03	4.696488E-17	1.353483E-17
4.480000E+03	4.755924E-17	1.376292E-17
4.490000E+03	4.814261E-17	1.399723E-17
4.500000E+03	4.870716E-17	1.423508E-17
4.510000E+03	4.925251E-17	1.447587E-17
4.520000E+03	4.977839E-17	1.471896E-17
4.530000E+03	5.027666E-17	1.496133E-17
4.540000E+03	5.076290E-17	1.520695E-17
4.550000E+03	5.122921E-17	1.545278E-17
4.560000E+03	5.166744E-17	1.569563E-17
4.570000E+03	5.209381E-17	1.593966E-17
4.580000E+03	5.250036E-17	1.618172E-17
4.590000E+03	5.287896E-17	1.641852E-17
4.600000E+03	5.324635E-17	1.665448E-17
4.610000E+03	5.359455E-17	1.688637E-17
4.620000E+03	5.391543E-17	1.711087E-17
4.630000E+03	5.422619E-17	1.733267E-17
4.640000E+03	5.451881E-17	1.754854E-17
4.650000E+03	5.478515E-17	1.775514E-17
4.660000E+03	5.504278E-17	1.795747E-17
4.670000E+03	5.527501E-17	1.814945E-17
4.680000E+03	5.549961E-17	1.833628E-17
4.690000E+03	5.569979E-17	1.851185E-17
4.700000E+03	5.589350E-17	1.868154E-17
4.710000E+03	5.606387E-17	1.883919E-17
4.720000E+03	5.622896E-17	1.899037E-17
4.730000E+03	5.637185E-17	1.912889E-17
4.740000E+03	5.651070E-17	1.926046E-17
4.750000E+03	5.662850E-17	1.937888E-17
4.760000E+03	5.673467E-17	1.948698E-17
4.770000E+03	5.683864E-17	1.958765E-17
4.780000E+03	5.692334E-17	1.967467E-17
4.790000E+03	5.699820E-17	1.975099E-17
4.800000E+03	5.707267E-17	1.981962E-17
4.810000E+03	5.712959E-17	1.987434E-17
4.820000E+03	5.717840E-17	1.991818E-17
4.830000E+03	5.722853E-17	1.995423E-17
4.840000E+03	5.726274E-17	1.997628E-17
4.850000E+03	5.729046E-17	1.998743E-17
4.860000E+03	5.731217E-17	1.998770E-17
4.870000E+03	5.733727E-17	1.998022E-17
4.880000E+03	5.734844E-17	1.995882E-17
4.890000E+03	5.735501E-17	1.992664E-17
4.900000E+03	5.735743E-17	1.988373E-17
4.910000E+03	5.735611E-17	1.983014E-17
4.920000E+03	5.735143E-17	1.976592E-17
4.930000E+03	5.734376E-17	1.969114E-17
4.940000E+03	5.733346E-17	1.960584E-17
4.950000E+03	5.732972E-17	1.951311E-17
4.960000E+03	5.731510E-17	1.940695E-17
4.970000E+03	5.729875E-17	1.929043E-17
4.980000E+03	5.728094E-17	1.916362E-17
4.990000E+03	5.726191E-17	1.902658E-17
5.000000E+03	5.724188E-17	1.887933E-17
5.010000E+03	5.722105E-17	1.872194E-17
5.020000E+03	5.719075E-17	1.855158E-17
5.030000E+03	5.716882E-17	1.837405E-17
5.040000E+03	5.714654E-17	1.818648E-17
5.050000E+03	5.712405E-17	1.798892E-17
5.060000E+03	5.710143E-17	1.778140E-17
5.070000E+03	5.707876E-17	1.756394E-17
5.080000E+03	5.705610E-17	1.733657E-17
5.090000E+03	5.702469E-17	1.709667E-17
5.100000E+03	5.700216E-17	1.684959E-17
5.110000E+03	5.697970E-17	1.659266E-17
5.120000E+03	5.695731E-17	1.632592E-17
5.130000E+03	5.692620E-17	1.604691E-17
5.140000E+03	5.690386E-17	1.576063E-17
5.150000E+03	5.688147E-17	1.546462E-17
5.160000E+03	5.685896E-17	1.515888E-17
5.170000E+03	5.682752E-17	1.484118E-17
5.180000E+03	5.680454E-17	1.451617E-17
5.190000E+03	5.677245E-17	1.417937E-17
5.200000E+03	5.674860E-17	1.383525E-17
5.210000E+03	5.672413E-17	1.348164E-17
5.220000E+03	5.669023E-17	1.311660E-17
5.230000E+03	5.666417E-17	1.274428E-17
5.240000E+03	5.662841E-17	1.236081E-17
5.250000E+03	5.660022E-17	1.197016E-17
5.260000E+03	5.656207E-17	1.156871E-17
5.270000E+03	5.653119E-17	1.116022E-17
5.280000E+03	5.649007E-17	1.074138E-17
5.290000E+03	5.644727E-17	1.031413E-17
5.300000E+03	5.641130E-17	9.880234E-18
5.310000E+03	5.636472E-17	9.436830E-18
5.320000E+03	5.632470E-17	8.987180E-18
5.330000E+03	5.627385E-17	8.528801E-18
5.340000E+03	5.622071E-17	8.063547E-18
5.350000E+03	5.617381E-17	7.593064E-18
5.360000E+03	5.611584E-17	7.115539E-18
5.370000E+03	5.605538E-17	6.632926E-18
5.380000E+03	5.599238E-17	6.146128E-18
5.390000E+03	5.593541E-17	5.657174E-18
5.400000E+03	5.586736E-17	5.165794E-18
5.410000E+03	5.579686E-17	4.675028E-18
5.420000E+03	5.572400E-17	4.187842E-18
5.430000E+03	5.564890E-17	3.708593E-18
5.440000E+03	5.558024E-17	3.244433E-18
5.450000E+03	5.550123E-17	2.804855E-18
5.460000E+03	5.542061E-17	2.407575E-18
5.470000E+03	5.533867E-17	2.080102E-18
5.480000E+03	5.525573E-17	1.862096E-18
5.490000E+03	5.517209E-17	1.795103E-18
5.500000E+03	5.508793E-17	1.893400E-18
5.510000E+03	5.500291E-17	2.127592E-18
5.520000E+03	5.491661E-17	2.451798E-18
5.530000E+03	5.482866E-17	2.828275E-18
5.540000E+03	5.473869E-17	3.232287E-18
5.550000E+03	5.464638E-17	3.648674E-18
5.560000E+03	5.455147E-17	4.068117E-18
5.570000E+03	5.445372E-17	4.484712E-18
5.580000E+03	5.435293E-17	4.894586E-18
5.590000E+03	5.424067E-17	5.294288E-18
5.600000E+03	5.413340E-17	5.683518E-18
5.610000E+03	5.402274E-17	6.060180E-18
5.620000E+03	5.390863E-17	6.423274E-18
5.630000E+03	5.379103E-17	6.772041E-18
5.640000E+03	5.366994E-17	7.105897E-18
5.650000E+03	5.353719E-17	7.423255E-18
5.660000E+03	5.340916E-17	7.725976E-18
5.670000E+03	5.327770E-17	8.012697E-18
5.680000E+03	5.313475E-17	8.281938E-18
5.690000E+03	5.299659E-17	8.536018E-18
5.700000E+03	5.285516E-17	8.773588E-18
5.710000E+03	5.270248E-17	8.993187E-18
5.720000E+03	5.255472E-17	9.197463E-18
5.730000E+03	5.240389E-17	9.385045E-18
5.740000E+03	5.224210E-17	9.554464E-18
5.750000E+03	5.208537E-17	9.708618E-18
5.760000E+03	5.192579E-17	9.846104E-18
5.770000E+03	5.175553E-17	9.965448E-18
5.780000E+03	5.159046E-17	1.006973E-17
5.790000E+03	5.141489E-17	1.015597E-17
5.800000E+03	5.124457E-17	1.022734E-17
5.810000E+03	5.106393E-17	1.028083E-17
5.820000E+03	5.088857E-17	1.031969E-17
5.830000E+03	5.070303E-17	1.034089E-17
5.840000E+03	5.052279E-17	1.034771E-17
5.850000E+03	5.033249E-17	1.033714E-17
5.860000E+03	5.013986E-17	1.031090E-17
5.870000E+03	4.995251E-17	1.027073E-17
5.880000E+03	4.975522E-17	1.021364E-17
5.890000E+03	4.956317E-17	1.014294E-17
5.900000E+03	4.936124E-17	1.005570E-17
5.910000E+03	4.915698E-17	9.953668E-18
5.920000E+03	4.895784E-17	9.838541E-18
5.930000E+03	4.874885E-17	9.707512E-18
5.940000E+03	4.853748E-17	9.562312E-18
5.950000E+03	4.832369E-17	9.403165E-18
5.960000E+03	4.811477E-17	9.231707E-18
5.970000E+03	4.789600E-17	9.045344E-18
5.980000E+03	4.767471E-17	8.845761E-18
5.990000E+03	4.745084E-17	8.633220E-18
6.000000E+03	4.723155E-17	8.409276E-18
6.010000E+03	4.700239E-17	8.171621E-18
6.020000E+03	4.677054E-17	7.921872E-18
6.030000E+03	4.653596E-17	7.660343E-18
6.040000E+03	4.629862E-17	7.387369E-18
6.050000E+03	4.605849E-17	7.103301E-18
6.060000E+03	4.582252E-17	6.809550E-18
6.070000E+03	4.557673E-17	6.504398E-18
6.080000E+03	4.532811E-17	6.189354E-18
6.090000E+03	4.507666E-17	5.864888E-18
6.100000E+03	4.482241E-17	5.531514E-18
6.110000E+03	4.456539E-17	5.189808E-18
6.120000E+03	4.430563E-17	4.840425E-18
6.130000E+03	4.404320E-17	4.484134E-18
6.140000E+03	4.377816E-17	4.121861E-18
6.150000E+03	4.351063E-17	3.754764E-18
6.160000E+03	4.324071E-17	3.384354E-18
6.170000E+03	4.296852E-17	3.012710E-18
6.180000E+03	4.269424E-17	2.642851E-18
6.190000E+03	4.241802E-17	2.279445E-18
6.200000E+03	4.214006E-17	1.930201E-18
6.210000E+03	4.186058E-17	1.608631E-18
6.220000E+03	4.157346E-17	1.338857E-18
6.230000E+03	4.129165E-17	1.161762E-18
6.240000E+03	4.100902E-17	1.123874E-18
6.250000E+03	4.072568E-17	1.236215E-18
6.260000E+03	4.044153E-17	1.458929E-18
6.270000E+03	4.015648E-17	1.744736E-18
6.280000E+03	3.987044E-17	2.062488E-18
6.290000E+03	3.957735E-17	2.394542E-18
6.300000E+03	3.928924E-17	2.732112E-18
6.310000E+03	3.900005E-17	3.069494E-18
6.320000E+03	3.870980E-17	3.403468E-18
6.330000E+03	3.841268E-17	3.731452E-18
6.340000E+03	3.812049E-17	4.053229E-18
6.350000E+03	3.782743E-17	4.367413E-18
6.360000E+03	3.753360E-17	4.673415E-18
6.370000E+03	3.723346E-17	4.970079E-18
6.380000E+03	3.693852E-17	5.258606E-18
6.390000E+03	3.664323E-17	5.538109E-18
6.400000E+03	3.634221E-17	5.807600E-18
6.410000E+03	3.604675E-17	6.068755E-18
6.420000E+03	3.575145E-17	6.320724E-18
6.430000E+03	3.545111E-17	6.562533E-18
6.440000E+03	3.515675E-17	6.796199E-18
6.450000E+03	3.486313E-17	7.020837E-18
6.460000E+03	3.456520E-17	7.235445E-18
6.470000E+03	3.427372E-17	7.442310E-18
6.480000E+03	3.397842E-17	7.639332E-18
6.490000E+03	3.368989E-17	7.828954E-18
6.500000E+03	3.339803E-17	8.008980E-18
6.510000E+03	3.311326E-17	8.181990E-18
6.520000E+03	3.283064E-17	8.346970E-18
6.530000E+03	3.254541E-17	8.502808E-18
6.540000E+03	3.226772E-17	8.652264E-18
6.550000E+03	3.198788E-17	8.792924E-18
6.560000E+03	3.171587E-17	8.927650E-18
6.570000E+03	3.144214E-17	9.053950E-18
6.580000E+03	3.117648E-17	9.174774E-18
6.590000E+03	3.090953E-17	9.287559E-18
6.600000E+03	3.064623E-17	9.393901E-18
6.610000E+03	3.039135E-17	9.495464E-18
6.620000E+03	3.013574E-17	9.589587E-18
6.630000E+03	2.988876E-17	9.679393E-18
6.640000E+03	2.964138E-17	9.762160E-18
6.650000E+03	2.940280E-17	9.841065E-18
6.660000E+03	2.916414E-17	9.913330E-18
6.670000E+03	2.893001E-17	9.980653E-18
6.680000E+03	2.870489E-17	1.004477E-17
6.690000E+03	2.848009E-17	1.010284E-17
6.700000E+03	2.826010E-17	1.015657E-17
6.710000E+03	2.804927E-17	1.020772E-17
6.720000E+03	2.783909E-17	1.025337E-17
6.730000E+03	2.763393E-17	1.029525E-17
6.740000E+03	2.743802E-17	1.033513E-17
6.750000E+03	2.724302E-17	1.037003E-17
6.760000E+03	2.705318E-17	1.040168E-17
6.770000E+03	2.686854E-17	1.043026E-17
6.780000E+03	2.669320E-17	1.045752E-17
6.790000E+03	2.651900E-17	1.048042E-17
6.800000E+03	2.635007E-17	1.050069E-17
6.810000E+03	2.618641E-17	1.051849E-17
6.820000E+03	2.603200E-17	1.053554E-17
6.830000E+03	2.587886E-17	1.054876E-17
6.840000E+03	2.573098E-17	1.055988E-17
6.850000E+03	2.558836E-17	1.056902E-17
6.860000E+03	2.545096E-17	1.057627E-17
6.870000E+03	2.532264E-17	1.058336E-17
6.880000E+03	2.519559E-17	1.058716E-17
6.890000E+03	2.507369E-17	1.058935E-17
6.900000E+03	2.495687E-17	1.059004E-17
6.910000E+03	2.484510E-17	1.058929E-17
6.920000E+03	2.473832E-17	1.058718E-17
6.930000E+03	2.463648E-17	1.058377E-17
6.940000E+03	2.454325E-17	1.058074E-17
6.950000E+03	2.445107E-17	1.057490E-17
6.960000E+03	2.436361E-17	1.056792E-17
6.970000E+03	2.428080E-17	1.055985E-17
6.980000E+03	2.420255E-17	1.055072E-17
6.990000E+03	2.412878E-17	1.054056E-17
7.000000E+03	2.405939E-17	1.052941E-17
7.010000E+03	2.399427E-17	1.051727E-17
7.020000E+03	2.393334E-17	1.050418E-17
7.030000E+03	2.387646E-17	1.049014E-17
7.040000E+03	2.382353E-17	1.047517E-17
7.050000E+03	2.377443E-17	1.045927E-17
7.060000E+03	2.372902E-17	1.044244E-17
7.070000E+03	2.368718E-17	1.042468E-17
7.080000E+03	2.364877E-17	1.040599E-17
7.090000E+03	2.361364E-17	1.038636E-17
7.100000E+03	2.358164E-17	1.036579E-17
7.110000E+03	2.355263E-17	1.034425E-17
7.120000E+03	2.352642E-17	1.032175E-17
7.130000E+03	2.350287E-17	1.029825E-17
7.140000E+03	2.347820E-17	1.027218E-17
7.150000E+03	2.345943E-17	1.024666E-17
7.160000E+03	2.344278E-17	1.022011E-17
7.170000E+03	2.342805E-17	1.019251E-17
7.180000E+03	2.341505E-17	1.016383E-17
7.190000E+03	2.340359E-17	1.013407E-17
7.200000E+03	2.339345E-17	1.010321E-17
7.210000E+03	2.338443E-17	1.007123E-17
7.220000E+03	2.337271E-17	1.003659E-17
7.230000E+03	2.336526E-17	1.000236E-17
7.240000E+03	2.335826E-17	9.966989E-18
7.250000E+03	2.335148E-17	9.930478E-18
7.260000E+03	2.334469E-17	9.892826E-18
7.270000E+03	2.333406E-17	9.852523E-18
7.280000E+03	2.332653E-17	9.812616E-18
7.290000E+03	2.331826E-17	9.771596E-18
7.300000E+03	2.330900E-17	9.729483E-18
7.310000E+03	2.329493E-17	9.684810E-18
7.320000E+03	2.328297E-17	9.640596E-18
7.330000E+03	2.326927E-17	9.595379E-18
7.340000E+03	2.325360E-17	9.549198E-18
7.350000E+03	2.323211E-17	9.500639E-18
7.360000E+03	2.321173E-17	9.452687E-18
7.370000E+03	2.318861E-17	9.403930E-18
7.380000E+03	2.315897E-17	9.352989E-18
7.390000E+03	2.312968E-17	9.302826E-18
7.400000E+03	2.309696E-17	9.252063E-18
7.410000E+03	2.305701E-17	9.199362E-18
7.420000E+03	2.301674E-17	9.147648E-18
7.430000E+03	2.297236E-17	9.095581E-18
7.440000E+03	2.292014E-17	9.041854E-18
7.450000E+03	2.286697E-17	8.989356E-18
7.460000E+03	2.280559E-17	8.935394E-18
7.470000E+03	2.274288E-17	8.882827E-18
7.480000E+03	2.267517E-17	8.830357E-18
7.490000E+03	2.259880E-17	8.776718E-18
7.500000E+03	2.252065E-17	8.724715E-18
7.510000E+03	2.243364E-17	8.671725E-18
7.520000E+03	2.234461E-17	8.620514E-18
7.530000E+03	2.224656E-17	8.568480E-18
7.540000E+03	2.214633E-17	8.518345E-18
7.550000E+03	2.203700E-17	8.467523E-18
7.560000E+03	2.192540E-17	8.418690E-18
7.570000E+03	2.180470E-17	8.369271E-18
7.580000E+03	2.168169E-17	8.321895E-18
7.590000E+03	2.154968E-17	8.273998E-18
7.600000E+03	2.141541E-17	8.228159E-18
7.610000E+03	2.127229E-17	8.181820E-18
7.620000E+03	2.112703E-17	8.137513E-18
7.630000E+03	2.097316E-17	8.092689E-18
7.640000E+03	2.081734E-17	8.049832E-18
7.650000E+03	2.065323E-17	8.006400E-18
7.660000E+03	2.048424E-17	7.963600E-18
7.670000E+03	2.031368E-17	7.922606E-18
7.680000E+03	2.013543E-17	7.880892E-18
7.690000E+03	1.995596E-17	7.840842E-18
7.700000E+03	1.976925E-17	7.799945E-18
7.710000E+03	1.957865E-17	7.759348E-18
7.720000E+03	1.938741E-17	7.720174E-18
7.730000E+03	1.918971E-17	7.679939E-18
7.740000E+03	1.898884E-17	7.639770E-18
7.750000E+03	1.878797E-17	7.600770E-18
7.760000E+03	1.858148E-17	7.560495E-18
