#wls	flux	fluxerr
1.590916E+03	2.786186E-17	1.032761E-18
1.630689E+03	2.940484E-17	1.084663E-18
1.670462E+03	3.097996E-17	1.137056E-18
1.710235E+03	3.257749E-17	1.189542E-18
1.750007E+03	3.419273E-17	1.241915E-18
1.789780E+03	3.578140E-17	1.292540E-18
1.829553E+03	3.728537E-17	1.339320E-18
1.869326E+03	3.863210E-17	1.379691E-18
1.909099E+03	3.971986E-17	1.410117E-18
1.948872E+03	4.046034E-17	1.427626E-18
1.988645E+03	4.080800E-17	1.430836E-18
2.028418E+03	4.083672E-17	1.422571E-18
2.068191E+03	4.075704E-17	1.410330E-18
2.107964E+03	4.098995E-17	1.408655E-18
2.147736E+03	4.221766E-17	1.440594E-18
2.187509E+03	4.488760E-17	1.520556E-18
2.227282E+03	4.905135E-17	1.649154E-18
2.267055E+03	5.449966E-17	1.818195E-18
2.306828E+03	6.094038E-17	2.016914E-18
2.346601E+03	6.815967E-17	2.237387E-18
2.386374E+03	7.604231E-17	2.475101E-18
2.426147E+03	8.456616E-17	2.728644E-18
2.465920E+03	9.376973E-17	2.998547E-18
2.505692E+03	1.036451E-16	3.283795E-18
2.545465E+03	1.140267E-16	3.578410E-18
2.585238E+03	1.242612E-16	3.861429E-18
2.625011E+03	1.330375E-16	4.092459E-18
2.664784E+03	1.402581E-16	4.269727E-18
2.704557E+03	1.468860E-16	4.423577E-18
2.744330E+03	1.534727E-16	4.570876E-18
2.784103E+03	1.602601E-16	4.718649E-18
2.823876E+03	1.673387E-16	4.869187E-18
2.863649E+03	1.747283E-16	5.022602E-18
2.903421E+03	1.824123E-16	5.177937E-18
2.943194E+03	1.903664E-16	5.334033E-18
2.982967E+03	1.985680E-16	5.489801E-18
2.992910E+03	2.006607E-16	5.528741E-18
3.002854E+03	2.027636E-16	5.567476E-18
3.012797E+03	2.048846E-16	5.606223E-18
3.022740E+03	2.070221E-16	5.644926E-18
3.032683E+03	2.091936E-16	5.684056E-18
3.042627E+03	2.114148E-16	5.724024E-18
3.052570E+03	2.136762E-16	5.764554E-18
3.062513E+03	2.159871E-16	5.805884E-18
3.072456E+03	2.183348E-16	5.847661E-18
3.082399E+03	2.207255E-16	5.890026E-18
3.092343E+03	2.231520E-16	5.932781E-18
3.102286E+03	2.256125E-16	5.975860E-18
3.112229E+03	2.281146E-16	6.019452E-18
3.122172E+03	2.306487E-16	6.063286E-18
3.132116E+03	2.332279E-16	6.107698E-18
3.142059E+03	2.358398E-16	6.152343E-18
3.152002E+03	2.384989E-16	6.197584E-18
3.161945E+03	2.411985E-16	6.243234E-18
3.171889E+03	2.439503E-16	6.289575E-18
3.181832E+03	2.467536E-16	6.336570E-18
3.191775E+03	2.496174E-16	6.384432E-18
3.201718E+03	2.525470E-16	6.433273E-18
3.211661E+03	2.555488E-16	6.483231E-18
3.221605E+03	2.586257E-16	6.534352E-18
3.231548E+03	2.617945E-16	6.587032E-18
3.241491E+03	2.650596E-16	6.641348E-18
3.251434E+03	2.684351E-16	6.697619E-18
3.261378E+03	2.719271E-16	6.755954E-18
3.271321E+03	2.755462E-16	6.816577E-18
3.281264E+03	2.793078E-16	6.879822E-18
3.291207E+03	2.832185E-16	6.945802E-18
3.301150E+03	2.872929E-16	7.014818E-18
3.311094E+03	2.915402E-16	7.087036E-18
3.321037E+03	2.959592E-16	7.162364E-18
3.330980E+03	3.005623E-16	7.241046E-18
3.340923E+03	3.053456E-16	7.322918E-18
3.350867E+03	3.103031E-16	7.407770E-18
3.360810E+03	3.154214E-16	7.495224E-18
3.370753E+03	3.206688E-16	7.584470E-18
3.380696E+03	3.260193E-16	7.674849E-18
3.390639E+03	3.314220E-16	7.765123E-18
3.400583E+03	3.368150E-16	7.853829E-18
3.410526E+03	3.421358E-16	7.939511E-18
3.420469E+03	3.473220E-16	8.020748E-18
3.430412E+03	3.523065E-16	8.096036E-18
3.440356E+03	3.570447E-16	8.164419E-18
3.450299E+03	3.615000E-16	8.225142E-18
3.460242E+03	3.656737E-16	8.278327E-18
3.470185E+03	3.695900E-16	8.324611E-18
3.480128E+03	3.732871E-16	8.364935E-18
3.490072E+03	3.768030E-16	8.400215E-18
3.500015E+03	3.801614E-16	8.431040E-18
3.509958E+03	3.833606E-16	8.457423E-18
3.519901E+03	3.863834E-16	8.479036E-18
3.529845E+03	3.892139E-16	8.495593E-18
3.539788E+03	3.918408E-16	8.506917E-18
3.549731E+03	3.942700E-16	8.513200E-18
3.559674E+03	3.965075E-16	8.514639E-18
3.569617E+03	3.985673E-16	8.511601E-18
3.579561E+03	4.004497E-16	8.504156E-18
3.589504E+03	4.021435E-16	8.492129E-18
3.599447E+03	4.035979E-16	8.474517E-18
3.609390E+03	4.047403E-16	8.449893E-18
3.619334E+03	4.054548E-16	8.415963E-18
3.629277E+03	4.056117E-16	8.370205E-18
3.639220E+03	4.050719E-16	8.309968E-18
3.649163E+03	4.037168E-16	8.233090E-18
3.659107E+03	4.014764E-16	8.138451E-18
3.669050E+03	3.983509E-16	8.026385E-18
3.678993E+03	3.944241E-16	7.898898E-18
3.688936E+03	3.898818E-16	7.759988E-18
3.698879E+03	3.850034E-16	7.615415E-18
3.708823E+03	3.801723E-16	7.472846E-18
3.718766E+03	3.758367E-16	7.341025E-18
3.728709E+03	3.724889E-16	7.229330E-18
3.738652E+03	3.706347E-16	7.147149E-18
3.748596E+03	3.707535E-16	7.103111E-18
3.758539E+03	3.732458E-16	7.104102E-18
3.768482E+03	3.783882E-16	7.154458E-18
3.778425E+03	3.862693E-16	7.254844E-18
3.788368E+03	3.967833E-16	7.402247E-18
3.798312E+03	4.096170E-16	7.589858E-18
3.808255E+03	4.242307E-16	7.806857E-18
3.818198E+03	4.398749E-16	8.038859E-18
3.828141E+03	4.556826E-16	8.269724E-18
3.838085E+03	4.707404E-16	8.482924E-18
3.848028E+03	4.842194E-16	8.663904E-18
3.857971E+03	4.954478E-16	8.801326E-18
3.867914E+03	5.040545E-16	8.889506E-18
3.877857E+03	5.099746E-16	8.928318E-18
3.887801E+03	5.134500E-16	8.922996E-18
3.897744E+03	5.149440E-16	8.882483E-18
3.907687E+03	5.150319E-16	8.817394E-18
3.917630E+03	5.142535E-16	8.737453E-18
3.927574E+03	5.130249E-16	8.650018E-18
3.937517E+03	5.115886E-16	8.559323E-18
3.947460E+03	5.100522E-16	8.467243E-18
3.957403E+03	5.084069E-16	8.373676E-18
3.967346E+03	5.065767E-16	8.277428E-18
3.977290E+03	5.044486E-16	8.176748E-18
3.987233E+03	5.019221E-16	8.070139E-18
3.997176E+03	4.989295E-16	7.956687E-18
4.007119E+03	4.954717E-16	7.836592E-18
4.017063E+03	4.916151E-16	7.711089E-18
4.027006E+03	4.874868E-16	7.582316E-18
4.036949E+03	4.832147E-16	7.452361E-18
4.046892E+03	4.789275E-16	7.323253E-18
4.056835E+03	4.747269E-16	7.196548E-18
4.066779E+03	4.706802E-16	7.073230E-18
4.076722E+03	4.668386E-16	6.954007E-18
4.086665E+03	4.632547E-16	6.839582E-18
4.096608E+03	4.600167E-16	6.731148E-18
4.106552E+03	4.572433E-16	6.630299E-18
4.116495E+03	4.550759E-16	6.538887E-18
4.126438E+03	4.536249E-16	6.458252E-18
4.136381E+03	4.529501E-16	6.388960E-18
4.146324E+03	4.530093E-16	6.330123E-18
4.156268E+03	4.536227E-16	6.278968E-18
4.166211E+03	4.544855E-16	6.231105E-18
4.176154E+03	4.551898E-16	6.180904E-18
4.186097E+03	4.553263E-16	6.122931E-18
4.196041E+03	4.545635E-16	6.053007E-18
4.205984E+03	4.527041E-16	5.968890E-18
4.215927E+03	4.497043E-16	5.870448E-18
4.225870E+03	4.457046E-16	5.759952E-18
4.235814E+03	4.409488E-16	5.640919E-18
4.245757E+03	4.356532E-16	5.516390E-18
4.255700E+03	4.299189E-16	5.387851E-18
4.265643E+03	4.238012E-16	5.256162E-18
4.275586E+03	4.173752E-16	5.122399E-18
4.285530E+03	4.107744E-16	4.988308E-18
4.295473E+03	4.042399E-16	4.856855E-18
4.305416E+03	3.981385E-16	4.732379E-18
4.315359E+03	3.929321E-16	4.620146E-18
4.325303E+03	3.891219E-16	4.525648E-18
4.335246E+03	3.871376E-16	4.453296E-18
4.345189E+03	3.872550E-16	4.405540E-18
4.355132E+03	3.895703E-16	4.382675E-18
4.365075E+03	3.940088E-16	4.383050E-18
4.375019E+03	4.002954E-16	4.402857E-18
4.384962E+03	4.080120E-16	4.436882E-18
4.394905E+03	4.166755E-16	4.479421E-18
4.404848E+03	4.258210E-16	4.525212E-18
4.414792E+03	4.350080E-16	4.569484E-18
4.424735E+03	4.438123E-16	4.607851E-18
4.434678E+03	4.518067E-16	4.636105E-18
4.444621E+03	4.585639E-16	4.650242E-18
4.454564E+03	4.636643E-16	4.646540E-18
4.464508E+03	4.667065E-16	4.621646E-18
4.474451E+03	4.673841E-16	4.573324E-18
4.484394E+03	4.655430E-16	4.500941E-18
4.494337E+03	4.612375E-16	4.405911E-18
4.504281E+03	4.547473E-16	4.291738E-18
4.514224E+03	4.465418E-16	4.163548E-18
4.524167E+03	4.372257E-16	4.027491E-18
4.534110E+03	4.274380E-16	3.889745E-18
4.544053E+03	4.177805E-16	3.755862E-18
4.553997E+03	4.087325E-16	3.630042E-18
4.563940E+03	4.006258E-16	3.514980E-18
4.573883E+03	3.936263E-16	3.411799E-18
4.583826E+03	3.877955E-16	3.320665E-18
4.593770E+03	3.831258E-16	3.241141E-18
4.603713E+03	3.796383E-16	3.173042E-18
4.613656E+03	3.774397E-16	3.116895E-18
4.623599E+03	3.767500E-16	3.074118E-18
4.633542E+03	3.778859E-16	3.046834E-18
4.643486E+03	3.812495E-16	3.037745E-18
4.653429E+03	3.872051E-16	3.049126E-18
4.663372E+03	3.959766E-16	3.082047E-18
4.673315E+03	4.076043E-16	3.136119E-18
4.683259E+03	4.219337E-16	3.209493E-18
4.693202E+03	4.386887E-16	3.299489E-18
4.703145E+03	4.574933E-16	3.402820E-18
4.713088E+03	4.778146E-16	3.515193E-18
4.723031E+03	4.987489E-16	3.629819E-18
4.732975E+03	5.188248E-16	3.736120E-18
4.742918E+03	5.357974E-16	3.818453E-18
4.752861E+03	5.465612E-16	3.855699E-18
4.762804E+03	5.489734E-16	3.834278E-18
4.772748E+03	5.449646E-16	3.769275E-18
4.782691E+03	5.370860E-16	3.679416E-18
4.792634E+03	5.273068E-16	3.578745E-18
4.802577E+03	5.169965E-16	3.476743E-18
4.812521E+03	5.070050E-16	3.379077E-18
4.822464E+03	4.977516E-16	3.288370E-18
4.832407E+03	4.893336E-16	3.205045E-18
4.842350E+03	4.816568E-16	3.128273E-18
4.852293E+03	4.745283E-16	3.056614E-18
4.862237E+03	4.677100E-16	2.988395E-18
4.872180E+03	4.609522E-16	2.921921E-18
4.882123E+03	4.540827E-16	2.856040E-18
4.892066E+03	4.470309E-16	2.790266E-18
4.902010E+03	4.398587E-16	2.724955E-18
4.911953E+03	4.327477E-16	2.661184E-18
4.921896E+03	4.259460E-16	2.600408E-18
4.931839E+03	4.197093E-16	2.544086E-18
4.941782E+03	4.142568E-16	2.493421E-18
4.951726E+03	4.097364E-16	2.449156E-18
4.961669E+03	4.062625E-16	2.411819E-18
4.971612E+03	4.038977E-16	2.381619E-18
4.981555E+03	4.026640E-16	2.358528E-18
4.991499E+03	4.025394E-16	2.342260E-18
5.001442E+03	4.034350E-16	2.332154E-18
5.011385E+03	4.052175E-16	2.327313E-18
5.021328E+03	4.077176E-16	2.326659E-18
5.031271E+03	4.107472E-16	2.329035E-18
5.041215E+03	4.141297E-16	2.333379E-18
5.051158E+03	4.177423E-16	2.338958E-18
5.061101E+03	4.215143E-16	2.345348E-18
5.071044E+03	4.254415E-16	2.352506E-18
5.080988E+03	4.295539E-16	2.360577E-18
5.090931E+03	4.338916E-16	2.369759E-18
5.100874E+03	4.384654E-16	2.380089E-18
5.110817E+03	4.432699E-16	2.391515E-18
5.120760E+03	4.482296E-16	2.403615E-18
5.130704E+03	4.532308E-16	2.415774E-18
5.140647E+03	4.581206E-16	2.427185E-18
5.150590E+03	4.627330E-16	2.436994E-18
5.160533E+03	4.669104E-16	2.444415E-18
5.170477E+03	4.705229E-16	2.448826E-18
5.180420E+03	4.735187E-16	2.450027E-18
5.190363E+03	4.759141E-16	2.448175E-18
5.200306E+03	4.777817E-16	2.443712E-18
5.210249E+03	4.792672E-16	2.437446E-18
5.220193E+03	4.805628E-16	2.430402E-18
5.230136E+03	4.818939E-16	2.423756E-18
5.240079E+03	4.834737E-16	2.418594E-18
5.250022E+03	4.854691E-16	2.415755E-18
5.259966E+03	4.879531E-16	2.415598E-18
5.269909E+03	4.908803E-16	2.417896E-18
5.279852E+03	4.941026E-16	2.421928E-18
5.289795E+03	4.974183E-16	2.426728E-18
5.299738E+03	5.006364E-16	2.431406E-18
5.309682E+03	5.036195E-16	2.435348E-18
5.319625E+03	5.063780E-16	2.438666E-18
5.329568E+03	5.090926E-16	2.442286E-18
5.339511E+03	5.120086E-16	2.447432E-18
5.349455E+03	5.153252E-16	2.455093E-18
5.359398E+03	5.191854E-16	2.465983E-18
5.369341E+03	5.236140E-16	2.480253E-18
5.379284E+03	5.285767E-16	2.497780E-18
5.389228E+03	5.340348E-16	2.518427E-18
5.399171E+03	5.400087E-16	2.542343E-18
5.409114E+03	5.465499E-16	2.569831E-18
5.419057E+03	5.536760E-16	2.601036E-18
5.429000E+03	5.610661E-16	2.634523E-18
5.438944E+03	5.675724E-16	2.664969E-18
5.448887E+03	5.707433E-16	2.680861E-18
5.458830E+03	5.666986E-16	2.663895E-18
5.468773E+03	5.532214E-16	2.603473E-18
5.478717E+03	5.345265E-16	2.519177E-18
5.488660E+03	5.145530E-16	2.429345E-18
5.498603E+03	4.954861E-16	2.344134E-18
5.508546E+03	4.781868E-16	2.267518E-18
5.518489E+03	4.627045E-16	2.199669E-18
5.528433E+03	4.487282E-16	2.139064E-18
5.538376E+03	4.358965E-16	2.083939E-18
5.548319E+03	4.239427E-16	2.032980E-18
5.558262E+03	4.128229E-16	1.985937E-18
5.568206E+03	4.026773E-16	1.943460E-18
5.578149E+03	3.937315E-16	1.906625E-18
5.588092E+03	3.861364E-16	1.876172E-18
5.598035E+03	3.798838E-16	1.852077E-18
5.607978E+03	3.748395E-16	1.833711E-18
5.617922E+03	3.707638E-16	1.819916E-18
5.627865E+03	3.673952E-16	1.809418E-18
5.637808E+03	3.645278E-16	1.801202E-18
5.647751E+03	3.620471E-16	1.794691E-18
5.657695E+03	3.599918E-16	1.790069E-18
5.667638E+03	3.584842E-16	1.787937E-18
5.677581E+03	3.576457E-16	1.788900E-18
5.687524E+03	3.575484E-16	1.793323E-18
5.697467E+03	3.581800E-16	1.801148E-18
5.707411E+03	3.594409E-16	1.811874E-18
5.717354E+03	3.611570E-16	1.824618E-18
5.727297E+03	3.630835E-16	1.838129E-18
5.737240E+03	3.649730E-16	1.851130E-18
5.747184E+03	3.665894E-16	1.862395E-18
5.757127E+03	3.677762E-16	1.871097E-18
5.767070E+03	3.684449E-16	1.876752E-18
5.777013E+03	3.685985E-16	1.879346E-18
5.786956E+03	3.682948E-16	1.879151E-18
5.796900E+03	3.675982E-16	1.876476E-18
5.806843E+03	3.665258E-16	1.871394E-18
5.816786E+03	3.650757E-16	1.863885E-18
5.826729E+03	3.632604E-16	1.854009E-18
5.836673E+03	3.611213E-16	1.841975E-18
5.846616E+03	3.587347E-16	1.828175E-18
5.856559E+03	3.562460E-16	1.813354E-18
5.866502E+03	3.538291E-16	1.798402E-18
5.876445E+03	3.516793E-16	1.784312E-18
5.886389E+03	3.499596E-16	1.771907E-18
5.896332E+03	3.487656E-16	1.761661E-18
5.906275E+03	3.481228E-16	1.753684E-18
5.916218E+03	3.479675E-16	1.747636E-18
5.926162E+03	3.481550E-16	1.742768E-18
5.936105E+03	3.485251E-16	1.738266E-18
5.946048E+03	3.489330E-16	1.733396E-18
5.955991E+03	3.493096E-16	1.727817E-18
5.965935E+03	3.496587E-16	1.721549E-18
5.975878E+03	3.500426E-16	1.714903E-18
5.985821E+03	3.505599E-16	1.708359E-18
5.995764E+03	3.512810E-16	1.702253E-18
6.005707E+03	3.522372E-16	1.696723E-18
6.015651E+03	3.533668E-16	1.691457E-18
6.025594E+03	3.545488E-16	1.685870E-18
6.035537E+03	3.556185E-16	1.679187E-18
6.045480E+03	3.564357E-16	1.670768E-18
6.055424E+03	3.569345E-16	1.660345E-18
6.065367E+03	3.571783E-16	1.648259E-18
6.075310E+03	3.573925E-16	1.635585E-18
6.085253E+03	3.579187E-16	1.623897E-18
6.095196E+03	3.592001E-16	1.615168E-18
6.105140E+03	3.617027E-16	1.611402E-18
6.115083E+03	3.658999E-16	1.614555E-18
6.125026E+03	3.722073E-16	1.626240E-18
6.134969E+03	3.809844E-16	1.647753E-18
6.144913E+03	3.924615E-16	1.679764E-18
6.154856E+03	4.066978E-16	1.722174E-18
6.164799E+03	4.234346E-16	1.773538E-18
6.174742E+03	4.419037E-16	1.830351E-18
6.184685E+03	4.604785E-16	1.885739E-18
6.194629E+03	4.762707E-16	1.928039E-18
6.204572E+03	4.849685E-16	1.940446E-18
6.214515E+03	4.850944E-16	1.918186E-18
6.224458E+03	4.807683E-16	1.878636E-18
6.234402E+03	4.755128E-16	1.836095E-18
6.244345E+03	4.715823E-16	1.799365E-18
6.254288E+03	4.701615E-16	1.772808E-18
6.264231E+03	4.716593E-16	1.757687E-18
6.274174E+03	4.759985E-16	1.753417E-18
6.284118E+03	4.827640E-16	1.758223E-18
6.294061E+03	4.914241E-16	1.770005E-18
6.304004E+03	5.015081E-16	1.786996E-18
6.313947E+03	5.127280E-16	1.808173E-18
6.323891E+03	5.249805E-16	1.833225E-18
6.333834E+03	5.382701E-16	1.862258E-18
6.343777E+03	5.525475E-16	1.895220E-18
6.353720E+03	5.675940E-16	1.931520E-18
6.363663E+03	5.829574E-16	1.969828E-18
6.373607E+03	5.979516E-16	2.008098E-18
6.383550E+03	6.117152E-16	2.043762E-18
6.393493E+03	6.233730E-16	2.074256E-18
6.403436E+03	6.322750E-16	2.097779E-18
6.413380E+03	6.379727E-16	2.113162E-18
6.423323E+03	6.402742E-16	2.120020E-18
6.433266E+03	6.392321E-16	2.118682E-18
6.443209E+03	6.350251E-16	2.109797E-18
6.453152E+03	6.280562E-16	2.094644E-18
6.463096E+03	6.190658E-16	2.075445E-18
6.473039E+03	6.093672E-16	2.056286E-18
6.482982E+03	6.013614E-16	2.045032E-18
6.492925E+03	5.992445E-16	2.055976E-18
6.502869E+03	6.041063E-16	2.093266E-18
6.512812E+03	6.119374E-16	2.143479E-18
6.522755E+03	6.201838E-16	2.197834E-18
6.532698E+03	6.275790E-16	2.251766E-18
6.542642E+03	6.333894E-16	2.302409E-18
6.552585E+03	6.370301E-16	2.347282E-18
6.562528E+03	6.380202E-16	2.384140E-18
6.572471E+03	6.362466E-16	2.412004E-18
6.582414E+03	6.321525E-16	2.431975E-18
6.592358E+03	6.265199E-16	2.446560E-18
6.602301E+03	6.200856E-16	2.458257E-18
6.612244E+03	6.134346E-16	2.469126E-18
6.622187E+03	6.069074E-16	2.480383E-18
6.632131E+03	6.006327E-16	2.492456E-18
6.642074E+03	5.946328E-16	2.505369E-18
6.652017E+03	5.888426E-16	2.518789E-18
6.661960E+03	5.832289E-16	2.532515E-18
6.671903E+03	5.777932E-16	2.546498E-18
6.681847E+03	5.725885E-16	2.560930E-18
6.691790E+03	5.676330E-16	2.575866E-18
6.701733E+03	5.628615E-16	2.590986E-18
6.711676E+03	5.581706E-16	2.605785E-18
6.721620E+03	5.533893E-16	2.619415E-18
6.731563E+03	5.483426E-16	2.630969E-18
6.741506E+03	5.427917E-16	2.639191E-18
6.751449E+03	5.364620E-16	2.642594E-18
6.761392E+03	5.290817E-16	2.639641E-18
6.771336E+03	5.203958E-16	2.628820E-18
6.781279E+03	5.103239E-16	2.609458E-18
6.791222E+03	4.989697E-16	2.581822E-18
6.801165E+03	4.866951E-16	2.547573E-18
6.811109E+03	4.740164E-16	2.509281E-18
6.821052E+03	4.616145E-16	2.470529E-18
6.830995E+03	4.502191E-16	2.435327E-18
6.840938E+03	4.404687E-16	2.407350E-18
6.850881E+03	4.328044E-16	2.389325E-18
6.860825E+03	4.274408E-16	2.382801E-18
6.870768E+03	4.242348E-16	2.387347E-18
6.880711E+03	4.227224E-16	2.400668E-18
6.890654E+03	4.222154E-16	2.419077E-18
6.900598E+03	4.220607E-16	2.438939E-18
6.910541E+03	4.217609E-16	2.457399E-18
6.920484E+03	4.210154E-16	2.472661E-18
6.930427E+03	4.197253E-16	2.484070E-18
6.940370E+03	4.179300E-16	2.491785E-18
6.950314E+03	4.157415E-16	2.496412E-18
6.960257E+03	4.133036E-16	2.498770E-18
6.970200E+03	4.107469E-16	2.499630E-18
6.980143E+03	4.081675E-16	2.499569E-18
6.990087E+03	4.055870E-16	2.498725E-18
7.000030E+03	4.030227E-16	2.497212E-18
7.009973E+03	4.004344E-16	2.494788E-18
7.019916E+03	3.977980E-16	2.491310E-18
7.029860E+03	3.950784E-16	2.486559E-18
7.039803E+03	3.922449E-16	2.480346E-18
7.049746E+03	3.892353E-16	2.472275E-18
7.059689E+03	3.859522E-16	2.461725E-18
7.069632E+03	3.822669E-16	2.447861E-18
7.079576E+03	3.780736E-16	2.429992E-18
7.089519E+03	3.732949E-16	2.407601E-18
7.099462E+03	3.679438E-16	2.380756E-18
7.109405E+03	3.621519E-16	2.350300E-18
7.119349E+03	3.561752E-16	2.317900E-18
7.129292E+03	3.503425E-16	2.285722E-18
7.139235E+03	3.449255E-16	2.255576E-18
7.149178E+03	3.401023E-16	2.228677E-18
7.159121E+03	3.359512E-16	2.205585E-18
7.169065E+03	3.324471E-16	2.186183E-18
7.179008E+03	3.295226E-16	2.170068E-18
7.188951E+03	3.270832E-16	2.156650E-18
7.198894E+03	3.250981E-16	2.145752E-18
7.208838E+03	3.235899E-16	2.137547E-18
7.218781E+03	3.226118E-16	2.132407E-18
7.228724E+03	3.221980E-16	2.130574E-18
7.238667E+03	3.223290E-16	2.131933E-18
7.248610E+03	3.229187E-16	2.135924E-18
7.258554E+03	3.238520E-16	2.141791E-18
7.268497E+03	3.249839E-16	2.148581E-18
7.278440E+03	3.261595E-16	2.155274E-18
7.288383E+03	3.272249E-16	2.160856E-18
7.298327E+03	3.280683E-16	2.164598E-18
7.308270E+03	3.286175E-16	2.166036E-18
7.318213E+03	3.288278E-16	2.164889E-18
7.328156E+03	3.287260E-16	2.161353E-18
7.338099E+03	3.283651E-16	2.155796E-18
7.348043E+03	3.278214E-16	2.148737E-18
7.357986E+03	3.271628E-16	2.140641E-18
7.367929E+03	3.264656E-16	2.132025E-18
7.377872E+03	3.258025E-16	2.123379E-18
7.387816E+03	3.252423E-16	2.115166E-18
7.397759E+03	3.248830E-16	2.108031E-18
7.407702E+03	3.247909E-16	2.102409E-18
7.417645E+03	3.250522E-16	2.098862E-18
7.427588E+03	3.257373E-16	2.097840E-18
7.437532E+03	3.269357E-16	2.099910E-18
7.447475E+03	3.287236E-16	2.105550E-18
7.457418E+03	3.312051E-16	2.115406E-18
7.467361E+03	3.344630E-16	2.129983E-18
7.477305E+03	3.385253E-16	2.149425E-18
7.487248E+03	3.433328E-16	2.173312E-18
7.497191E+03	3.485931E-16	2.199759E-18
7.507134E+03	3.537812E-16	2.225437E-18
7.517077E+03	3.581553E-16	2.245704E-18
7.527021E+03	3.609070E-16	2.255559E-18
7.536964E+03	3.612332E-16	2.250106E-18
7.546907E+03	3.584441E-16	2.225224E-18
7.556850E+03	3.519698E-16	2.177594E-18
7.566794E+03	3.414018E-16	2.104944E-18
7.576737E+03	3.271121E-16	2.009836E-18
7.586680E+03	3.118015E-16	1.909060E-18
7.596623E+03	2.982324E-16	1.819551E-18
7.606567E+03	2.881186E-16	1.751628E-18
7.616510E+03	2.820102E-16	1.708412E-18
7.626453E+03	2.794416E-16	1.686843E-18
7.636396E+03	2.793084E-16	1.680063E-18
7.646339E+03	2.803921E-16	1.680624E-18
7.656283E+03	2.816384E-16	1.682165E-18
7.666226E+03	2.823198E-16	1.680361E-18
7.676169E+03	2.821109E-16	1.673332E-18
7.686112E+03	2.810206E-16	1.661200E-18
7.696056E+03	2.792667E-16	1.645317E-18
7.705999E+03	2.771200E-16	1.627325E-18
7.715942E+03	2.748029E-16	1.608564E-18
