#wls	flux	fluxerr
1.590916E+03	3.554553E-17	1.653088E-18
1.630689E+03	3.623387E-17	1.672700E-18
1.670462E+03	3.678286E-17	1.685226E-18
1.710235E+03	3.718171E-17	1.690314E-18
1.750007E+03	3.740969E-17	1.687180E-18
1.789780E+03	3.742667E-17	1.674210E-18
1.829553E+03	3.718319E-17	1.649443E-18
1.869326E+03	3.663005E-17	1.611012E-18
1.909099E+03	3.571361E-17	1.556942E-18
1.948872E+03	3.442954E-17	1.487484E-18
1.988645E+03	3.283850E-17	1.405692E-18
2.028418E+03	3.114579E-17	1.320668E-18
2.068191E+03	2.972214E-17	1.248135E-18
2.107964E+03	2.900078E-17	1.205803E-18
2.147736E+03	2.924915E-17	1.203821E-18
2.187509E+03	3.055572E-17	1.244565E-18
2.227282E+03	3.284564E-17	1.323648E-18
2.267055E+03	3.589744E-17	1.430933E-18
2.306828E+03	3.946177E-17	1.555548E-18
2.346601E+03	4.332165E-17	1.688303E-18
2.386374E+03	4.732537E-17	1.822894E-18
2.426147E+03	5.140015E-17	1.956291E-18
2.465920E+03	5.553506E-17	2.087921E-18
2.505692E+03	5.978478E-17	2.219665E-18
2.545465E+03	6.430081E-17	2.356847E-18
2.585238E+03	6.945304E-17	2.512400E-18
2.625011E+03	7.586399E-17	2.707552E-18
2.664784E+03	8.369018E-17	2.945886E-18
2.704557E+03	9.263701E-17	3.214992E-18
2.744330E+03	1.024846E-16	3.505563E-18
2.784103E+03	1.130815E-16	3.811015E-18
2.823876E+03	1.243207E-16	4.126533E-18
2.863649E+03	1.360587E-16	4.446318E-18
2.903421E+03	1.481416E-16	4.764532E-18
2.943194E+03	1.604031E-16	5.075264E-18
2.982967E+03	1.726095E-16	5.370854E-18
2.992910E+03	1.756261E-16	5.441564E-18
3.002854E+03	1.786139E-16	5.510547E-18
3.012797E+03	1.815770E-16	5.577940E-18
3.022740E+03	1.845062E-16	5.643467E-18
3.032683E+03	1.874123E-16	5.707467E-18
3.042627E+03	1.902985E-16	5.770047E-18
3.052570E+03	1.931630E-16	5.831155E-18
3.062513E+03	1.960000E-16	5.890625E-18
3.072456E+03	1.987929E-16	5.947967E-18
3.082399E+03	2.015359E-16	6.003028E-18
3.092343E+03	2.042235E-16	6.055653E-18
3.102286E+03	2.068443E-16	6.105535E-18
3.112229E+03	2.093873E-16	6.152371E-18
3.122172E+03	2.118524E-16	6.196187E-18
3.132116E+03	2.142232E-16	6.236538E-18
3.142059E+03	2.164892E-16	6.273154E-18
3.152002E+03	2.186560E-16	6.306237E-18
3.161945E+03	2.207030E-16	6.335232E-18
3.171889E+03	2.226310E-16	6.360212E-18
3.181832E+03	2.244256E-16	6.380815E-18
3.191775E+03	2.260887E-16	6.397147E-18
3.201718E+03	2.276122E-16	6.409036E-18
3.211661E+03	2.289893E-16	6.416338E-18
3.221605E+03	2.302185E-16	6.419082E-18
3.231548E+03	2.312998E-16	6.417321E-18
3.241491E+03	2.322241E-16	6.410868E-18
3.251434E+03	2.329940E-16	6.399855E-18
3.261378E+03	2.336084E-16	6.384318E-18
3.271321E+03	2.340728E-16	6.364472E-18
3.281264E+03	2.343899E-16	6.340454E-18
3.291207E+03	2.345650E-16	6.312462E-18
3.301150E+03	2.346101E-16	6.280881E-18
3.311094E+03	2.345270E-16	6.245817E-18
3.321037E+03	2.343429E-16	6.208039E-18
3.330980E+03	2.340671E-16	6.167839E-18
3.340923E+03	2.337222E-16	6.125847E-18
3.350867E+03	2.333401E-16	6.082924E-18
3.360810E+03	2.329507E-16	6.039866E-18
3.370753E+03	2.325919E-16	5.997650E-18
3.380696E+03	2.323143E-16	5.957563E-18
3.390639E+03	2.321756E-16	5.921044E-18
3.400583E+03	2.322538E-16	5.890011E-18
3.410526E+03	2.326277E-16	5.866363E-18
3.420469E+03	2.334048E-16	5.852666E-18
3.430412E+03	2.347064E-16	5.851774E-18
3.440356E+03	2.366629E-16	5.866693E-18
3.450299E+03	2.393999E-16	5.900242E-18
3.460242E+03	2.429991E-16	5.954084E-18
3.470185E+03	2.474677E-16	6.028020E-18
3.480128E+03	2.527516E-16	6.120368E-18
3.490072E+03	2.587779E-16	6.229018E-18
3.500015E+03	2.654657E-16	6.351710E-18
3.509958E+03	2.727321E-16	6.486188E-18
3.519901E+03	2.804986E-16	6.630334E-18
3.529845E+03	2.886801E-16	6.781933E-18
3.539788E+03	2.971749E-16	6.938422E-18
3.549731E+03	3.058528E-16	7.096643E-18
3.559674E+03	3.145626E-16	7.253022E-18
3.569617E+03	3.231289E-16	7.403523E-18
3.579561E+03	3.313710E-16	7.544089E-18
3.589504E+03	3.390836E-16	7.670213E-18
3.599447E+03	3.460556E-16	7.777379E-18
3.609390E+03	3.520689E-16	7.861037E-18
3.619334E+03	3.569155E-16	7.916990E-18
3.629277E+03	3.604075E-16	7.941607E-18
3.639220E+03	3.623962E-16	7.932227E-18
3.649163E+03	3.627922E-16	7.887570E-18
3.659107E+03	3.615808E-16	7.808020E-18
3.669050E+03	3.588478E-16	7.696125E-18
3.678993E+03	3.547730E-16	7.556395E-18
3.688936E+03	3.496481E-16	7.395590E-18
3.698879E+03	3.438466E-16	7.222031E-18
3.708823E+03	3.378094E-16	7.045212E-18
3.718766E+03	3.320233E-16	6.875326E-18
3.728709E+03	3.269812E-16	6.722396E-18
3.738652E+03	3.231583E-16	6.595796E-18
3.748596E+03	3.209914E-16	6.503838E-18
3.758539E+03	3.208721E-16	6.453657E-18
3.768482E+03	3.231239E-16	6.450804E-18
3.778425E+03	3.280152E-16	6.499539E-18
3.788368E+03	3.357545E-16	6.602779E-18
3.798312E+03	3.464727E-16	6.761803E-18
3.808255E+03	3.602467E-16	6.976765E-18
3.818198E+03	3.770704E-16	7.246180E-18
3.828141E+03	3.968615E-16	7.567104E-18
3.838085E+03	4.194692E-16	7.935352E-18
3.848028E+03	4.446699E-16	8.345464E-18
3.857971E+03	4.721959E-16	8.791288E-18
3.867914E+03	5.017473E-16	9.266244E-18
3.877857E+03	5.330309E-16	9.764049E-18
3.887801E+03	5.657480E-16	1.027851E-17
3.897744E+03	5.996212E-16	1.080398E-17
3.907687E+03	6.343451E-16	1.133450E-17
3.917630E+03	6.695585E-16	1.186329E-17
3.927574E+03	7.047882E-16	1.238185E-17
3.937517E+03	7.393899E-16	1.287895E-17
3.947460E+03	7.725472E-16	1.334080E-17
3.957403E+03	8.032784E-16	1.375127E-17
3.967346E+03	8.304540E-16	1.409231E-17
3.977290E+03	8.529521E-16	1.434668E-17
3.987233E+03	8.697130E-16	1.449883E-17
3.997176E+03	8.799303E-16	1.453804E-17
4.007119E+03	8.831211E-16	1.445935E-17
4.017063E+03	8.792077E-16	1.426466E-17
4.027006E+03	8.685330E-16	1.396268E-17
4.036949E+03	8.518241E-16	1.356801E-17
4.046892E+03	8.300899E-16	1.309926E-17
4.056835E+03	8.045610E-16	1.257790E-17
4.066779E+03	7.765465E-16	1.202586E-17
4.076722E+03	7.473819E-16	1.146474E-17
4.086665E+03	7.183538E-16	1.091456E-17
4.096608E+03	6.906575E-16	1.039324E-17
4.106552E+03	6.653456E-16	9.915873E-18
4.116495E+03	6.432959E-16	9.494355E-18
4.126438E+03	6.252092E-16	9.137505E-18
4.136381E+03	6.115823E-16	8.850795E-18
4.146324E+03	6.027124E-16	8.636567E-18
4.156268E+03	5.987248E-16	8.494574E-18
4.166211E+03	5.995492E-16	8.421771E-18
4.176154E+03	6.049636E-16	8.413066E-18
4.186097E+03	6.145911E-16	8.461385E-18
4.196041E+03	6.278977E-16	8.557746E-18
4.205984E+03	6.442296E-16	8.691872E-18
4.215927E+03	6.628393E-16	8.852618E-18
4.225870E+03	6.829122E-16	9.028378E-18
4.235814E+03	7.036454E-16	9.208157E-18
4.245757E+03	7.242782E-16	9.381946E-18
4.255700E+03	7.441617E-16	9.541587E-18
4.265643E+03	7.628388E-16	9.681694E-18
4.275586E+03	7.800306E-16	9.799359E-18
4.285530E+03	7.956630E-16	9.894355E-18
4.295473E+03	8.098128E-16	9.968345E-18
4.305416E+03	8.226020E-16	1.002350E-17
4.315359E+03	8.340763E-16	1.006098E-17
4.325303E+03	8.440772E-16	1.007951E-17
4.335246E+03	8.521201E-16	1.007399E-17
4.345189E+03	8.574539E-16	1.003644E-17
4.355132E+03	8.593165E-16	9.959077E-18
4.365075E+03	8.576053E-16	9.841993E-18
4.375019E+03	8.535191E-16	9.700080E-18
4.384962E+03	8.494522E-16	9.561119E-18
4.394905E+03	8.480716E-16	9.454870E-18
4.404848E+03	8.516187E-16	9.405283E-18
4.414792E+03	8.616406E-16	9.427821E-18
4.424735E+03	8.790012E-16	9.529993E-18
4.434678E+03	9.039506E-16	9.712473E-18
4.444621E+03	9.362170E-16	9.970399E-18
4.454564E+03	9.750579E-16	1.029416E-17
4.464508E+03	1.019364E-15	1.067066E-17
4.474451E+03	1.067734E-15	1.108419E-17
4.484394E+03	1.118562E-15	1.151749E-17
4.494337E+03	1.170211E-15	1.195354E-17
4.504281E+03	1.221066E-15	1.237610E-17
4.514224E+03	1.269671E-15	1.277100E-17
4.524167E+03	1.314669E-15	1.312550E-17
4.534110E+03	1.354820E-15	1.342838E-17
4.544053E+03	1.388868E-15	1.366850E-17
4.553997E+03	1.415538E-15	1.383486E-17
4.563940E+03	1.433630E-15	1.391739E-17
4.573883E+03	1.442152E-15	1.390826E-17
4.583826E+03	1.440610E-15	1.380452E-17
4.593770E+03	1.429235E-15	1.361018E-17
4.603713E+03	1.409122E-15	1.333720E-17
4.613656E+03	1.382318E-15	1.300617E-17
4.623599E+03	1.351566E-15	1.264366E-17
4.633542E+03	1.320050E-15	1.227969E-17
4.643486E+03	1.290970E-15	1.194377E-17
4.653429E+03	1.267164E-15	1.166142E-17
4.663372E+03	1.250794E-15	1.145149E-17
4.673315E+03	1.243167E-15	1.132471E-17
4.683259E+03	1.244636E-15	1.128296E-17
4.693202E+03	1.254640E-15	1.131996E-17
4.703145E+03	1.271712E-15	1.142140E-17
4.713088E+03	1.293627E-15	1.156656E-17
4.723031E+03	1.317574E-15	1.172986E-17
4.732975E+03	1.340441E-15	1.188356E-17
4.742918E+03	1.359334E-15	1.200227E-17
4.752861E+03	1.372300E-15	1.206927E-17
4.762804E+03	1.379188E-15	1.208387E-17
4.772748E+03	1.381781E-15	1.206224E-17
4.782691E+03	1.382927E-15	1.202954E-17
4.792634E+03	1.385297E-15	1.200904E-17
4.802577E+03	1.390779E-15	1.201693E-17
4.812521E+03	1.400171E-15	1.205981E-17
4.822464E+03	1.413313E-15	1.213600E-17
4.832407E+03	1.429321E-15	1.223769E-17
4.842350E+03	1.446916E-15	1.235375E-17
4.852293E+03	1.464753E-15	1.247267E-17
4.862237E+03	1.481712E-15	1.258492E-17
4.872180E+03	1.497091E-15	1.268453E-17
4.882123E+03	1.510594E-15	1.276900E-17
4.892066E+03	1.522261E-15	1.283869E-17
4.902010E+03	1.532193E-15	1.289446E-17
4.911953E+03	1.540385E-15	1.293625E-17
4.921896E+03	1.546496E-15	1.296119E-17
4.931839E+03	1.549878E-15	1.296387E-17
4.941782E+03	1.549775E-15	1.293800E-17
4.951726E+03	1.545450E-15	1.287748E-17
4.961669E+03	1.536652E-15	1.278035E-17
4.971612E+03	1.523670E-15	1.264909E-17
4.981555E+03	1.507467E-15	1.249179E-17
4.991499E+03	1.489471E-15	1.232030E-17
5.001442E+03	1.471379E-15	1.214864E-17
5.011385E+03	1.454780E-15	1.198983E-17
5.021328E+03	1.441020E-15	1.185482E-17
5.031271E+03	1.430938E-15	1.175031E-17
5.041215E+03	1.424923E-15	1.167927E-17
5.051158E+03	1.422860E-15	1.164054E-17
5.061101E+03	1.424279E-15	1.163006E-17
5.071044E+03	1.428555E-15	1.164253E-17
5.080988E+03	1.434998E-15	1.167217E-17
5.090931E+03	1.443054E-15	1.171436E-17
5.100874E+03	1.452374E-15	1.176617E-17
5.110817E+03	1.462911E-15	1.182715E-17
5.120760E+03	1.474807E-15	1.189834E-17
5.130704E+03	1.488439E-15	1.198274E-17
5.140647E+03	1.504291E-15	1.208412E-17
5.150590E+03	1.522858E-15	1.220635E-17
5.160533E+03	1.544614E-15	1.235307E-17
5.170477E+03	1.569880E-15	1.252670E-17
5.180420E+03	1.598823E-15	1.272840E-17
5.190363E+03	1.631422E-15	1.295781E-17
5.200306E+03	1.667482E-15	1.321324E-17
5.210249E+03	1.706586E-15	1.349123E-17
5.220193E+03	1.748214E-15	1.378758E-17
5.230136E+03	1.791671E-15	1.409676E-17
5.240079E+03	1.836153E-15	1.441243E-17
5.250022E+03	1.880665E-15	1.472686E-17
5.259966E+03	1.923985E-15	1.503059E-17
5.269909E+03	1.964771E-15	1.531340E-17
5.279852E+03	2.001475E-15	1.556352E-17
5.289795E+03	2.032579E-15	1.576957E-17
5.299738E+03	2.056643E-15	1.592087E-17
5.309682E+03	2.072514E-15	1.600906E-17
5.319625E+03	2.079423E-15	1.602880E-17
5.329568E+03	2.076929E-15	1.597731E-17
5.339511E+03	2.064990E-15	1.585488E-17
5.349455E+03	2.043801E-15	1.566355E-17
5.359398E+03	2.013834E-15	1.540745E-17
5.369341E+03	1.975902E-15	1.509324E-17
5.379284E+03	1.931279E-15	1.473097E-17
5.389228E+03	1.881810E-15	1.433495E-17
5.399171E+03	1.829732E-15	1.392233E-17
5.409114E+03	1.777274E-15	1.351010E-17
5.419057E+03	1.726679E-15	1.311524E-17
5.429000E+03	1.680921E-15	1.276022E-17
5.438944E+03	1.644400E-15	1.247827E-17
5.448887E+03	1.622703E-15	1.231167E-17
5.458830E+03	1.620782E-15	1.229796E-17
5.468773E+03	1.639804E-15	1.244607E-17
5.478717E+03	1.675639E-15	1.272479E-17
5.488660E+03	1.720929E-15	1.307837E-17
5.498603E+03	1.768071E-15	1.344919E-17
5.508546E+03	1.810969E-15	1.379088E-17
5.518489E+03	1.845623E-15	1.407280E-17
5.528433E+03	1.869929E-15	1.427858E-17
5.538376E+03	1.883327E-15	1.440346E-17
5.548319E+03	1.886316E-15	1.445073E-17
5.558262E+03	1.879972E-15	1.442804E-17
5.568206E+03	1.865668E-15	1.434534E-17
5.578149E+03	1.844926E-15	1.421380E-17
5.588092E+03	1.819194E-15	1.404406E-17
5.598035E+03	1.789845E-15	1.384629E-17
5.607978E+03	1.758213E-15	1.363044E-17
5.617922E+03	1.725484E-15	1.340543E-17
5.627865E+03	1.692904E-15	1.318071E-17
5.637808E+03	1.661826E-15	1.296669E-17
5.647751E+03	1.633829E-15	1.277564E-17
5.657695E+03	1.610696E-15	1.262156E-17
5.667638E+03	1.594382E-15	1.251992E-17
5.677581E+03	1.586661E-15	1.248490E-17
5.687524E+03	1.588978E-15	1.252820E-17
5.697467E+03	1.602077E-15	1.265607E-17
5.707411E+03	1.625852E-15	1.286802E-17
5.717354E+03	1.659135E-15	1.315515E-17
5.727297E+03	1.699824E-15	1.350099E-17
5.737240E+03	1.745189E-15	1.388398E-17
5.747184E+03	1.792164E-15	1.427967E-17
5.757127E+03	1.837851E-15	1.466481E-17
5.767070E+03	1.879910E-15	1.502048E-17
5.777013E+03	1.916850E-15	1.533445E-17
5.786956E+03	1.948025E-15	1.560124E-17
5.796900E+03	1.973598E-15	1.582185E-17
5.806843E+03	1.994222E-15	1.600127E-17
5.816786E+03	2.010779E-15	1.614637E-17
5.826729E+03	2.024117E-15	1.626379E-17
5.836673E+03	2.034987E-15	1.635947E-17
5.846616E+03	2.043894E-15	1.643738E-17
5.856559E+03	2.051152E-15	1.649997E-17
5.866502E+03	2.057009E-15	1.654922E-17
5.876445E+03	2.061626E-15	1.658639E-17
5.886389E+03	2.065125E-15	1.661247E-17
5.896332E+03	2.067477E-15	1.662723E-17
5.906275E+03	2.068532E-15	1.662950E-17
5.916218E+03	2.067928E-15	1.661640E-17
5.926162E+03	2.065060E-15	1.658317E-17
5.936105E+03	2.059287E-15	1.652473E-17
5.946048E+03	2.050027E-15	1.643655E-17
5.955991E+03	2.036865E-15	1.631548E-17
5.965935E+03	2.019776E-15	1.616151E-17
5.975878E+03	1.999017E-15	1.597694E-17
5.985821E+03	1.975110E-15	1.576615E-17
5.995764E+03	1.948739E-15	1.553487E-17
6.005707E+03	1.920566E-15	1.528858E-17
6.015651E+03	1.891050E-15	1.503118E-17
6.025594E+03	1.860509E-15	1.476538E-17
6.035537E+03	1.828912E-15	1.449118E-17
6.045480E+03	1.796097E-15	1.420747E-17
6.055424E+03	1.761880E-15	1.391304E-17
6.065367E+03	1.726124E-15	1.360703E-17
6.075310E+03	1.689118E-15	1.329194E-17
6.085253E+03	1.651534E-15	1.297326E-17
6.095196E+03	1.614578E-15	1.266061E-17
6.105140E+03	1.579888E-15	1.236696E-17
6.115083E+03	1.549405E-15	1.210749E-17
6.125026E+03	1.525027E-15	1.189699E-17
6.134969E+03	1.508249E-15	1.174699E-17
6.144913E+03	1.499591E-15	1.166138E-17
6.154856E+03	1.498065E-15	1.163236E-17
6.164799E+03	1.500662E-15	1.163650E-17
6.174742E+03	1.501794E-15	1.163059E-17
6.184685E+03	1.493714E-15	1.155492E-17
6.194629E+03	1.468036E-15	1.134507E-17
6.204572E+03	1.419802E-15	1.096323E-17
6.214515E+03	1.351632E-15	1.042996E-17
6.224458E+03	1.273209E-15	9.820036E-18
6.234402E+03	1.195796E-15	9.220164E-18
6.244345E+03	1.127974E-15	8.696220E-18
6.254288E+03	1.074482E-15	8.284492E-18
6.264231E+03	1.037128E-15	7.998751E-18
6.274174E+03	1.015905E-15	7.838934E-18
6.284118E+03	1.009962E-15	7.798601E-18
6.294061E+03	1.018198E-15	7.869532E-18
6.304004E+03	1.039566E-15	8.044023E-18
6.313947E+03	1.073239E-15	8.316193E-18
6.323891E+03	1.118422E-15	8.680528E-18
6.333834E+03	1.174256E-15	9.131100E-18
6.343777E+03	1.239441E-15	9.658641E-18
6.353720E+03	1.311989E-15	1.024855E-17
6.363663E+03	1.389140E-15	1.088014E-17
6.373607E+03	1.467243E-15	1.152559E-17
6.383550E+03	1.542133E-15	1.215270E-17
6.393493E+03	1.609256E-15	1.272581E-17
6.403436E+03	1.664461E-15	1.321184E-17
6.413380E+03	1.704391E-15	1.358343E-17
6.423323E+03	1.727308E-15	1.382546E-17
6.433266E+03	1.733441E-15	1.393800E-17
6.443209E+03	1.725355E-15	1.393976E-17
6.453152E+03	1.708030E-15	1.386930E-17
6.463096E+03	1.688682E-15	1.378407E-17
6.473039E+03	1.676203E-15	1.375648E-17
6.482982E+03	1.680014E-15	1.386493E-17
6.492925E+03	1.707252E-15	1.417072E-17
6.502869E+03	1.759489E-15	1.469021E-17
6.512812E+03	1.831705E-15	1.538491E-17
6.522755E+03	1.915152E-15	1.618395E-17
6.532698E+03	2.000622E-15	1.701080E-17
6.542642E+03	2.080239E-15	1.779843E-17
6.552585E+03	2.148437E-15	1.849795E-17
6.562528E+03	2.202096E-15	1.908041E-17
6.572471E+03	2.240211E-15	1.953453E-17
6.582414E+03	2.263376E-15	1.986278E-17
6.592358E+03	2.273451E-15	2.007887E-17
6.602301E+03	2.272776E-15	2.020120E-17
6.612244E+03	2.264033E-15	2.025171E-17
6.622187E+03	2.249582E-15	2.025007E-17
6.632131E+03	2.231632E-15	2.021510E-17
6.642074E+03	2.211727E-15	2.016009E-17
6.652017E+03	2.191028E-15	2.009518E-17
6.661960E+03	2.170163E-15	2.002589E-17
6.671903E+03	2.149614E-15	1.995646E-17
6.681847E+03	2.129422E-15	1.988724E-17
6.691790E+03	2.109665E-15	1.981887E-17
6.701733E+03	2.090253E-15	1.975046E-17
6.711676E+03	2.070956E-15	1.967977E-17
6.721620E+03	2.051602E-15	1.960510E-17
6.731563E+03	2.031836E-15	1.952293E-17
6.741506E+03	2.011295E-15	1.942962E-17
6.751449E+03	1.989474E-15	1.932009E-17
6.761392E+03	1.966039E-15	1.919084E-17
6.771336E+03	1.940732E-15	1.903906E-17
6.781279E+03	1.913527E-15	1.886421E-17
6.791222E+03	1.884804E-15	1.866977E-17
6.801165E+03	1.855360E-15	1.846346E-17
6.811109E+03	1.826436E-15	1.825763E-17
6.821052E+03	1.799360E-15	1.806571E-17
6.830995E+03	1.775647E-15	1.790325E-17
6.840938E+03	1.756520E-15	1.778308E-17
6.850881E+03	1.742708E-15	1.771321E-17
6.860825E+03	1.734374E-15	1.769595E-17
6.870768E+03	1.730959E-15	1.772620E-17
6.880711E+03	1.731244E-15	1.779195E-17
6.890654E+03	1.733626E-15	1.787704E-17
6.900598E+03	1.736299E-15	1.796298E-17
6.910541E+03	1.737531E-15	1.803179E-17
6.920484E+03	1.736036E-15	1.806989E-17
6.930427E+03	1.730893E-15	1.806742E-17
6.940370E+03	1.721861E-15	1.802153E-17
6.950314E+03	1.709091E-15	1.793350E-17
6.960257E+03	1.693285E-15	1.781048E-17
6.970200E+03	1.675308E-15	1.766139E-17
6.980143E+03	1.656283E-15	1.749801E-17
6.990087E+03	1.637228E-15	1.733114E-17
7.000030E+03	1.619085E-15	1.717085E-17
7.009973E+03	1.602637E-15	1.702560E-17
7.019916E+03	1.588399E-15	1.690103E-17
7.029860E+03	1.576695E-15	1.680077E-17
7.039803E+03	1.567672E-15	1.672658E-17
7.049746E+03	1.561261E-15	1.667789E-17
7.059689E+03	1.557195E-15	1.665197E-17
7.069632E+03	1.555127E-15	1.664524E-17
7.079576E+03	1.554568E-15	1.665255E-17
7.089519E+03	1.554961E-15	1.666801E-17
7.099462E+03	1.555696E-15	1.668510E-17
7.109405E+03	1.556285E-15	1.669863E-17
7.119349E+03	1.556227E-15	1.670327E-17
7.129292E+03	1.555183E-15	1.669539E-17
7.139235E+03	1.553007E-15	1.667347E-17
7.149178E+03	1.549678E-15	1.663733E-17
7.159121E+03	1.545389E-15	1.658911E-17
7.169065E+03	1.540556E-15	1.653332E-17
7.179008E+03	1.535537E-15	1.647387E-17
7.188951E+03	1.530898E-15	1.641694E-17
7.198894E+03	1.526998E-15	1.636640E-17
7.208838E+03	1.524013E-15	1.632421E-17
7.218781E+03	1.521936E-15	1.629034E-17
7.228724E+03	1.520483E-15	1.626182E-17
7.238667E+03	1.519067E-15	1.623241E-17
7.248610E+03	1.516947E-15	1.619426E-17
7.258554E+03	1.513456E-15	1.614039E-17
7.268497E+03	1.507963E-15	1.606417E-17
7.278440E+03	1.500115E-15	1.596202E-17
7.288383E+03	1.489932E-15	1.583432E-17
7.298327E+03	1.477660E-15	1.568388E-17
7.308270E+03	1.464064E-15	1.551899E-17
7.318213E+03	1.449965E-15	1.534850E-17
7.328156E+03	1.436321E-15	1.518265E-17
7.338099E+03	1.423994E-15	1.503064E-17
7.348043E+03	1.413579E-15	1.489876E-17
7.357986E+03	1.405388E-15	1.479031E-17
7.367929E+03	1.399411E-15	1.470518E-17
7.377872E+03	1.395354E-15	1.464025E-17
7.387816E+03	1.392804E-15	1.459122E-17
7.397759E+03	1.391275E-15	1.455302E-17
7.407702E+03	1.390448E-15	1.452236E-17
7.417645E+03	1.389907E-15	1.449497E-17
7.427588E+03	1.389401E-15	1.446832E-17
7.437532E+03	1.388586E-15	1.443891E-17
7.447475E+03	1.387075E-15	1.440286E-17
7.457418E+03	1.384333E-15	1.435471E-17
7.467361E+03	1.379854E-15	1.428924E-17
7.477305E+03	1.373158E-15	1.420158E-17
7.487248E+03	1.363792E-15	1.408709E-17
7.497191E+03	1.351679E-15	1.394510E-17
7.507134E+03	1.336894E-15	1.377644E-17
7.517077E+03	1.319940E-15	1.358640E-17
7.527021E+03	1.301779E-15	1.338490E-17
7.536964E+03	1.283595E-15	1.318413E-17
7.546907E+03	1.266905E-15	1.299963E-17
7.556850E+03	1.253391E-15	1.284860E-17
7.566794E+03	1.244498E-15	1.274572E-17
7.576737E+03	1.241339E-15	1.270225E-17
7.586680E+03	1.244422E-15	1.272324E-17
7.596623E+03	1.253514E-15	1.280616E-17
7.606567E+03	1.267650E-15	1.294107E-17
7.616510E+03	1.285295E-15	1.311221E-17
7.626453E+03	1.304403E-15	1.329870E-17
7.636396E+03	1.322678E-15	1.347719E-17
7.646339E+03	1.338207E-15	1.362825E-17
7.656283E+03	1.349450E-15	1.373630E-17
7.666226E+03	1.355854E-15	1.379585E-17
7.676169E+03	1.357413E-15	1.380692E-17
7.686112E+03	1.354866E-15	1.377714E-17
7.696056E+03	1.349033E-15	1.371488E-17
7.705999E+03	1.340797E-15	1.362920E-17
7.715942E+03	1.330965E-15	1.352833E-17
