#wls	flux	fluxerr
1.590916E+03	1.099669E-17	4.737407E-19
1.630689E+03	1.071754E-17	4.589935E-19
1.670462E+03	1.037544E-17	4.416569E-19
1.710235E+03	9.978078E-18	4.221098E-19
1.750007E+03	9.531237E-18	4.006446E-19
1.789780E+03	9.038157E-18	3.774430E-19
1.829553E+03	8.500620E-18	3.526241E-19
1.869326E+03	7.923436E-18	3.264311E-19
1.909099E+03	7.312870E-18	2.991629E-19
1.948872E+03	6.682527E-18	2.714101E-19
1.988645E+03	6.054878E-18	2.441058E-19
2.028418E+03	5.468537E-18	2.188021E-19
2.068191E+03	4.971481E-18	1.973752E-19
2.107964E+03	4.616146E-18	1.818150E-19
2.147736E+03	4.432537E-18	1.731655E-19
2.187509E+03	4.420175E-18	1.712464E-19
2.227282E+03	4.545613E-18	1.746062E-19
2.267055E+03	4.761319E-18	1.812968E-19
2.306828E+03	5.022673E-18	1.895409E-19
2.346601E+03	5.298907E-18	1.981378E-19
2.386374E+03	5.575939E-18	2.065466E-19
2.426147E+03	5.852607E-18	2.147206E-19
2.465920E+03	6.142644E-18	2.231555E-19
2.505692E+03	6.464563E-18	2.324995E-19
2.545465E+03	6.844317E-18	2.436379E-19
2.585238E+03	7.311647E-18	2.575506E-19
2.625011E+03	7.892557E-18	2.750411E-19
2.664784E+03	8.613092E-18	2.968729E-19
2.704557E+03	9.491105E-18	3.234884E-19
2.744330E+03	1.053651E-17	3.550322E-19
2.784103E+03	1.175433E-17	3.914683E-19
2.823876E+03	1.314467E-17	4.325887E-19
2.863649E+03	1.470016E-17	4.779407E-19
2.903421E+03	1.641289E-17	5.270650E-19
2.943194E+03	1.827281E-17	5.794474E-19
2.982967E+03	2.027386E-17	6.347151E-19
2.992910E+03	2.079556E-17	6.489431E-19
3.002854E+03	2.132448E-17	6.632884E-19
3.012797E+03	2.186290E-17	6.778192E-19
3.022740E+03	2.240882E-17	6.924710E-19
3.032683E+03	2.296869E-17	7.074399E-19
3.042627E+03	2.353661E-17	7.225408E-19
3.052570E+03	2.412026E-17	7.380065E-19
3.062513E+03	2.471450E-17	7.536750E-19
3.072456E+03	2.532183E-17	7.696196E-19
3.082399E+03	2.594231E-17	7.858378E-19
3.092343E+03	2.657609E-17	8.023308E-19
3.102286E+03	2.722342E-17	8.191019E-19
3.112229E+03	2.788467E-17	8.361579E-19
3.122172E+03	2.855739E-17	8.534221E-19
3.132116E+03	2.925089E-17	8.711681E-19
3.142059E+03	2.995722E-17	8.891538E-19
3.152002E+03	3.068322E-17	9.075780E-19
3.161945E+03	3.142699E-17	9.263791E-19
3.171889E+03	3.218979E-17	9.455888E-19
3.181832E+03	3.297946E-17	9.654315E-19
3.191775E+03	3.379147E-17	9.857666E-19
3.201718E+03	3.463102E-17	1.006739E-18
3.211661E+03	3.549701E-17	1.028310E-18
3.221605E+03	3.639870E-17	1.050738E-18
3.231548E+03	3.733560E-17	1.073998E-18
3.241491E+03	3.831437E-17	1.098273E-18
3.251434E+03	3.933501E-17	1.123550E-18
3.261378E+03	4.040122E-17	1.149921E-18
3.271321E+03	4.152451E-17	1.177701E-18
3.281264E+03	4.270193E-17	1.206789E-18
3.291207E+03	4.394582E-17	1.237518E-18
3.301150E+03	4.525341E-17	1.269791E-18
3.311094E+03	4.664180E-17	1.304067E-18
3.321037E+03	4.810836E-17	1.340250E-18
3.330980E+03	4.966243E-17	1.378578E-18
3.340923E+03	5.130913E-17	1.419166E-18
3.350867E+03	5.305754E-17	1.462240E-18
3.360810E+03	5.491179E-17	1.507882E-18
3.370753E+03	5.687016E-17	1.556018E-18
3.380696E+03	5.894313E-17	1.606903E-18
3.390639E+03	6.112510E-17	1.660353E-18
3.400583E+03	6.341194E-17	1.716226E-18
3.410526E+03	6.580586E-17	1.774554E-18
3.420469E+03	6.829456E-17	1.834977E-18
3.430412E+03	7.085418E-17	1.896831E-18
3.440356E+03	7.345847E-17	1.959399E-18
3.450299E+03	7.608955E-17	2.022195E-18
3.460242E+03	7.868635E-17	2.083598E-18
3.470185E+03	8.121062E-17	2.142612E-18
3.480128E+03	8.358987E-17	2.197356E-18
3.490072E+03	8.574549E-17	2.245815E-18
3.500015E+03	8.759382E-17	2.285875E-18
3.509958E+03	8.903629E-17	2.315064E-18
3.519901E+03	8.996807E-17	2.330783E-18
3.529845E+03	9.028918E-17	2.330600E-18
3.539788E+03	8.992761E-17	2.312836E-18
3.549731E+03	8.895611E-17	2.279546E-18
3.559674E+03	8.747327E-17	2.233417E-18
3.569617E+03	8.558227E-17	2.177213E-18
3.579561E+03	8.336506E-17	2.113123E-18
3.589504E+03	8.091173E-17	2.043508E-18
3.599447E+03	7.830098E-17	1.970410E-18
3.609390E+03	7.559067E-17	1.895319E-18
3.619334E+03	7.283214E-17	1.819543E-18
3.629277E+03	7.006925E-17	1.744182E-18
3.639220E+03	6.732778E-17	1.669873E-18
3.649163E+03	6.462951E-17	1.597146E-18
3.659107E+03	6.198973E-17	1.526363E-18
3.669050E+03	5.942290E-17	1.457859E-18
3.678993E+03	5.693547E-17	1.391770E-18
3.688936E+03	5.453788E-17	1.328327E-18
3.698879E+03	5.224292E-17	1.267813E-18
3.708823E+03	5.006910E-17	1.210647E-18
3.718766E+03	4.802927E-17	1.157104E-18
3.728709E+03	4.615368E-17	1.107872E-18
3.738652E+03	4.446390E-17	1.063424E-18
3.748596E+03	4.298959E-17	1.024415E-18
3.758539E+03	4.175720E-17	9.914164E-19
3.768482E+03	4.079708E-17	9.650811E-19
3.778425E+03	4.013445E-17	9.459318E-19
3.788368E+03	3.980156E-17	9.346483E-19
3.798312E+03	3.982362E-17	9.317341E-19
3.808255E+03	4.023710E-17	9.379476E-19
3.818198E+03	4.107338E-17	9.539163E-19
3.828141E+03	4.236866E-17	9.803694E-19
3.838085E+03	4.416714E-17	1.018208E-18
3.848028E+03	4.650943E-17	1.068237E-18
3.857971E+03	4.944012E-17	1.131337E-18
3.867914E+03	5.300349E-17	1.208370E-18
3.877857E+03	5.723407E-17	1.299959E-18
3.887801E+03	6.215207E-17	1.406393E-18
3.897744E+03	6.776892E-17	1.527756E-18
3.907687E+03	7.405917E-17	1.663302E-18
3.917630E+03	8.097468E-17	1.811785E-18
3.927574E+03	8.842840E-17	1.971107E-18
3.937517E+03	9.630334E-17	2.138539E-18
3.947460E+03	1.044419E-16	2.310488E-18
3.957403E+03	1.126688E-16	2.483030E-18
3.967346E+03	1.207860E-16	2.651794E-18
3.977290E+03	1.285921E-16	2.812410E-18
3.987233E+03	1.358873E-16	2.960600E-18
3.997176E+03	1.424944E-16	3.092650E-18
4.007119E+03	1.482495E-16	3.205194E-18
4.017063E+03	1.530334E-16	3.295875E-18
4.027006E+03	1.567577E-16	3.363043E-18
4.036949E+03	1.593820E-16	3.406101E-18
4.046892E+03	1.609128E-16	3.425460E-18
4.056835E+03	1.613994E-16	3.422442E-18
4.066779E+03	1.609435E-16	3.399451E-18
4.076722E+03	1.596694E-16	3.359339E-18
4.086665E+03	1.577532E-16	3.305997E-18
4.096608E+03	1.553660E-16	3.243157E-18
4.106552E+03	1.527025E-16	3.174984E-18
4.116495E+03	1.499373E-16	3.105162E-18
4.126438E+03	1.472400E-16	3.037209E-18
4.136381E+03	1.447516E-16	2.974013E-18
4.146324E+03	1.425885E-16	2.917897E-18
4.156268E+03	1.408503E-16	2.870815E-18
4.166211E+03	1.396036E-16	2.834014E-18
4.176154E+03	1.388946E-16	2.808307E-18
4.186097E+03	1.387577E-16	2.794259E-18
4.196041E+03	1.392085E-16	2.792040E-18
4.205984E+03	1.402540E-16	2.801649E-18
4.215927E+03	1.418943E-16	2.822946E-18
4.225870E+03	1.441120E-16	2.855443E-18
4.235814E+03	1.468895E-16	2.898657E-18
4.245757E+03	1.501911E-16	2.951750E-18
4.255700E+03	1.539582E-16	3.013457E-18
4.265643E+03	1.581231E-16	3.082348E-18
4.275586E+03	1.625882E-16	3.156435E-18
4.285530E+03	1.672248E-16	3.233165E-18
4.295473E+03	1.718782E-16	3.309522E-18
4.305416E+03	1.763698E-16	3.382081E-18
4.315359E+03	1.804976E-16	3.447031E-18
4.325303E+03	1.840495E-16	3.500426E-18
4.335246E+03	1.868336E-16	3.538775E-18
4.345189E+03	1.886800E-16	3.559054E-18
4.355132E+03	1.894841E-16	3.559523E-18
4.365075E+03	1.892115E-16	3.539785E-18
4.375019E+03	1.879969E-16	3.502600E-18
4.384962E+03	1.861026E-16	3.453053E-18
4.394905E+03	1.838322E-16	3.396912E-18
4.404848E+03	1.814916E-16	3.339892E-18
4.414792E+03	1.793639E-16	3.287197E-18
4.424735E+03	1.776937E-16	3.243243E-18
4.434678E+03	1.766779E-16	3.211506E-18
4.444621E+03	1.764745E-16	3.194702E-18
4.454564E+03	1.771963E-16	3.194685E-18
4.464508E+03	1.789277E-16	3.212771E-18
4.474451E+03	1.817211E-16	3.249678E-18
4.484394E+03	1.855973E-16	3.305552E-18
4.494337E+03	1.905610E-16	3.380247E-18
4.504281E+03	1.965804E-16	3.472972E-18
4.514224E+03	2.035937E-16	3.582419E-18
4.524167E+03	2.115018E-16	3.706643E-18
4.534110E+03	2.201645E-16	3.843019E-18
4.544053E+03	2.293958E-16	3.988161E-18
4.553997E+03	2.389728E-16	4.138099E-18
4.563940E+03	2.486418E-16	4.288393E-18
4.573883E+03	2.581301E-16	4.434348E-18
4.583826E+03	2.671780E-16	4.571566E-18
4.593770E+03	2.755497E-16	4.696125E-18
4.603713E+03	2.830668E-16	4.805137E-18
4.613656E+03	2.896169E-16	4.896883E-18
4.623599E+03	2.951717E-16	4.971081E-18
4.633542E+03	2.997605E-16	5.028426E-18
4.643486E+03	3.034792E-16	5.070713E-18
4.653429E+03	3.064337E-16	5.099880E-18
4.663372E+03	3.087391E-16	5.117983E-18
4.673315E+03	3.104748E-16	5.126462E-18
4.683259E+03	3.116784E-16	5.126045E-18
4.693202E+03	3.123332E-16	5.116562E-18
4.703145E+03	3.123762E-16	5.097088E-18
4.713088E+03	3.116962E-16	5.065934E-18
4.723031E+03	3.101824E-16	5.021442E-18
4.732975E+03	3.077357E-16	4.962173E-18
4.742918E+03	3.043128E-16	4.887608E-18
4.752861E+03	2.999496E-16	4.798501E-18
4.762804E+03	2.947394E-16	4.696517E-18
4.772748E+03	2.887661E-16	4.583142E-18
4.782691E+03	2.821951E-16	4.461131E-18
4.792634E+03	2.752559E-16	4.334206E-18
4.802577E+03	2.682275E-16	4.206807E-18
4.812521E+03	2.614033E-16	4.083530E-18
4.822464E+03	2.550741E-16	3.968857E-18
4.832407E+03	2.495184E-16	3.867009E-18
4.842350E+03	2.449834E-16	3.781654E-18
4.852293E+03	2.417012E-16	3.716174E-18
4.862237E+03	2.398699E-16	3.673367E-18
4.872180E+03	2.396532E-16	3.655465E-18
4.882123E+03	2.411837E-16	3.664190E-18
4.892066E+03	2.445462E-16	3.700508E-18
4.902010E+03	2.497714E-16	3.764554E-18
4.911953E+03	2.568113E-16	3.855276E-18
4.921896E+03	2.655304E-16	3.970325E-18
4.931839E+03	2.756894E-16	4.105847E-18
4.941782E+03	2.869303E-16	4.256280E-18
4.951726E+03	2.987779E-16	4.414424E-18
4.961669E+03	3.106740E-16	4.571965E-18
4.971612E+03	3.219987E-16	4.719823E-18
4.981555E+03	3.321438E-16	4.849229E-18
4.991499E+03	3.405845E-16	4.952767E-18
5.001442E+03	3.469412E-16	5.025247E-18
5.011385E+03	3.510323E-16	5.064418E-18
5.021328E+03	3.529098E-16	5.071423E-18
5.031271E+03	3.528363E-16	5.050405E-18
5.041215E+03	3.512488E-16	5.007933E-18
5.051158E+03	3.486815E-16	4.951850E-18
5.061101E+03	3.457033E-16	4.890372E-18
5.071044E+03	3.428503E-16	4.831124E-18
5.080988E+03	3.405640E-16	4.780286E-18
5.090931E+03	3.391793E-16	4.742452E-18
5.100874E+03	3.388890E-16	4.720166E-18
5.110817E+03	3.397757E-16	4.714401E-18
5.120760E+03	3.418147E-16	4.724642E-18
5.130704E+03	3.449076E-16	4.749360E-18
5.140647E+03	3.489001E-16	4.786288E-18
5.150590E+03	3.536233E-16	4.832992E-18
5.160533E+03	3.589184E-16	4.887217E-18
5.170477E+03	3.646675E-16	4.947298E-18
5.180420E+03	3.707838E-16	5.012016E-18
5.190363E+03	3.772560E-16	5.081187E-18
5.200306E+03	3.841187E-16	5.155250E-18
5.210249E+03	3.914463E-16	5.235174E-18
5.220193E+03	3.993325E-16	5.322169E-18
5.230136E+03	4.078591E-16	5.417281E-18
5.240079E+03	4.170822E-16	5.521199E-18
5.250022E+03	4.269940E-16	5.633771E-18
5.259966E+03	4.375044E-16	5.753762E-18
5.269909E+03	4.484486E-16	5.878984E-18
5.279852E+03	4.595624E-16	6.005982E-18
5.289795E+03	4.705088E-16	6.130395E-18
5.299738E+03	4.809166E-16	6.247480E-18
5.309682E+03	4.903808E-16	6.352105E-18
5.319625E+03	4.985325E-16	6.439670E-18
5.329568E+03	5.050617E-16	6.506370E-18
5.339511E+03	5.097309E-16	6.549373E-18
5.349455E+03	5.124277E-16	6.567467E-18
5.359398E+03	5.131594E-16	6.560973E-18
5.369341E+03	5.120378E-16	6.531523E-18
5.379284E+03	5.093013E-16	6.482336E-18
5.389228E+03	5.052792E-16	6.417742E-18
5.399171E+03	5.003833E-16	6.343066E-18
5.409114E+03	4.950668E-16	6.264111E-18
5.419057E+03	4.898384E-16	6.187329E-18
5.429000E+03	4.852033E-16	6.119080E-18
5.438944E+03	4.816614E-16	6.065624E-18
5.448887E+03	4.796599E-16	6.032528E-18
5.458830E+03	4.795802E-16	6.024518E-18
5.468773E+03	4.814827E-16	6.042290E-18
5.478717E+03	4.846367E-16	6.076637E-18
5.488660E+03	4.880687E-16	6.115361E-18
5.498603E+03	4.907036E-16	6.145032E-18
5.508546E+03	4.914533E-16	6.152075E-18
5.518489E+03	4.893118E-16	6.123914E-18
5.528433E+03	4.835167E-16	6.050997E-18
5.538376E+03	4.736181E-16	5.927642E-18
5.548319E+03	4.596008E-16	5.753566E-18
5.558262E+03	4.418394E-16	5.533323E-18
5.568206E+03	4.210661E-16	5.275917E-18
5.578149E+03	3.981987E-16	4.992664E-18
5.588092E+03	3.742483E-16	4.696064E-18
5.598035E+03	3.501685E-16	4.397926E-18
5.607978E+03	3.267744E-16	4.108358E-18
5.617922E+03	3.047254E-16	3.835565E-18
5.627865E+03	2.845036E-16	3.585566E-18
5.637808E+03	2.664427E-16	3.362559E-18
5.647751E+03	2.507679E-16	3.169415E-18
5.657695E+03	2.376293E-16	3.008092E-18
5.667638E+03	2.271265E-16	2.879942E-18
5.677581E+03	2.193310E-16	2.785991E-18
5.687524E+03	2.143084E-16	2.727215E-18
5.697467E+03	2.121303E-16	2.704697E-18
5.707411E+03	2.128798E-16	2.719689E-18
5.717354E+03	2.166588E-16	2.773712E-18
5.727297E+03	2.235972E-16	2.868672E-18
5.737240E+03	2.338464E-16	3.006787E-18
5.747184E+03	2.475733E-16	3.190502E-18
5.757127E+03	2.649523E-16	3.422398E-18
5.767070E+03	2.861467E-16	3.704945E-18
5.777013E+03	3.112739E-16	4.040050E-18
5.786956E+03	3.403820E-16	4.428751E-18
5.796900E+03	3.734025E-16	4.870576E-18
5.806843E+03	4.101078E-16	5.362980E-18
5.816786E+03	4.500820E-16	5.900921E-18
5.826729E+03	4.926933E-16	6.476473E-18
5.836673E+03	5.370878E-16	7.078696E-18
5.846616E+03	5.822143E-16	7.693927E-18
5.856559E+03	6.268540E-16	8.306130E-18
5.866502E+03	6.696999E-16	8.897920E-18
5.876445E+03	7.094668E-16	9.452005E-18
5.886389E+03	7.449438E-16	9.951891E-18
5.896332E+03	7.751383E-16	1.038382E-17
5.906275E+03	7.993232E-16	1.073744E-17
5.916218E+03	8.170841E-16	1.100651E-17
5.926162E+03	8.283805E-16	1.118974E-17
5.936105E+03	8.334815E-16	1.129004E-17
5.946048E+03	8.329083E-16	1.131377E-17
5.955991E+03	8.273934E-16	1.127025E-17
5.965935E+03	8.177955E-16	1.117064E-17
5.975878E+03	8.049665E-16	1.102610E-17
5.985821E+03	7.897640E-16	1.084803E-17
5.995764E+03	7.729694E-16	1.064692E-17
6.005707E+03	7.552704E-16	1.043206E-17
6.015651E+03	7.372706E-16	1.021169E-17
6.025594E+03	7.194850E-16	9.992928E-18
6.035537E+03	7.023303E-16	9.781585E-18
6.045480E+03	6.861616E-16	9.582689E-18
6.055424E+03	6.712329E-16	9.399902E-18
6.065367E+03	6.577300E-16	9.235972E-18
6.075310E+03	6.457233E-16	9.092050E-18
6.085253E+03	6.352035E-16	8.968174E-18
6.095196E+03	6.260647E-16	8.863013E-18
6.105140E+03	6.180852E-16	8.773575E-18
6.115083E+03	6.109682E-16	8.695769E-18
6.125026E+03	6.043501E-16	8.624502E-18
6.134969E+03	5.977976E-16	8.553632E-18
6.144913E+03	5.908663E-16	8.476792E-18
6.154856E+03	5.831281E-16	8.387782E-18
6.164799E+03	5.742055E-16	8.281069E-18
6.174742E+03	5.638151E-16	8.152423E-18
6.184685E+03	5.518342E-16	7.999905E-18
6.194629E+03	5.382904E-16	7.823738E-18
6.204572E+03	5.234276E-16	7.627307E-18
6.214515E+03	5.075074E-16	7.414291E-18
6.224458E+03	4.906933E-16	7.186969E-18
6.234402E+03	4.733343E-16	6.950374E-18
6.244345E+03	4.559396E-16	6.711942E-18
6.254288E+03	4.391015E-16	6.480416E-18
6.264231E+03	4.234463E-16	6.265124E-18
6.274174E+03	4.095888E-16	6.075320E-18
6.284118E+03	3.980719E-16	5.919278E-18
6.294061E+03	3.893451E-16	5.803962E-18
6.304004E+03	3.837271E-16	5.734448E-18
6.313947E+03	3.814085E-16	5.713938E-18
6.323891E+03	3.824214E-16	5.743283E-18
6.333834E+03	3.866462E-16	5.821054E-18
6.343777E+03	3.938025E-16	5.943378E-18
6.353720E+03	4.034800E-16	6.104375E-18
6.363663E+03	4.151372E-16	6.296116E-18
6.373607E+03	4.281614E-16	6.509507E-18
6.383550E+03	4.418855E-16	6.734538E-18
6.393493E+03	4.556564E-16	6.961313E-18
6.403436E+03	4.688645E-16	7.180504E-18
6.413380E+03	4.809929E-16	7.384122E-18
6.423323E+03	4.916131E-16	7.565454E-18
6.433266E+03	5.004445E-16	7.720013E-18
6.443209E+03	5.073413E-16	7.845348E-18
6.453152E+03	5.123216E-16	7.941530E-18
6.463096E+03	5.155877E-16	8.011495E-18
6.473039E+03	5.175569E-16	8.061554E-18
6.482982E+03	5.188393E-16	8.101096E-18
6.492925E+03	5.202699E-16	8.143116E-18
6.502869E+03	5.225073E-16	8.197969E-18
6.512812E+03	5.258392E-16	8.270268E-18
6.522755E+03	5.306153E-16	8.365644E-18
6.532698E+03	5.372262E-16	8.490425E-18
6.542642E+03	5.460112E-16	8.650186E-18
6.552585E+03	5.572339E-16	8.849355E-18
6.562528E+03	5.710208E-16	9.090216E-18
6.572471E+03	5.873202E-16	9.372229E-18
6.582414E+03	6.059086E-16	9.692096E-18
6.592358E+03	6.263947E-16	1.004379E-17
6.602301E+03	6.482219E-16	1.041858E-17
6.612244E+03	6.706979E-16	1.080544E-17
6.622187E+03	6.930628E-16	1.119216E-17
6.632131E+03	7.144851E-16	1.156525E-17
6.642074E+03	7.341703E-16	1.191169E-17
6.652017E+03	7.513543E-16	1.221885E-17
6.661960E+03	7.653847E-16	1.247577E-17
6.671903E+03	7.757154E-16	1.267317E-17
6.681847E+03	7.819764E-16	1.280456E-17
6.691790E+03	7.839258E-16	1.286550E-17
6.701733E+03	7.815298E-16	1.285494E-17
6.711676E+03	7.748944E-16	1.277414E-17
6.721620E+03	7.643000E-16	1.262727E-17
6.731563E+03	7.501335E-16	1.242029E-17
6.741506E+03	7.328882E-16	1.216100E-17
6.751449E+03	7.130854E-16	1.185776E-17
6.761392E+03	6.912773E-16	1.151949E-17
6.771336E+03	6.679631E-16	1.115435E-17
6.781279E+03	6.436143E-16	1.077006E-17
6.791222E+03	6.186642E-16	1.037381E-17
6.801165E+03	5.935297E-16	9.972551E-18
6.811109E+03	5.686074E-16	9.572973E-18
6.821052E+03	5.443128E-16	9.182121E-18
6.830995E+03	5.210933E-16	8.807642E-18
6.840938E+03	4.993809E-16	8.456978E-18
6.850881E+03	4.796520E-16	8.138383E-18
6.860825E+03	4.623417E-16	7.859461E-18
6.870768E+03	4.478729E-16	7.627666E-18
6.880711E+03	4.366172E-16	7.449620E-18
6.890654E+03	4.288871E-16	7.330979E-18
6.900598E+03	4.249287E-16	7.276289E-18
6.910541E+03	4.249099E-16	7.288782E-18
6.920484E+03	4.289356E-16	7.370615E-18
6.930427E+03	4.370008E-16	7.522058E-18
6.940370E+03	4.490143E-16	7.741889E-18
6.950314E+03	4.647604E-16	8.026712E-18
6.960257E+03	4.838856E-16	8.370717E-18
6.970200E+03	5.058776E-16	8.765293E-18
6.980143E+03	5.300789E-16	9.199249E-18
6.990087E+03	5.556789E-16	9.658653E-18
7.000030E+03	5.817414E-16	1.012730E-17
7.009973E+03	6.072743E-16	1.058790E-17
7.019916E+03	6.312727E-16	1.102284E-17
7.029860E+03	6.527808E-16	1.141526E-17
7.039803E+03	6.710129E-16	1.175121E-17
7.049746E+03	6.853571E-16	1.201967E-17
7.059689E+03	6.954513E-16	1.221400E-17
7.069632E+03	7.011940E-16	1.233208E-17
7.079576E+03	7.027349E-16	1.237623E-17
7.089519E+03	7.004723E-16	1.235318E-17
7.099462E+03	6.949848E-16	1.227288E-17
7.109405E+03	6.869767E-16	1.214756E-17
7.119349E+03	6.772262E-16	1.199084E-17
7.129292E+03	6.665425E-16	1.181697E-17
7.139235E+03	6.556878E-16	1.163941E-17
7.149178E+03	6.453407E-16	1.147025E-17
7.159121E+03	6.360842E-16	1.131991E-17
7.169065E+03	6.283860E-16	1.119680E-17
7.179008E+03	6.225879E-16	1.110714E-17
7.188951E+03	6.189350E-16	1.105545E-17
7.198894E+03	6.175435E-16	1.104395E-17
7.208838E+03	6.184478E-16	1.107343E-17
7.218781E+03	6.215891E-16	1.114299E-17
7.228724E+03	6.268179E-16	1.125009E-17
7.238667E+03	6.338772E-16	1.139027E-17
7.248610E+03	6.424532E-16	1.155801E-17
7.258554E+03	6.521068E-16	1.174550E-17
7.268497E+03	6.623612E-16	1.194424E-17
7.278440E+03	6.726759E-16	1.214450E-17
7.288383E+03	6.824978E-16	1.233633E-17
7.298327E+03	6.913132E-16	1.251040E-17
7.308270E+03	6.986753E-16	1.265857E-17
7.318213E+03	7.042628E-16	1.277494E-17
7.328156E+03	7.078876E-16	1.285601E-17
7.338099E+03	7.095148E-16	1.290102E-17
7.348043E+03	7.092474E-16	1.291174E-17
7.357986E+03	7.073052E-16	1.289207E-17
7.367929E+03	7.039743E-16	1.284713E-17
7.377872E+03	6.995441E-16	1.278214E-17
7.387816E+03	6.943042E-16	1.270234E-17
7.397759E+03	6.884945E-16	1.261208E-17
7.407702E+03	6.822909E-16	1.251456E-17
7.417645E+03	6.758058E-16	1.241182E-17
7.427588E+03	6.690747E-16	1.230452E-17
7.437532E+03	6.620748E-16	1.219222E-17
7.447475E+03	6.547546E-16	1.207397E-17
7.457418E+03	6.470135E-16	1.194790E-17
7.467361E+03	6.387329E-16	1.181177E-17
7.477305E+03	6.298071E-16	1.166360E-17
7.487248E+03	6.201237E-16	1.150123E-17
7.497191E+03	6.095945E-16	1.132297E-17
7.507134E+03	5.981804E-16	1.112801E-17
7.517077E+03	5.858892E-16	1.091640E-17
7.527021E+03	5.728140E-16	1.068980E-17
7.536964E+03	5.590968E-16	1.045077E-17
7.546907E+03	5.450047E-16	1.020425E-17
7.556850E+03	5.308599E-16	9.956221E-18
7.566794E+03	5.170704E-16	9.714327E-18
7.576737E+03	5.040742E-16	9.486826E-18
7.586680E+03	4.921545E-16	9.279119E-18
7.596623E+03	4.816006E-16	9.096761E-18
7.606567E+03	4.726646E-16	8.944654E-18
7.616510E+03	4.656067E-16	8.827888E-18
7.626453E+03	4.606321E-16	8.750559E-18
7.636396E+03	4.578594E-16	8.715151E-18
7.646339E+03	4.573780E-16	8.723623E-18
7.656283E+03	4.591896E-16	8.776280E-18
7.666226E+03	4.632148E-16	8.871886E-18
7.676169E+03	4.693257E-16	9.008275E-18
7.686112E+03	4.773275E-16	9.181987E-18
7.696056E+03	4.869448E-16	9.387981E-18
7.705999E+03	4.978414E-16	9.620013E-18
7.715942E+03	5.096184E-16	9.870563E-18
