#wls	flux	fluxerr
1.590916E+03	5.013907E-18	3.282112E-20
1.630689E+03	4.850211E-18	3.174956E-20
1.670462E+03	4.662935E-18	3.052365E-20
1.710235E+03	4.454604E-18	2.915991E-20
1.750007E+03	4.229385E-18	2.768562E-20
1.789780E+03	3.989171E-18	2.611318E-20
1.829553E+03	3.734856E-18	2.444843E-20
1.869326E+03	3.467014E-18	2.269513E-20
1.909099E+03	3.189259E-18	2.087694E-20
1.948872E+03	2.905990E-18	1.902265E-20
1.988645E+03	2.625936E-18	1.718941E-20
2.028418E+03	2.364064E-18	1.547520E-20
2.068191E+03	2.141957E-18	1.402128E-20
2.107964E+03	1.980468E-18	1.296418E-20
2.147736E+03	1.893355E-18	1.239393E-20
2.187509E+03	1.879572E-18	1.230371E-20
2.227282E+03	1.926292E-18	1.260953E-20
2.267055E+03	2.013812E-18	1.318244E-20
2.306828E+03	2.124423E-18	1.390651E-20
2.346601E+03	2.246378E-18	1.470482E-20
2.386374E+03	2.374731E-18	1.554502E-20
2.426147E+03	2.510258E-18	1.643219E-20
2.465920E+03	2.658373E-18	1.740175E-20
2.505692E+03	2.826077E-18	1.849954E-20
2.545465E+03	3.023657E-18	1.979290E-20
2.585238E+03	3.262261E-18	2.135481E-20
2.625011E+03	3.553213E-18	2.325938E-20
2.664784E+03	3.909742E-18	2.559323E-20
2.704557E+03	4.342816E-18	2.842813E-20
2.744330E+03	4.864991E-18	3.184630E-20
2.784103E+03	5.487479E-18	3.592111E-20
2.823876E+03	6.223183E-18	4.073704E-20
2.863649E+03	7.086094E-18	4.638567E-20
2.903421E+03	8.089884E-18	5.295649E-20
2.943194E+03	9.255147E-18	6.058432E-20
2.982967E+03	1.060536E-17	6.942286E-20
2.992910E+03	1.097422E-17	7.183740E-20
3.002854E+03	1.135890E-17	7.435553E-20
3.012797E+03	1.175714E-17	7.696238E-20
3.022740E+03	1.217122E-17	7.967294E-20
3.032683E+03	1.260272E-17	8.249759E-20
3.042627E+03	1.305323E-17	8.544659E-20
3.052570E+03	1.352370E-17	8.852631E-20
3.062513E+03	1.401668E-17	9.175337E-20
3.072456E+03	1.452960E-17	9.511096E-20
3.082399E+03	1.506513E-17	9.861656E-20
3.092343E+03	1.562622E-17	1.022894E-19
3.102286E+03	1.621222E-17	1.061254E-19
3.112229E+03	1.682441E-17	1.101328E-19
3.122172E+03	1.746623E-17	1.143342E-19
3.132116E+03	1.813722E-17	1.187265E-19
3.142059E+03	1.884123E-17	1.233350E-19
3.152002E+03	1.957796E-17	1.281576E-19
3.161945E+03	2.035403E-17	1.332377E-19
3.171889E+03	2.116710E-17	1.385601E-19
3.181832E+03	2.201943E-17	1.441395E-19
3.191775E+03	2.291861E-17	1.500255E-19
3.201718E+03	2.386505E-17	1.562209E-19
3.211661E+03	2.486176E-17	1.627454E-19
3.221605E+03	2.591195E-17	1.696200E-19
3.231548E+03	2.702196E-17	1.768861E-19
3.241491E+03	2.819255E-17	1.845488E-19
3.251434E+03	2.943054E-17	1.926527E-19
3.261378E+03	3.073675E-17	2.012032E-19
3.271321E+03	3.212175E-17	2.102694E-19
3.281264E+03	3.358301E-17	2.198348E-19
3.291207E+03	3.512783E-17	2.299472E-19
3.301150E+03	3.676002E-17	2.406316E-19
3.311094E+03	3.848692E-17	2.519359E-19
3.321037E+03	4.030780E-17	2.638554E-19
3.330980E+03	4.222894E-17	2.764312E-19
3.340923E+03	4.424749E-17	2.896446E-19
3.350867E+03	4.636755E-17	3.035225E-19
3.360810E+03	4.858740E-17	3.180538E-19
3.370753E+03	5.090788E-17	3.332437E-19
3.380696E+03	5.331774E-17	3.490186E-19
3.390639E+03	5.580679E-17	3.653120E-19
3.400583E+03	5.836623E-17	3.820661E-19
3.410526E+03	6.097230E-17	3.991254E-19
3.420469E+03	6.361220E-17	4.164063E-19
3.430412E+03	6.625132E-17	4.336820E-19
3.440356E+03	6.885417E-17	4.507203E-19
3.450299E+03	7.137899E-17	4.672478E-19
3.460242E+03	7.379070E-17	4.830349E-19
3.470185E+03	7.602458E-17	4.976579E-19
3.480128E+03	7.803090E-17	5.107913E-19
3.490072E+03	7.975258E-17	5.220614E-19
3.500015E+03	8.113468E-17	5.311086E-19
3.509958E+03	8.213434E-17	5.376524E-19
3.519901E+03	8.271222E-17	5.414352E-19
3.529845E+03	8.283680E-17	5.422507E-19
3.539788E+03	8.251632E-17	5.401529E-19
3.549731E+03	8.176261E-17	5.352191E-19
3.559674E+03	8.063222E-17	5.278196E-19
3.569617E+03	7.918210E-17	5.183271E-19
3.579561E+03	7.747120E-17	5.071275E-19
3.589504E+03	7.557254E-17	4.946988E-19
3.599447E+03	7.355260E-17	4.814763E-19
3.609390E+03	7.146906E-17	4.678373E-19
3.619334E+03	6.939195E-17	4.542406E-19
3.629277E+03	6.735447E-17	4.409032E-19
3.639220E+03	6.539941E-17	4.281054E-19
3.649163E+03	6.353480E-17	4.158996E-19
3.659107E+03	6.172938E-17	4.040813E-19
3.669050E+03	5.994432E-17	3.923963E-19
3.678993E+03	5.812229E-17	3.804693E-19
3.688936E+03	5.621864E-17	3.680079E-19
3.698879E+03	5.419656E-17	3.547714E-19
3.708823E+03	5.203981E-17	3.406532E-19
3.718766E+03	4.977737E-17	3.258433E-19
3.728709E+03	4.746263E-17	3.106910E-19
3.738652E+03	4.515982E-17	2.956168E-19
3.748596E+03	4.295920E-17	2.812115E-19
3.758539E+03	4.094589E-17	2.680323E-19
3.768482E+03	3.919667E-17	2.565819E-19
3.778425E+03	3.777589E-17	2.472814E-19
3.788368E+03	3.673804E-17	2.404877E-19
3.798312E+03	3.612720E-17	2.364891E-19
3.808255E+03	3.598732E-17	2.355735E-19
3.818198E+03	3.635869E-17	2.380044E-19
3.828141E+03	3.729308E-17	2.441209E-19
3.838085E+03	3.884770E-17	2.542975E-19
3.848028E+03	4.109102E-17	2.689823E-19
3.857971E+03	4.410694E-17	2.887246E-19
3.867914E+03	4.797146E-17	3.140218E-19
3.877857E+03	5.276150E-17	3.453774E-19
3.886737E+03	6.623857E-17	4.335985E-19
3.889340E+03	6.771106E-17	4.432375E-19
3.891943E+03	6.957584E-17	4.554443E-19
3.894547E+03	7.111456E-17	4.655168E-19
3.897150E+03	7.265943E-17	4.756295E-19
3.899753E+03	7.429794E-17	4.863552E-19
3.902358E+03	7.691776E-17	5.035046E-19
3.904961E+03	7.912299E-17	5.179401E-19
3.907564E+03	8.121296E-17	5.316210E-19
3.910168E+03	8.408214E-17	5.504027E-19
3.912771E+03	8.696841E-17	5.692963E-19
3.915374E+03	8.961824E-17	5.866421E-19
3.917978E+03	9.192934E-17	6.017706E-19
3.920581E+03	9.499996E-17	6.218709E-19
3.923185E+03	9.691772E-17	6.344246E-19
3.925789E+03	9.927475E-17	6.498537E-19
3.928392E+03	1.014567E-16	6.641365E-19
3.930995E+03	1.037087E-16	6.788783E-19
3.933599E+03	1.064813E-16	6.970278E-19
3.936202E+03	1.093911E-16	7.160755E-19
3.938805E+03	1.114497E-16	7.295513E-19
3.941410E+03	1.140473E-16	7.465551E-19
3.944013E+03	1.161979E-16	7.606329E-19
3.946616E+03	1.174584E-16	7.688840E-19
3.949220E+03	1.187619E-16	7.774169E-19
3.951823E+03	1.200862E-16	7.860856E-19
3.954426E+03	1.212318E-16	7.935850E-19
3.957030E+03	1.225645E-16	8.023087E-19
3.959633E+03	1.235416E-16	8.087047E-19
3.962237E+03	1.243406E-16	8.139352E-19
3.964841E+03	1.259571E-16	8.245165E-19
3.967444E+03	1.274724E-16	8.344360E-19
3.970047E+03	1.297595E-16	8.494074E-19
3.972651E+03	1.308186E-16	8.563404E-19
3.975254E+03	1.312917E-16	8.594374E-19
3.977857E+03	1.314556E-16	8.605097E-19
3.980462E+03	1.326444E-16	8.682922E-19
3.983065E+03	1.351874E-16	8.849385E-19
3.985668E+03	1.376397E-16	9.009910E-19
3.988272E+03	1.390107E-16	9.099656E-19
3.990875E+03	1.405784E-16	9.202276E-19
3.993478E+03	1.429362E-16	9.356620E-19
3.996082E+03	1.436869E-16	9.405763E-19
3.998686E+03	1.441184E-16	9.434010E-19
4.001289E+03	1.456914E-16	9.536975E-19
4.003893E+03	1.468347E-16	9.611815E-19
4.006496E+03	1.485691E-16	9.725354E-19
4.009099E+03	1.490961E-16	9.759847E-19
4.011703E+03	1.488445E-16	9.743380E-19
4.014306E+03	1.498745E-16	9.810805E-19
4.016909E+03	1.513852E-16	9.909692E-19
4.019514E+03	1.531896E-16	1.002781E-18
4.022117E+03	1.547299E-16	1.012864E-18
4.024720E+03	1.556020E-16	1.018573E-18
4.027324E+03	1.559818E-16	1.021058E-18
4.029927E+03	1.571910E-16	1.028974E-18
4.032530E+03	1.587372E-16	1.039096E-18
4.035134E+03	1.600529E-16	1.047708E-18
4.037738E+03	1.609640E-16	1.053672E-18
4.040341E+03	1.620268E-16	1.060629E-18
4.042945E+03	1.631866E-16	1.068221E-18
4.045548E+03	1.644977E-16	1.076804E-18
4.048151E+03	1.662971E-16	1.088583E-18
4.050755E+03	1.667355E-16	1.091452E-18
4.053358E+03	1.674018E-16	1.095814E-18
4.055961E+03	1.679155E-16	1.099177E-18
4.058566E+03	1.673104E-16	1.095216E-18
4.061169E+03	1.669447E-16	1.092822E-18
4.063772E+03	1.666121E-16	1.090645E-18
4.066376E+03	1.665509E-16	1.090244E-18
4.068979E+03	1.655146E-16	1.083461E-18
4.071582E+03	1.651185E-16	1.080867E-18
4.074186E+03	1.638351E-16	1.072467E-18
4.076790E+03	1.626289E-16	1.064571E-18
4.079393E+03	1.618565E-16	1.059515E-18
4.081997E+03	1.605121E-16	1.050714E-18
4.084600E+03	1.585209E-16	1.037680E-18
4.087203E+03	1.567801E-16	1.026285E-18
4.089807E+03	1.544907E-16	1.011298E-18
4.092410E+03	1.526244E-16	9.990810E-19
4.095013E+03	1.510726E-16	9.889233E-19
4.097618E+03	1.490698E-16	9.758130E-19
4.100221E+03	1.469291E-16	9.617995E-19
4.102824E+03	1.454581E-16	9.521702E-19
4.105428E+03	1.435796E-16	9.398737E-19
4.108031E+03	1.422193E-16	9.309695E-19
4.110634E+03	1.410863E-16	9.235525E-19
4.113238E+03	1.399974E-16	9.164246E-19
4.115842E+03	1.380074E-16	9.033982E-19
4.118445E+03	1.354613E-16	8.867310E-19
4.121049E+03	1.334112E-16	8.733112E-19
4.123652E+03	1.319316E-16	8.636260E-19
4.126255E+03	1.310754E-16	8.580208E-19
4.128859E+03	1.303271E-16	8.531230E-19
4.131462E+03	1.293977E-16	8.470387E-19
4.134065E+03	1.276770E-16	8.357754E-19
4.136670E+03	1.273491E-16	8.336286E-19
4.139273E+03	1.272141E-16	8.327448E-19
4.141876E+03	1.265876E-16	8.286438E-19
4.144480E+03	1.263891E-16	8.273445E-19
4.147083E+03	1.273444E-16	8.335977E-19
4.149686E+03	1.278399E-16	8.368412E-19
4.152289E+03	1.277695E-16	8.363806E-19
4.154894E+03	1.272513E-16	8.329885E-19
4.157497E+03	1.273840E-16	8.338572E-19
4.160101E+03	1.274741E-16	8.344469E-19
4.162704E+03	1.271488E-16	8.323179E-19
4.165307E+03	1.272285E-16	8.328392E-19
4.167910E+03	1.266698E-16	8.291822E-19
4.170514E+03	1.271753E-16	8.324908E-19
4.173117E+03	1.270319E-16	8.315525E-19
4.175722E+03	1.268782E-16	8.305462E-19
4.178325E+03	1.279037E-16	8.372589E-19
4.180928E+03	1.282170E-16	8.393103E-19
4.183531E+03	1.280315E-16	8.380960E-19
4.186135E+03	1.278145E-16	8.366752E-19
4.188738E+03	1.271208E-16	8.321340E-19
4.191342E+03	1.269151E-16	8.307880E-19
4.193946E+03	1.269747E-16	8.311777E-19
4.196549E+03	1.267379E-16	8.296275E-19
4.199153E+03	1.260992E-16	8.254471E-19
4.201756E+03	1.249430E-16	8.178786E-19
4.204359E+03	1.237034E-16	8.097637E-19
4.206962E+03	1.239339E-16	8.112731E-19
4.209566E+03	1.240377E-16	8.119521E-19
4.212170E+03	1.240992E-16	8.123551E-19
4.214774E+03	1.244986E-16	8.149695E-19
4.217377E+03	1.242964E-16	8.136460E-19
4.219980E+03	1.242844E-16	8.135672E-19
4.222583E+03	1.243252E-16	8.138345E-19
4.225187E+03	1.249246E-16	8.177577E-19
4.227790E+03	1.258606E-16	8.238847E-19
4.230394E+03	1.264274E-16	8.275954E-19
4.232998E+03	1.272149E-16	8.327505E-19
4.235601E+03	1.282333E-16	8.394168E-19
4.238204E+03	1.290302E-16	8.446333E-19
4.240808E+03	1.296269E-16	8.485393E-19
4.243411E+03	1.292463E-16	8.460481E-19
4.246015E+03	1.289188E-16	8.439040E-19
4.248618E+03	1.293788E-16	8.469154E-19
4.251222E+03	1.293980E-16	8.470410E-19
4.253825E+03	1.290608E-16	8.448338E-19
4.256429E+03	1.288709E-16	8.435902E-19
4.259032E+03	1.286184E-16	8.419373E-19
4.261636E+03	1.290785E-16	8.449493E-19
4.264239E+03	1.292138E-16	8.458353E-19
4.266842E+03	1.291609E-16	8.454887E-19
4.269445E+03	1.290035E-16	8.444587E-19
4.272050E+03	1.296830E-16	8.489068E-19
4.274653E+03	1.298709E-16	8.501367E-19
4.277256E+03	1.294425E-16	8.473320E-19
4.279860E+03	1.289831E-16	8.443252E-19
4.282463E+03	1.286497E-16	8.421427E-19
4.285066E+03	1.282020E-16	8.392116E-19
4.287670E+03	1.277861E-16	8.364891E-19
4.290274E+03	1.274958E-16	8.345893E-19
4.292877E+03	1.271018E-16	8.320098E-19
4.295481E+03	1.267499E-16	8.297065E-19
4.298084E+03	1.268881E-16	8.306111E-19
4.300687E+03	1.267557E-16	8.297444E-19
4.303291E+03	1.262802E-16	8.266315E-19
4.305894E+03	1.250978E-16	8.188918E-19
4.308497E+03	1.247693E-16	8.167415E-19
4.311102E+03	1.255328E-16	8.217393E-19
4.313705E+03	1.251321E-16	8.191165E-19
4.316308E+03	1.263005E-16	8.267644E-19
4.318912E+03	1.263675E-16	8.272034E-19
4.321515E+03	1.267981E-16	8.300219E-19
4.324118E+03	1.275295E-16	8.348094E-19
4.326722E+03	1.279909E-16	8.378299E-19
4.329326E+03	1.277057E-16	8.359630E-19
4.331929E+03	1.281465E-16	8.388487E-19
4.334533E+03	1.288877E-16	8.437006E-19
4.337136E+03	1.295251E-16	8.478730E-19
4.339739E+03	1.305247E-16	8.544162E-19
4.342343E+03	1.310581E-16	8.579080E-19
4.344946E+03	1.307224E-16	8.557103E-19
4.347549E+03	1.296529E-16	8.487092E-19
4.350154E+03	1.281915E-16	8.391433E-19
4.352757E+03	1.275066E-16	8.346598E-19
4.355360E+03	1.266985E-16	8.293699E-19
4.357964E+03	1.253749E-16	8.207053E-19
4.360567E+03	1.241040E-16	8.123862E-19
4.363170E+03	1.232472E-16	8.067773E-19
4.365774E+03	1.230722E-16	8.056320E-19
4.368378E+03	1.224026E-16	8.012486E-19
4.370981E+03	1.218883E-16	7.978825E-19
4.373585E+03	1.217253E-16	7.968150E-19
4.376188E+03	1.210370E-16	7.923099E-19
4.378791E+03	1.208132E-16	7.908446E-19
4.381395E+03	1.200337E-16	7.857418E-19
4.383998E+03	1.197389E-16	7.838122E-19
4.386602E+03	1.197636E-16	7.839739E-19
4.389206E+03	1.183071E-16	7.744400E-19
4.391809E+03	1.176028E-16	7.698293E-19
4.394412E+03	1.169300E-16	7.654250E-19
4.397016E+03	1.166794E-16	7.637849E-19
4.399619E+03	1.162752E-16	7.611390E-19
4.402222E+03	1.166216E-16	7.634063E-19
4.404826E+03	1.171324E-16	7.667501E-19
4.407430E+03	1.179103E-16	7.718420E-19
4.410033E+03	1.184726E-16	7.755227E-19
4.412637E+03	1.190452E-16	7.792711E-19
4.415240E+03	1.191665E-16	7.800653E-19
4.417843E+03	1.199753E-16	7.853597E-19
4.420447E+03	1.198818E-16	7.847475E-19
4.423050E+03	1.200758E-16	7.860174E-19
4.425654E+03	1.204546E-16	7.884970E-19
4.428258E+03	1.207414E-16	7.903746E-19
4.430861E+03	1.214997E-16	7.953385E-19
4.433464E+03	1.227906E-16	8.037887E-19
4.436068E+03	1.241018E-16	8.123716E-19
4.438671E+03	1.254538E-16	8.212217E-19
4.441274E+03	1.267237E-16	8.295348E-19
4.443878E+03	1.277787E-16	8.364412E-19
4.446482E+03	1.291100E-16	8.451553E-19
4.449085E+03	1.301241E-16	8.517942E-19
4.451689E+03	1.309033E-16	8.568944E-19
4.454292E+03	1.320199E-16	8.642039E-19
4.456895E+03	1.330345E-16	8.708452E-19
4.459499E+03	1.337121E-16	8.752807E-19
4.462102E+03	1.354421E-16	8.866054E-19
4.464706E+03	1.363346E-16	8.924478E-19
4.467310E+03	1.369312E-16	8.963535E-19
4.469913E+03	1.373446E-16	8.990591E-19
4.472516E+03	1.385239E-16	9.067790E-19
4.475120E+03	1.400403E-16	9.167053E-19
4.477723E+03	1.419038E-16	9.289039E-19
4.480326E+03	1.434306E-16	9.388984E-19
4.482930E+03	1.447231E-16	9.473588E-19
4.485534E+03	1.462300E-16	9.572231E-19
4.488137E+03	1.480735E-16	9.692911E-19
4.490741E+03	1.497949E-16	9.805591E-19
4.493344E+03	1.509557E-16	9.881581E-19
4.495947E+03	1.524329E-16	9.978273E-19
4.498551E+03	1.540835E-16	1.008632E-18
4.501154E+03	1.560502E-16	1.021506E-18
4.503758E+03	1.577419E-16	1.032580E-18
4.506362E+03	1.597802E-16	1.045923E-18
4.508965E+03	1.623789E-16	1.062934E-18
4.511568E+03	1.645497E-16	1.077144E-18
4.514172E+03	1.667003E-16	1.091222E-18
4.516775E+03	1.686067E-16	1.103701E-18
4.519378E+03	1.701772E-16	1.113982E-18
4.521982E+03	1.719517E-16	1.125598E-18
4.524586E+03	1.743167E-16	1.141079E-18
4.527189E+03	1.762850E-16	1.153963E-18
4.529793E+03	1.785180E-16	1.168581E-18
4.532396E+03	1.808835E-16	1.184066E-18
4.534999E+03	1.835443E-16	1.201483E-18
4.537603E+03	1.872938E-16	1.226028E-18
4.540206E+03	1.912570E-16	1.251971E-18
4.542810E+03	1.960239E-16	1.283175E-18
4.545414E+03	1.998140E-16	1.307985E-18
4.548017E+03	2.037465E-16	1.333727E-18
4.550620E+03	2.079332E-16	1.361133E-18
4.553224E+03	2.125573E-16	1.391402E-18
4.555827E+03	2.171508E-16	1.421472E-18
4.558430E+03	2.206866E-16	1.444617E-18
4.561034E+03	2.243649E-16	1.468695E-18
4.563638E+03	2.287347E-16	1.497300E-18
4.566241E+03	2.326267E-16	1.522777E-18
4.568844E+03	2.367120E-16	1.549519E-18
4.571448E+03	2.401873E-16	1.572269E-18
4.574051E+03	2.435916E-16	1.594553E-18
4.576655E+03	2.469961E-16	1.616839E-18
4.579258E+03	2.506548E-16	1.640790E-18
4.581862E+03	2.542325E-16	1.664209E-18
4.584465E+03	2.572716E-16	1.684103E-18
4.587069E+03	2.600466E-16	1.702268E-18
4.589672E+03	2.631368E-16	1.722497E-18
4.592276E+03	2.665933E-16	1.745123E-18
4.594879E+03	2.686778E-16	1.758768E-18
4.597482E+03	2.708134E-16	1.772748E-18
4.600086E+03	2.728375E-16	1.785998E-18
4.602690E+03	2.745164E-16	1.796987E-18
4.605293E+03	2.760227E-16	1.806848E-18
4.607897E+03	2.777631E-16	1.818241E-18
4.610500E+03	2.788025E-16	1.825045E-18
4.613103E+03	2.789481E-16	1.825997E-18
4.615706E+03	2.787281E-16	1.824558E-18
4.618310E+03	2.788540E-16	1.825381E-18
4.620914E+03	2.790613E-16	1.826739E-18
4.623517E+03	2.787914E-16	1.824972E-18
4.626121E+03	2.784101E-16	1.822476E-18
4.628724E+03	2.773583E-16	1.815591E-18
4.631328E+03	2.767539E-16	1.811634E-18
4.633931E+03	2.776635E-16	1.817588E-18
4.636534E+03	2.777401E-16	1.818090E-18
4.639138E+03	2.774511E-16	1.816198E-18
4.641742E+03	2.769694E-16	1.813045E-18
4.644345E+03	2.760204E-16	1.806833E-18
4.646949E+03	2.754983E-16	1.803415E-18
4.649552E+03	2.747223E-16	1.798336E-18
4.652155E+03	2.739161E-16	1.793058E-18
4.654758E+03	2.730285E-16	1.787248E-18
4.657362E+03	2.725069E-16	1.783833E-18
4.659966E+03	2.719446E-16	1.780153E-18
4.662570E+03	2.706511E-16	1.771685E-18
4.665173E+03	2.690833E-16	1.761423E-18
4.667776E+03	2.679118E-16	1.753754E-18
4.670379E+03	2.666692E-16	1.745619E-18
4.672983E+03	2.652032E-16	1.736023E-18
4.675586E+03	2.643364E-16	1.730349E-18
4.678191E+03	2.638963E-16	1.727468E-18
4.680794E+03	2.639436E-16	1.727778E-18
4.683397E+03	2.634119E-16	1.724297E-18
4.686000E+03	2.629513E-16	1.721282E-18
4.688604E+03	2.626633E-16	1.719397E-18
4.691207E+03	2.617962E-16	1.713721E-18
4.693811E+03	2.614776E-16	1.711635E-18
4.696414E+03	2.614026E-16	1.711144E-18
4.699018E+03	2.617540E-16	1.713445E-18
4.701621E+03	2.618412E-16	1.714015E-18
4.704225E+03	2.617963E-16	1.713721E-18
4.706828E+03	2.615988E-16	1.712429E-18
4.709431E+03	2.615028E-16	1.711800E-18
4.712035E+03	2.610004E-16	1.708511E-18
4.714638E+03	2.599494E-16	1.701632E-18
4.717242E+03	2.582383E-16	1.690431E-18
4.719846E+03	2.573191E-16	1.684414E-18
4.722449E+03	2.561154E-16	1.676534E-18
4.725052E+03	2.558254E-16	1.674636E-18
4.727656E+03	2.555961E-16	1.673135E-18
4.730259E+03	2.540364E-16	1.662925E-18
4.732862E+03	2.534411E-16	1.659028E-18
4.735466E+03	2.523075E-16	1.651608E-18
4.738070E+03	2.510722E-16	1.643521E-18
4.740673E+03	2.494407E-16	1.632842E-18
4.743277E+03	2.479309E-16	1.622958E-18
4.745880E+03	2.468269E-16	1.615732E-18
4.748483E+03	2.452050E-16	1.605115E-18
4.751087E+03	2.435220E-16	1.594097E-18
4.753690E+03	2.420620E-16	1.584541E-18
4.756294E+03	2.400538E-16	1.571395E-18
4.758898E+03	2.380150E-16	1.558049E-18
4.761501E+03	2.358034E-16	1.543571E-18
4.764104E+03	2.334800E-16	1.528363E-18
4.766708E+03	2.312884E-16	1.514016E-18
4.769311E+03	2.290053E-16	1.499071E-18
4.771914E+03	2.263770E-16	1.481866E-18
4.774518E+03	2.247025E-16	1.470905E-18
4.777122E+03	2.235351E-16	1.463263E-18
4.779725E+03	2.224384E-16	1.456085E-18
4.782329E+03	2.207835E-16	1.445252E-18
4.784932E+03	2.193821E-16	1.436078E-18
4.787535E+03	2.179398E-16	1.426636E-18
4.790139E+03	2.161625E-16	1.415002E-18
4.792742E+03	2.143749E-16	1.403301E-18
4.795346E+03	2.125060E-16	1.391067E-18
4.797950E+03	2.107688E-16	1.379695E-18
4.800553E+03	2.088285E-16	1.366994E-18
4.803156E+03	2.077501E-16	1.359935E-18
4.805760E+03	2.060326E-16	1.348692E-18
4.808363E+03	2.044366E-16	1.338244E-18
4.810966E+03	2.029925E-16	1.328791E-18
4.813571E+03	2.009905E-16	1.315686E-18
4.816174E+03	1.991102E-16	1.303377E-18
4.818777E+03	1.975337E-16	1.293058E-18
4.821381E+03	1.961700E-16	1.284131E-18
4.823984E+03	1.946743E-16	1.274340E-18
4.826587E+03	1.928845E-16	1.262624E-18
4.829191E+03	1.909831E-16	1.250178E-18
4.831794E+03	1.889397E-16	1.236802E-18
4.834398E+03	1.867849E-16	1.222696E-18
4.837002E+03	1.845692E-16	1.208192E-18
4.839605E+03	1.827283E-16	1.196142E-18
4.842208E+03	1.808772E-16	1.184024E-18
4.844812E+03	1.797045E-16	1.176348E-18
4.847415E+03	1.778229E-16	1.164031E-18
4.850018E+03	1.763259E-16	1.154231E-18
4.852623E+03	1.747984E-16	1.144232E-18
4.855226E+03	1.731696E-16	1.133570E-18
4.857829E+03	1.712269E-16	1.120853E-18
4.860433E+03	1.695777E-16	1.110058E-18
4.863036E+03	1.685761E-16	1.103501E-18
4.865639E+03	1.677362E-16	1.098003E-18
4.868243E+03	1.663093E-16	1.088662E-18
4.870846E+03	1.653071E-16	1.082102E-18
4.873450E+03	1.640822E-16	1.074084E-18
4.876054E+03	1.625841E-16	1.064277E-18
4.878657E+03	1.621882E-16	1.061686E-18
4.881260E+03	1.613774E-16	1.056378E-18
4.883864E+03	1.610818E-16	1.054444E-18
4.886467E+03	1.610084E-16	1.053963E-18
4.889070E+03	1.609951E-16	1.053876E-18
