#wls	flux	fluxerr
1.590916E+03	1.212111E-18	5.090049E-20
1.630689E+03	1.226612E-18	5.135381E-20
1.670462E+03	1.237216E-18	5.163699E-20
1.710235E+03	1.244033E-18	5.175593E-20
1.750007E+03	1.246562E-18	5.169120E-20
1.789780E+03	1.243926E-18	5.140828E-20
1.829553E+03	1.234697E-18	5.085043E-20
1.869326E+03	1.216827E-18	4.993643E-20
1.909099E+03	1.189454E-18	4.863501E-20
1.948872E+03	1.151521E-18	4.690753E-20
1.988645E+03	1.104761E-18	4.482949E-20
2.028418E+03	1.054306E-18	4.261298E-20
2.068191E+03	1.010299E-18	4.066851E-20
2.107964E+03	9.854681E-19	3.950357E-20
2.147736E+03	9.913827E-19	3.957051E-20
2.187509E+03	1.033403E-18	4.106639E-20
2.227282E+03	1.109584E-18	4.389472E-20
2.267055E+03	1.212835E-18	4.775689E-20
2.306828E+03	1.335201E-18	5.232504E-20
2.346601E+03	1.470069E-18	5.732894E-20
2.386374E+03	1.613087E-18	6.259081E-20
2.426147E+03	1.762733E-18	6.804532E-20
2.465920E+03	1.918965E-18	7.368485E-20
2.505692E+03	2.082826E-18	7.954312E-20
2.545465E+03	2.256002E-18	8.567722E-20
2.585238E+03	2.440158E-18	9.214177E-20
2.625011E+03	2.637933E-18	9.902612E-20
2.664784E+03	2.851787E-18	1.064103E-19
2.704557E+03	3.084321E-18	1.143770E-19
2.744330E+03	3.338270E-18	1.230108E-19
2.784103E+03	3.615923E-18	1.323769E-19
2.823876E+03	3.921382E-18	1.426036E-19
2.863649E+03	4.256548E-18	1.537349E-19
2.903421E+03	4.625174E-18	1.658787E-19
2.943194E+03	5.030485E-18	1.791192E-19
2.982967E+03	5.475661E-18	1.935348E-19
2.992910E+03	5.592977E-18	1.973106E-19
3.002854E+03	5.713830E-18	2.011938E-19
3.012797E+03	5.837409E-18	2.051550E-19
3.022740E+03	5.962932E-18	2.091662E-19
3.032683E+03	6.092684E-18	2.133068E-19
3.042627E+03	6.226148E-18	2.175579E-19
3.052570E+03	6.363394E-18	2.219209E-19
3.062513E+03	6.504363E-18	2.263930E-19
3.072456E+03	6.649002E-18	2.309713E-19
3.082399E+03	6.797264E-18	2.356536E-19
3.092343E+03	6.949099E-18	2.404370E-19
3.102286E+03	7.104455E-18	2.453189E-19
3.112229E+03	7.264398E-18	2.503353E-19
3.122172E+03	7.426676E-18	2.554076E-19
3.132116E+03	7.592330E-18	2.605708E-19
3.142059E+03	7.761305E-18	2.658223E-19
3.152002E+03	7.934761E-18	2.712008E-19
3.161945E+03	8.110247E-18	2.766216E-19
3.171889E+03	8.290154E-18	2.821656E-19
3.181832E+03	8.471929E-18	2.877449E-19
3.191775E+03	8.658049E-18	2.934430E-19
3.201718E+03	8.847196E-18	2.992142E-19
3.211661E+03	9.037937E-18	3.050093E-19
3.221605E+03	9.232898E-18	3.109161E-19
3.231548E+03	9.430669E-18	3.168864E-19
3.241491E+03	9.631171E-18	3.229166E-19
3.251434E+03	9.834317E-18	3.290031E-19
3.261378E+03	1.004002E-17	3.351420E-19
3.271321E+03	1.024818E-17	3.413297E-19
3.281264E+03	1.045869E-17	3.475619E-19
3.291207E+03	1.067147E-17	3.538348E-19
3.301150E+03	1.088639E-17	3.601436E-19
3.311094E+03	1.110334E-17	3.664841E-19
3.321037E+03	1.132220E-17	3.728518E-19
3.330980E+03	1.154284E-17	3.792417E-19
3.340923E+03	1.176688E-17	3.857064E-19
3.350867E+03	1.199072E-17	3.921273E-19
3.360810E+03	1.221594E-17	3.985557E-19
3.370753E+03	1.244423E-17	4.050460E-19
3.380696E+03	1.267180E-17	4.114746E-19
3.390639E+03	1.290220E-17	4.179563E-19
3.400583E+03	1.313152E-17	4.243639E-19
3.410526E+03	1.336342E-17	4.308156E-19
3.420469E+03	1.359586E-17	4.372447E-19
3.430412E+03	1.382665E-17	4.435812E-19
3.440356E+03	1.405965E-17	4.499484E-19
3.450299E+03	1.429272E-17	4.562774E-19
3.460242E+03	1.452359E-17	4.624959E-19
3.470185E+03	1.475630E-17	4.687326E-19
3.480128E+03	1.498863E-17	4.749164E-19
3.490072E+03	1.522044E-17	4.810431E-19
3.500015E+03	1.545161E-17	4.871084E-19
3.509958E+03	1.568201E-17	4.931087E-19
3.519901E+03	1.591153E-17	4.990402E-19
3.529845E+03	1.614006E-17	5.049000E-19
3.539788E+03	1.636751E-17	5.106852E-19
3.549731E+03	1.659381E-17	5.163937E-19
3.559674E+03	1.681889E-17	5.220233E-19
3.569617E+03	1.704269E-17	5.275728E-19
3.579561E+03	1.726518E-17	5.330410E-19
3.589504E+03	1.748881E-17	5.385038E-19
3.599447E+03	1.770863E-17	5.438088E-19
3.609390E+03	1.792709E-17	5.490320E-19
3.619334E+03	1.814421E-17	5.541739E-19
3.629277E+03	1.836262E-17	5.593149E-19
3.639220E+03	1.857718E-17	5.642986E-19
3.649163E+03	1.879051E-17	5.692055E-19
3.659107E+03	1.900535E-17	5.741182E-19
3.669050E+03	1.921646E-17	5.788785E-19
3.678993E+03	1.942928E-17	5.836507E-19
3.688936E+03	1.963849E-17	5.882750E-19
3.698879E+03	1.984966E-17	5.929185E-19
3.708823E+03	2.005738E-17	5.974196E-19
3.718766E+03	2.026733E-17	6.019479E-19
3.728709E+03	2.047403E-17	6.063402E-19
3.738652E+03	2.068327E-17	6.107685E-19
3.748596E+03	2.088946E-17	6.150677E-19
3.758539E+03	2.109853E-17	6.194123E-19
3.768482E+03	2.130480E-17	6.236352E-19
3.778425E+03	2.151429E-17	6.279131E-19
3.788368E+03	2.172424E-17	6.321647E-19
3.798312E+03	2.193180E-17	6.363071E-19
3.808255E+03	2.214314E-17	6.405194E-19
3.818198E+03	2.235544E-17	6.447193E-19
3.828141E+03	2.256578E-17	6.488230E-19
3.838085E+03	2.278052E-17	6.530124E-19
3.848028E+03	2.299675E-17	6.572041E-19
3.857971E+03	2.321151E-17	6.613131E-19
3.867914E+03	2.343131E-17	6.655243E-19
3.877857E+03	2.365318E-17	6.697530E-19
3.887801E+03	2.387411E-17	6.739132E-19
3.897744E+03	2.410076E-17	6.781928E-19
3.907687E+03	2.433013E-17	6.825060E-19
3.917630E+03	2.455913E-17	6.867659E-19
3.927574E+03	2.479459E-17	6.911630E-19
3.937517E+03	2.503346E-17	6.956107E-19
3.947460E+03	2.527597E-17	7.001149E-19
3.957403E+03	2.551896E-17	7.045873E-19
3.967346E+03	2.576948E-17	7.092219E-19
3.977290E+03	2.602442E-17	7.139313E-19
3.987233E+03	2.628052E-17	7.186254E-19
3.997176E+03	2.654504E-17	7.235017E-19
4.007119E+03	2.681477E-17	7.284711E-19
4.017063E+03	2.708639E-17	7.334422E-19
4.027006E+03	2.736734E-17	7.386155E-19
4.036949E+03	2.765431E-17	7.439000E-19
4.046892E+03	2.794390E-17	7.492024E-19
4.056835E+03	2.824373E-17	7.547260E-19
4.066779E+03	2.854662E-17	7.602773E-19
4.076722E+03	2.886033E-17	7.660613E-19
4.086665E+03	2.918136E-17	7.719828E-19
4.096608E+03	2.950607E-17	7.779440E-19
4.106552E+03	2.984236E-17	7.841519E-19
4.116495E+03	3.018265E-17	7.904048E-19
4.126438E+03	3.053494E-17	7.969110E-19
4.136381E+03	3.089142E-17	8.034643E-19
4.146324E+03	3.126022E-17	8.102743E-19
4.156268E+03	3.163329E-17	8.171303E-19
4.166211E+03	3.201469E-17	8.241357E-19
4.176154E+03	3.240858E-17	8.313957E-19
4.186097E+03	3.280654E-17	8.386917E-19
4.196041E+03	3.321260E-17	8.461258E-19
4.205984E+03	3.363093E-17	8.538018E-19
4.215927E+03	3.405265E-17	8.614924E-19
4.225870E+03	3.448176E-17	8.692978E-19
4.235814E+03	3.492239E-17	8.773203E-19
4.245757E+03	3.536518E-17	8.853230E-19
4.255700E+03	3.581409E-17	8.934043E-19
4.265643E+03	3.626854E-17	9.015490E-19
4.275586E+03	3.672790E-17	9.097402E-19
4.285530E+03	3.719148E-17	9.179602E-19
4.295473E+03	3.765851E-17	9.261892E-19
4.305416E+03	3.812812E-17	9.344062E-19
4.315359E+03	3.859944E-17	9.425892E-19
4.325303E+03	3.907150E-17	9.507150E-19
4.335246E+03	3.954328E-17	9.587591E-19
4.345189E+03	4.001371E-17	9.666968E-19
4.355132E+03	4.047660E-17	9.743794E-19
4.365075E+03	4.094098E-17	9.820268E-19
4.375019E+03	4.140073E-17	9.894928E-19
4.384962E+03	4.184961E-17	9.966304E-19
4.394905E+03	4.229710E-17	1.003668E-18
4.404848E+03	4.273165E-17	1.010335E-18
4.414792E+03	4.316295E-17	1.016862E-18
4.424735E+03	4.357929E-17	1.022976E-18
4.434678E+03	4.399058E-17	1.028913E-18
4.444621E+03	4.438495E-17	1.034400E-18
4.454564E+03	4.476701E-17	1.039546E-18
4.464508E+03	4.514154E-17	1.044466E-18
4.474451E+03	4.549656E-17	1.048885E-18
4.484394E+03	4.583692E-17	1.052920E-18
4.494337E+03	4.616196E-17	1.056558E-18
4.504281E+03	4.647110E-17	1.059791E-18
4.514224E+03	4.676382E-17	1.062611E-18
4.524167E+03	4.703970E-17	1.065011E-18
4.534110E+03	4.729840E-17	1.066989E-18
4.544053E+03	4.753969E-17	1.068543E-18
4.553997E+03	4.775757E-17	1.069543E-18
4.563940E+03	4.796373E-17	1.070256E-18
4.573883E+03	4.815243E-17	1.070556E-18
4.583826E+03	4.831790E-17	1.070320E-18
4.593770E+03	4.847231E-17	1.069821E-18
4.603713E+03	4.860419E-17	1.068811E-18
4.613656E+03	4.872596E-17	1.067566E-18
4.623599E+03	4.882631E-17	1.065842E-18
4.633542E+03	4.891193E-17	1.063789E-18
4.643486E+03	4.898363E-17	1.061429E-18
4.653429E+03	4.904825E-17	1.058911E-18
4.663372E+03	4.909481E-17	1.056002E-18
4.673315E+03	4.913033E-17	1.052855E-18
4.683259E+03	4.915587E-17	1.049497E-18
4.693202E+03	4.916660E-17	1.045825E-18
4.703145E+03	4.917563E-17	1.042123E-18
4.713088E+03	4.917816E-17	1.038288E-18
4.723031E+03	4.917542E-17	1.034347E-18
4.732975E+03	4.916268E-17	1.030203E-18
4.742918E+03	4.915304E-17	1.026131E-18
4.752861E+03	4.913581E-17	1.021909E-18
4.762804E+03	4.912405E-17	1.017808E-18
4.772748E+03	4.910708E-17	1.013606E-18
4.782691E+03	4.909192E-17	1.009449E-18
4.792634E+03	4.907966E-17	1.005359E-18
4.802577E+03	4.907133E-17	1.001357E-18
4.812521E+03	4.906792E-17	9.974599E-19
4.822464E+03	4.907034E-17	9.936868E-19
4.832407E+03	4.907947E-17	9.900532E-19
4.842350E+03	4.909610E-17	9.865738E-19
4.852293E+03	4.912097E-17	9.832614E-19
4.862237E+03	4.914891E-17	9.800110E-19
4.872180E+03	4.919221E-17	9.770664E-19
4.882123E+03	4.923970E-17	9.742025E-19
4.892066E+03	4.930356E-17	9.716588E-19
4.902010E+03	4.937244E-17	9.692085E-19
4.911953E+03	4.945252E-17	9.669717E-19
4.921896E+03	4.954991E-17	9.650647E-19
4.931839E+03	4.965301E-17	9.632589E-19
4.941782E+03	4.976781E-17	9.616685E-19
4.951726E+03	4.989431E-17	9.602909E-19
4.961669E+03	5.003243E-17	9.591226E-19
4.971612E+03	5.017612E-17	9.580453E-19
4.981555E+03	5.033701E-17	9.572791E-19
4.991499E+03	5.050890E-17	9.567029E-19
5.001442E+03	5.068545E-17	9.561948E-19
5.011385E+03	5.087814E-17	9.559701E-19
5.021328E+03	5.107449E-17	9.557916E-19
5.031271E+03	5.128592E-17	9.558717E-19
5.041215E+03	5.149973E-17	9.559717E-19
5.051158E+03	5.172118E-17	9.561886E-19
5.061101E+03	5.194947E-17	9.565064E-19
5.071044E+03	5.218371E-17	9.569080E-19
5.080988E+03	5.242297E-17	9.573751E-19
5.090931E+03	5.266625E-17	9.578891E-19
5.100874E+03	5.291247E-17	9.584301E-19
5.110817E+03	5.315429E-17	9.588658E-19
5.120760E+03	5.340297E-17	9.593996E-19
5.130704E+03	5.365108E-17	9.598982E-19
5.140647E+03	5.389110E-17	9.602280E-19
5.150590E+03	5.413428E-17	9.605913E-19
5.160533E+03	5.436672E-17	9.607424E-19
5.170477E+03	5.459340E-17	9.607720E-19
5.180420E+03	5.481299E-17	9.606589E-19
5.190363E+03	5.502415E-17	9.603820E-19
5.200306E+03	5.522559E-17	9.599214E-19
5.210249E+03	5.541601E-17	9.592577E-19
5.220193E+03	5.559417E-17	9.583724E-19
5.230136E+03	5.575884E-17	9.572483E-19
5.240079E+03	5.590886E-17	9.558691E-19
5.250022E+03	5.603664E-17	9.541096E-19
5.259966E+03	5.615416E-17	9.521783E-19
5.269909E+03	5.624745E-17	9.498427E-19
5.279852E+03	5.632871E-17	9.473137E-19
5.289795E+03	5.638418E-17	9.443643E-19
5.299738E+03	5.641975E-17	9.410990E-19
5.309682E+03	5.643496E-17	9.375150E-19
5.319625E+03	5.643601E-17	9.337200E-19
5.329568E+03	5.640968E-17	9.294998E-19
5.339511E+03	5.636251E-17	9.249682E-19
5.349455E+03	5.628822E-17	9.200274E-19
5.359398E+03	5.620024E-17	9.149024E-19
5.369341E+03	5.609271E-17	9.095015E-19
5.379284E+03	5.596652E-17	9.038437E-19
5.389228E+03	5.581637E-17	8.978481E-19
5.399171E+03	5.565648E-17	8.917478E-19
5.409114E+03	5.547552E-17	8.853644E-19
5.419057E+03	5.528153E-17	8.788302E-19
5.429000E+03	5.508236E-17	8.722729E-19
5.438944E+03	5.486662E-17	8.655141E-19
5.448887E+03	5.464151E-17	8.586706E-19
5.458830E+03	5.440716E-17	8.517465E-19
5.468773E+03	5.416404E-17	8.447514E-19
5.478717E+03	5.391509E-17	8.377318E-19
5.488660E+03	5.366293E-17	8.307284E-19
5.498603E+03	5.340956E-17	8.237708E-19
5.508546E+03	5.315645E-17	8.168808E-19
5.518489E+03	5.289879E-17	8.099829E-19
5.528433E+03	5.264984E-17	8.032794E-19
5.538376E+03	5.239864E-17	7.966004E-19
5.548319E+03	5.215841E-17	7.901454E-19
5.558262E+03	5.191839E-17	7.837490E-19
5.568206E+03	5.168590E-17	7.775200E-19
5.578149E+03	5.146817E-17	7.715645E-19
5.588092E+03	5.125475E-17	7.657230E-19
5.598035E+03	5.105292E-17	7.601019E-19
5.607978E+03	5.086402E-17	7.547183E-19
5.617922E+03	5.068933E-17	7.495882E-19
5.627865E+03	5.053005E-17	7.447263E-19
5.637808E+03	5.038732E-17	7.401460E-19
5.647751E+03	5.026220E-17	7.358594E-19
5.657695E+03	5.014988E-17	7.317932E-19
5.667638E+03	5.006269E-17	7.281238E-19
5.677581E+03	4.999562E-17	7.247744E-19
5.687524E+03	4.994361E-17	7.216683E-19
5.697467E+03	4.991858E-17	7.189746E-19
5.707411E+03	4.990958E-17	7.165314E-19
5.717354E+03	4.992264E-17	7.144224E-19
5.727297E+03	4.996368E-17	7.127286E-19
5.737240E+03	5.002147E-17	7.112861E-19
5.747184E+03	5.010180E-17	7.101741E-19
5.757127E+03	5.020467E-17	7.093894E-19
5.767070E+03	5.033005E-17	7.089282E-19
5.777013E+03	5.047784E-17	7.087859E-19
5.786956E+03	5.064793E-17	7.089577E-19
5.796900E+03	5.084015E-17	7.094384E-19
5.806843E+03	5.105434E-17	7.102225E-19
5.816786E+03	5.129033E-17	7.113050E-19
5.826729E+03	5.154795E-17	7.126806E-19
5.836673E+03	5.182113E-17	7.142630E-19
5.846616E+03	5.212154E-17	7.162108E-19
5.856559E+03	5.243725E-17	7.183570E-19
5.866502E+03	5.278010E-17	7.208618E-19
5.876445E+03	5.313812E-17	7.235590E-19
5.886389E+03	5.352342E-17	7.266117E-19
5.896332E+03	5.392399E-17	7.298540E-19
5.906275E+03	5.434602E-17	7.333684E-19
5.916218E+03	5.479601E-17	7.372399E-19
5.926162E+03	5.526182E-17	7.413030E-19
5.936105E+03	5.574998E-17	7.456438E-19
5.946048E+03	5.626090E-17	7.502658E-19
5.955991E+03	5.679499E-17	7.551726E-19
5.965935E+03	5.735272E-17	7.603685E-19
5.975878E+03	5.793456E-17	7.658581E-19
5.985821E+03	5.854099E-17	7.716457E-19
5.995764E+03	5.917242E-17	7.777353E-19
6.005707E+03	5.982928E-17	7.841307E-19
6.015651E+03	6.051188E-17	7.908346E-19
6.025594E+03	6.121351E-17	7.977580E-19
6.035537E+03	6.194813E-17	8.050818E-19
6.045480E+03	6.270884E-17	8.127146E-19
6.055424E+03	6.348820E-17	8.205594E-19
6.065367E+03	6.430020E-17	8.287961E-19
6.075310E+03	6.512963E-17	8.372280E-19
6.085253E+03	6.599037E-17	8.460334E-19
6.095196E+03	6.686630E-17	8.550052E-19
6.105140E+03	6.776337E-17	8.642201E-19
6.115083E+03	6.868758E-17	8.737551E-19
6.125026E+03	6.962123E-17	8.833856E-19
6.134969E+03	7.056953E-17	8.931794E-19
6.144913E+03	7.153775E-17	9.032047E-19
6.154856E+03	7.250642E-17	9.132179E-19
6.164799E+03	7.347994E-17	9.232772E-19
6.174742E+03	7.445432E-17	9.333359E-19
6.184685E+03	7.542521E-17	9.433430E-19
6.194629E+03	7.638794E-17	9.532442E-19
6.204572E+03	7.733753E-17	9.629823E-19
6.214515E+03	7.826877E-17	9.724974E-19
6.224458E+03	7.917624E-17	9.817277E-19
6.234402E+03	8.005435E-17	9.906105E-19
6.244345E+03	8.088820E-17	9.989677E-19
6.254288E+03	8.169046E-17	1.006963E-18
6.264231E+03	8.244635E-17	1.014422E-18
6.274174E+03	8.315027E-17	1.021282E-18
6.284118E+03	8.378740E-17	1.027369E-18
6.294061E+03	8.437165E-17	1.032863E-18
6.304004E+03	8.488869E-17	1.037594E-18
6.313947E+03	8.532451E-17	1.041401E-18
6.323891E+03	8.569456E-17	1.044479E-18
6.333834E+03	8.597605E-17	1.046557E-18
6.343777E+03	8.618577E-17	1.047848E-18
6.353720E+03	8.630191E-17	1.048094E-18
6.363663E+03	8.634264E-17	1.047520E-18
6.373607E+03	8.628753E-17	1.045886E-18
6.383550E+03	8.614641E-17	1.043315E-18
6.393493E+03	8.592974E-17	1.039938E-18
6.403436E+03	8.561945E-17	1.035541E-18
6.413380E+03	8.522763E-17	1.030274E-18
6.423323E+03	8.475705E-17	1.024171E-18
6.433266E+03	8.422086E-17	1.017393E-18
6.443209E+03	8.360354E-17	1.009753E-18
6.453152E+03	8.291880E-17	1.001414E-18
6.463096E+03	8.217034E-17	9.924127E-19
6.473039E+03	8.136106E-17	9.827789E-19
6.482982E+03	8.049252E-17	9.725242E-19
6.492925E+03	7.956467E-17	9.616405E-19
6.502869E+03	7.858163E-17	9.501706E-19
6.512812E+03	7.755417E-17	9.382369E-19
6.522755E+03	7.649134E-17	9.259412E-19
6.532698E+03	7.540030E-17	9.133629E-19
6.542642E+03	7.428684E-17	9.005650E-19
6.552585E+03	7.315594E-17	8.876006E-19
6.562528E+03	7.201205E-17	8.745169E-19
6.572471E+03	7.085120E-17	8.612593E-19
6.582414E+03	6.969383E-17	8.480700E-19
6.592358E+03	6.853560E-17	8.348903E-19
6.602301E+03	6.738032E-17	8.217614E-19
6.612244E+03	6.622403E-17	8.086298E-19
6.622187E+03	6.508566E-17	7.957217E-19
6.632131E+03	6.396078E-17	7.829792E-19
6.642074E+03	6.284530E-17	7.703481E-19
6.652017E+03	6.175671E-17	7.580394E-19
6.661960E+03	6.068336E-17	7.459072E-19
6.671903E+03	5.964177E-17	7.341517E-19
6.681847E+03	5.862030E-17	7.226277E-19
6.691790E+03	5.763451E-17	7.115252E-19
6.701733E+03	5.667280E-17	7.006994E-19
6.711676E+03	5.574987E-17	6.903309E-19
6.721620E+03	5.485410E-17	6.802750E-19
6.731563E+03	5.399943E-17	6.707042E-19
6.741506E+03	5.317430E-17	6.614744E-19
6.751449E+03	5.238586E-17	6.526745E-19
6.761392E+03	5.164077E-17	6.443877E-19
6.771336E+03	5.092760E-17	6.364718E-19
6.781279E+03	5.025281E-17	6.290080E-19
6.791222E+03	4.962247E-17	6.220730E-19
6.801165E+03	4.902528E-17	6.155260E-19
6.811109E+03	4.846719E-17	6.094425E-19
6.821052E+03	4.794824E-17	6.038241E-19
6.830995E+03	4.746840E-17	5.986714E-19
6.840938E+03	4.702758E-17	5.939845E-19
6.850881E+03	4.662563E-17	5.897626E-19
6.860825E+03	4.626767E-17	5.860720E-19
6.870768E+03	4.594269E-17	5.827742E-19
6.880711E+03	4.565575E-17	5.799348E-19
6.890654E+03	4.540646E-17	5.775499E-19
6.900598E+03	4.519440E-17	5.756153E-19
6.910541E+03	4.501909E-17	5.741260E-19
6.920484E+03	4.487480E-17	5.730101E-19
6.930427E+03	4.477139E-17	5.723942E-19
6.940370E+03	4.470300E-17	5.722048E-19
6.950314E+03	4.466896E-17	5.724341E-19
6.960257E+03	4.466855E-17	5.730736E-19
6.970200E+03	4.470097E-17	5.741140E-19
6.980143E+03	4.476537E-17	5.755449E-19
6.990087E+03	4.485562E-17	5.772879E-19
7.000030E+03	4.498115E-17	5.794650E-19
7.009973E+03	4.513569E-17	5.819958E-19
7.019916E+03	4.531283E-17	5.847976E-19
7.029860E+03	4.552184E-17	5.879907E-19
7.039803E+03	4.575615E-17	5.914900E-19
7.049746E+03	4.600895E-17	5.952076E-19
7.059689E+03	4.628941E-17	5.992619E-19
7.069632E+03	4.659056E-17	6.035625E-19
7.079576E+03	4.690517E-17	6.080156E-19
7.089519E+03	4.724226E-17	6.127375E-19
7.099462E+03	4.758886E-17	6.175598E-19
7.109405E+03	4.795394E-17	6.225983E-19
7.119349E+03	4.832411E-17	6.276787E-19
7.129292E+03	4.870261E-17	6.328423E-19
7.139235E+03	4.909277E-17	6.381320E-19
7.149178E+03	4.948062E-17	6.433654E-19
7.159121E+03	4.986927E-17	6.485825E-19
7.169065E+03	5.026196E-17	6.538249E-19
7.179008E+03	5.064428E-17	6.589043E-19
7.188951E+03	5.101935E-17	6.638610E-19
7.198894E+03	5.138445E-17	6.686592E-19
7.208838E+03	5.174303E-17	6.733432E-19
7.218781E+03	5.208034E-17	6.777210E-19
7.228724E+03	5.239988E-17	6.818380E-19
7.238667E+03	5.269929E-17	6.856633E-19
7.248610E+03	5.297630E-17	6.891675E-19
7.258554E+03	5.322888E-17	6.923245E-19
7.268497E+03	5.345517E-17	6.951106E-19
7.278440E+03	5.365359E-17	6.975056E-19
7.288383E+03	5.382282E-17	6.994931E-19
7.298327E+03	5.396183E-17	7.010608E-19
7.308270E+03	5.406989E-17	7.022001E-19
7.318213E+03	5.414660E-17	7.029071E-19
7.328156E+03	5.419190E-17	7.031824E-19
7.338099E+03	5.420606E-17	7.030308E-19
7.348043E+03	5.418324E-17	7.023785E-19
7.357986E+03	5.413721E-17	7.014057E-19
7.367929E+03	5.406277E-17	7.000467E-19
7.377872E+03	5.396143E-17	6.983231E-19
7.387816E+03	5.382858E-17	6.961772E-19
7.397759E+03	5.367902E-17	6.938027E-19
7.407702E+03	5.350857E-17	6.911474E-19
7.417645E+03	5.331331E-17	6.881628E-19
7.427588E+03	5.310844E-17	6.850474E-19
7.437532E+03	5.288398E-17	6.816745E-19
7.447475E+03	5.265524E-17	6.782434E-19
7.457418E+03	5.241240E-17	6.746299E-19
7.467361E+03	5.217074E-17	6.710324E-19
7.477305E+03	5.192053E-17	6.673279E-19
7.487248E+03	5.167066E-17	6.636325E-19
7.497191E+03	5.142986E-17	6.600602E-19
7.507134E+03	5.118830E-17	6.564866E-19
7.517077E+03	5.095450E-17	6.530228E-19
7.527021E+03	5.073672E-17	6.497764E-19
7.536964E+03	5.052485E-17	6.466196E-19
7.546907E+03	5.032684E-17	6.436558E-19
7.556850E+03	5.014438E-17	6.409084E-19
7.566794E+03	4.997897E-17	6.383983E-19
7.576737E+03	4.983191E-17	6.361435E-19
7.586680E+03	4.970430E-17	6.341602E-19
7.596623E+03	4.959706E-17	6.324617E-19
7.606567E+03	4.951088E-17	6.310586E-19
7.616510E+03	4.944627E-17	6.299595E-19
7.626453E+03	4.940353E-17	6.291703E-19
7.636396E+03	4.938278E-17	6.286946E-19
7.646339E+03	4.938394E-17	6.285338E-19
7.656283E+03	4.940674E-17	6.286867E-19
7.666226E+03	4.945071E-17	6.291501E-19
7.676169E+03	4.950925E-17	6.298426E-19
7.686112E+03	4.959346E-17	6.309084E-19
7.696056E+03	4.969638E-17	6.322620E-19
7.705999E+03	4.981084E-17	6.338153E-19
7.715942E+03	4.994750E-17	6.357076E-19
