#wls	flux	fluxerr
1.600000E+03	6.723394E-17	1.084125E-17
1.640000E+03	6.100755E-17	9.775744E-18
1.680000E+03	5.518042E-17	8.785120E-18
1.720000E+03	4.977231E-17	7.871653E-18
1.760000E+03	4.479320E-17	7.035937E-18
1.800000E+03	4.024617E-17	6.277405E-18
1.840000E+03	3.171267E-17	4.910721E-18
1.880000E+03	3.248159E-17	4.992468E-18
1.920000E+03	2.926812E-17	4.464206E-18
1.960000E+03	2.651030E-17	4.011790E-18
2.000000E+03	2.421831E-17	3.635310E-18
2.040000E+03	2.240385E-17	3.334965E-18
2.080000E+03	2.107680E-17	3.110554E-18
2.120000E+03	2.023713E-17	2.960309E-18
2.160000E+03	1.988955E-17	2.883066E-18
2.200000E+03	2.005120E-17	2.879354E-18
2.240000E+03	2.076109E-17	2.952634E-18
2.280000E+03	2.205976E-17	3.106279E-18
2.320000E+03	2.395515E-17	3.338802E-18
2.360000E+03	2.637901E-17	3.638063E-18
2.400000E+03	2.920288E-17	3.984013E-18
2.440000E+03	3.223258E-17	4.348429E-18
2.480000E+03	3.525148E-17	4.701231E-18
2.520000E+03	3.804756E-17	5.014268E-18
2.560000E+03	4.049668E-17	5.272194E-18
2.600000E+03	4.262979E-17	5.480449E-18
2.640000E+03	4.468048E-17	5.670039E-18
2.680000E+03	4.707457E-17	5.894525E-18
2.720000E+03	5.039051E-17	6.223415E-18
2.760000E+03	5.535017E-17	6.739595E-18
2.800000E+03	6.283470E-17	7.539811E-18
2.840000E+03	7.392007E-17	8.737242E-18
2.880000E+03	8.990102E-17	1.046228E-17
2.920000E+03	1.122739E-16	1.285824E-17
2.960000E+03	1.425646E-16	1.605983E-17
3.000000E+03	1.820638E-16	2.016307E-17
3.010000E+03	1.934769E-16	2.133425E-17
3.020000E+03	2.055192E-16	2.256325E-17
3.030000E+03	2.182010E-16	2.385022E-17
3.040000E+03	2.315164E-16	2.519353E-17
3.050000E+03	2.164577E-16	2.344969E-17
3.060000E+03	2.600569E-16	2.804621E-17
3.070000E+03	2.752740E-16	2.955275E-17
3.080000E+03	2.568118E-16	2.744476E-17
3.090000E+03	3.075632E-16	3.271712E-17
3.100000E+03	3.246010E-16	3.436936E-17
3.110000E+03	3.422218E-16	3.606572E-17
3.120000E+03	3.604044E-16	3.780303E-17
3.130000E+03	3.791113E-16	3.957648E-17
3.140000E+03	3.983218E-16	4.138306E-17
3.150000E+03	4.179869E-16	4.321685E-17
3.160000E+03	4.380619E-16	4.507250E-17
3.170000E+03	4.585090E-16	4.694544E-17
3.180000E+03	4.792586E-16	4.882795E-17
3.190000E+03	5.002477E-16	5.071311E-17
3.200000E+03	5.214083E-16	5.259359E-17
3.210000E+03	5.426690E-16	5.446192E-17
3.220000E+03	5.639573E-16	5.631062E-17
3.230000E+03	5.852019E-16	5.813247E-17
3.240000E+03	6.063207E-16	5.991938E-17
3.250000E+03	6.272689E-16	6.166705E-17
3.260000E+03	6.479654E-16	6.336776E-17
3.270000E+03	6.684207E-16	6.502285E-17
3.280000E+03	6.885637E-16	6.662575E-17
3.290000E+03	7.083852E-16	6.817600E-17
3.300000E+03	7.279232E-16	6.967768E-17
3.310000E+03	7.471614E-16	7.112962E-17
3.320000E+03	7.661426E-16	7.253632E-17
3.330000E+03	7.848641E-16	7.389786E-17
3.340000E+03	8.033940E-16	7.522099E-17
3.350000E+03	8.217299E-16	7.650574E-17
3.360000E+03	8.399168E-16	7.775655E-17
3.370000E+03	8.579576E-16	7.897388E-17
3.380000E+03	8.758796E-16	8.016043E-17
3.390000E+03	8.936639E-16	8.131465E-17
3.400000E+03	9.112948E-16	8.243531E-17
3.410000E+03	9.287237E-16	8.351825E-17
3.420000E+03	9.459451E-16	8.456328E-17
3.430000E+03	9.628452E-16	8.556062E-17
3.440000E+03	9.794162E-16	8.651006E-17
3.450000E+03	9.955309E-16	8.740097E-17
3.460000E+03	1.011164E-15	8.823187E-17
3.470000E+03	1.026225E-15	8.899564E-17
3.480000E+03	1.040722E-15	8.969395E-17
3.490000E+03	9.428184E-16	8.074924E-17
3.500000E+03	1.067981E-15	9.089411E-17
3.510000E+03	1.080845E-15	9.140652E-17
3.520000E+03	9.792310E-16	8.228484E-17
3.530000E+03	1.105601E-15	9.230680E-17
3.540000E+03	1.117755E-15	9.271751E-17
3.550000E+03	1.130044E-15	9.312570E-17
3.560000E+03	1.142651E-15	9.354618E-17
3.570000E+03	1.155832E-15	9.399928E-17
3.580000E+03	1.169906E-15	9.450997E-17
3.590000E+03	1.185209E-15	9.510362E-17
3.600000E+03	1.202144E-15	9.581051E-17
3.610000E+03	1.221170E-15	9.666441E-17
3.620000E+03	1.242767E-15	9.769957E-17
3.630000E+03	1.267549E-15	9.895978E-17
3.640000E+03	1.296120E-15	1.004869E-16
3.650000E+03	1.329076E-15	1.023206E-16
3.660000E+03	1.367053E-15	1.045024E-16
3.670000E+03	1.410525E-15	1.070602E-16
3.680000E+03	1.459792E-15	1.100078E-16
3.690000E+03	1.514943E-15	1.133426E-16
3.700000E+03	1.575687E-15	1.170335E-16
3.710000E+03	1.641430E-15	1.210275E-16
3.720000E+03	1.711155E-15	1.252426E-16
3.730000E+03	1.783534E-15	1.295758E-16
3.740000E+03	1.857030E-15	1.339122E-16
3.750000E+03	1.929932E-15	1.381278E-16
3.760000E+03	2.000775E-15	1.421197E-16
3.770000E+03	2.068347E-15	1.458060E-16
3.780000E+03	2.131969E-15	1.491447E-16
3.790000E+03	2.191560E-15	1.521370E-16
3.800000E+03	2.247745E-15	1.548326E-16
3.810000E+03	2.301821E-15	1.573258E-16
3.820000E+03	2.355545E-15	1.597397E-16
3.830000E+03	2.411165E-15	1.622262E-16
3.840000E+03	2.471105E-15	1.649445E-16
3.850000E+03	2.537873E-15	1.680541E-16
3.860000E+03	2.613890E-15	1.717036E-16
3.870000E+03	2.701201E-15	1.760121E-16
3.880000E+03	2.801460E-15	1.810691E-16
3.890000E+03	2.915743E-15	1.869238E-16
3.900000E+03	3.044278E-15	1.935692E-16
3.910000E+03	3.186431E-15	2.009438E-16
3.920000E+03	3.340375E-15	2.089131E-16
3.930000E+03	3.503427E-15	2.172933E-16
3.940000E+03	3.671733E-15	2.258343E-16
3.950000E+03	3.840786E-15	2.342544E-16
3.960000E+03	4.005752E-15	2.422614E-16
3.970000E+03	4.162050E-15	2.495883E-16
3.980000E+03	4.305698E-15	2.560130E-16
3.990000E+03	4.434012E-15	2.613979E-16
4.000000E+03	4.545570E-15	2.656848E-16
4.010000E+03	4.640257E-15	2.688933E-16
4.020000E+03	4.718900E-15	2.710976E-16
4.030000E+03	4.782598E-15	2.723854E-16
4.040000E+03	4.832363E-15	2.728372E-16
4.050000E+03	4.868705E-15	2.725031E-16
4.060000E+03	4.891443E-15	2.713936E-16
4.070000E+03	4.899927E-15	2.694936E-16
4.080000E+03	4.893122E-15	2.667681E-16
4.090000E+03	4.869942E-15	2.631810E-16
4.100000E+03	4.829682E-15	2.587182E-16
4.110000E+03	4.772300E-15	2.534021E-16
4.120000E+03	4.698441E-15	2.472905E-16
4.130000E+03	4.609639E-15	2.404864E-16
4.140000E+03	4.508213E-15	2.331300E-16
4.150000E+03	4.397126E-15	2.253899E-16
4.160000E+03	4.279851E-15	2.174549E-16
4.170000E+03	4.160006E-15	2.095145E-16
4.180000E+03	4.041431E-15	2.017629E-16
4.190000E+03	3.927864E-15	1.943824E-16
4.200000E+03	3.822900E-15	1.875416E-16
4.210000E+03	3.729753E-15	1.813849E-16
4.220000E+03	3.651448E-15	1.760420E-16
4.230000E+03	3.590473E-15	1.716126E-16
4.240000E+03	3.549013E-15	1.681780E-16
4.250000E+03	3.528650E-15	1.657887E-16
4.260000E+03	3.530420E-15	1.644675E-16
4.270000E+03	3.554710E-15	1.642064E-16
4.280000E+03	3.600995E-15	1.649561E-16
4.290000E+03	3.667957E-15	1.666326E-16
4.300000E+03	3.753009E-15	1.690977E-16
4.310000E+03	3.852447E-15	1.721680E-16
4.320000E+03	3.961253E-15	1.756079E-16
4.330000E+03	4.073306E-15	1.791409E-16
4.340000E+03	4.181443E-15	1.824541E-16
4.350000E+03	4.277931E-15	1.852198E-16
4.360000E+03	4.354859E-15	1.871128E-16
4.370000E+03	4.404794E-15	1.878377E-16
4.380000E+03	4.422023E-15	1.871807E-16
4.390000E+03	4.403625E-15	1.850511E-16
4.400000E+03	4.350661E-15	1.815260E-16
4.410000E+03	4.268381E-15	1.768533E-16
4.420000E+03	4.164784E-15	1.713858E-16
4.430000E+03	4.049479E-15	1.655316E-16
4.440000E+03	3.932500E-15	1.597048E-16
4.450000E+03	3.823518E-15	1.542941E-16
4.460000E+03	3.731259E-15	1.496401E-16
4.470000E+03	3.663253E-15	1.460275E-16
4.480000E+03	3.625580E-15	1.436770E-16
4.490000E+03	3.622832E-15	1.427466E-16
4.500000E+03	3.658186E-15	1.433359E-16
4.510000E+03	3.733339E-15	1.454857E-16
4.520000E+03	3.848545E-15	1.491809E-16
4.530000E+03	4.002397E-15	1.543437E-16
4.540000E+03	4.191774E-15	1.608328E-16
4.550000E+03	4.411744E-15	1.684415E-16
4.560000E+03	4.655668E-15	1.769027E-16
4.570000E+03	4.915231E-15	1.858914E-16
4.580000E+03	5.180876E-15	1.950421E-16
4.590000E+03	5.295167E-15	1.984537E-16
4.600000E+03	5.690190E-15	2.123257E-16
4.610000E+03	5.914681E-15	2.197572E-16
4.620000E+03	6.108139E-15	2.259922E-16
4.630000E+03	6.104854E-15	2.249402E-16
4.640000E+03	6.379976E-15	2.341262E-16
4.650000E+03	6.452412E-15	2.358422E-16
4.660000E+03	6.481784E-15	2.359876E-16
4.670000E+03	6.469924E-15	2.346459E-16
4.680000E+03	6.420463E-15	2.319641E-16
4.690000E+03	6.338520E-15	2.281403E-16
4.700000E+03	6.230876E-15	2.234290E-16
4.710000E+03	6.105517E-15	2.181238E-16
4.720000E+03	5.971366E-15	2.125474E-16
4.730000E+03	5.837696E-15	2.070305E-16
4.740000E+03	5.713511E-15	2.018892E-16
4.750000E+03	5.607079E-15	1.974096E-16
4.760000E+03	5.525161E-15	1.938207E-16
4.770000E+03	5.472982E-15	1.912945E-16
4.780000E+03	5.453822E-15	1.899329E-16
4.790000E+03	5.469312E-15	1.897790E-16
4.800000E+03	5.519288E-15	1.908130E-16
4.810000E+03	5.602236E-15	1.929688E-16
4.820000E+03	5.715160E-15	1.961301E-16
4.830000E+03	5.854140E-15	2.001504E-16
4.840000E+03	6.014247E-15	2.048509E-16
4.850000E+03	6.189730E-15	2.100271E-16
4.860000E+03	6.374557E-15	2.154681E-16
4.870000E+03	6.562332E-15	2.209536E-16
4.880000E+03	6.746804E-15	2.262716E-16
4.890000E+03	6.922156E-15	2.312278E-16
4.900000E+03	7.083301E-15	2.356555E-16
4.910000E+03	7.226310E-15	2.394289E-16
4.920000E+03	7.348506E-15	2.424662E-16
4.930000E+03	7.448594E-15	2.447323E-16
4.940000E+03	7.526308E-15	2.462271E-16
4.950000E+03	7.581724E-15	2.469616E-16
4.960000E+03	7.614966E-15	2.469490E-16
4.970000E+03	7.625042E-15	2.461664E-16
4.980000E+03	7.610116E-15	2.445647E-16
4.990000E+03	7.567495E-15	2.420689E-16
5.000000E+03	7.494248E-15	2.385983E-16
5.010000E+03	7.387949E-15	2.340902E-16
5.020000E+03	7.248251E-15	2.285494E-16
5.030000E+03	7.077160E-15	2.220551E-16
5.040000E+03	6.879783E-15	2.147826E-16
5.050000E+03	6.600201E-15	2.050085E-16
5.060000E+03	6.440275E-15	1.990112E-16
5.070000E+03	6.162410E-15	1.894308E-16
5.080000E+03	6.010417E-15	1.837811E-16
5.090000E+03	5.823349E-15	1.771069E-16
5.100000E+03	5.664189E-15	1.713316E-16
5.110000E+03	5.536425E-15	1.665476E-16
5.120000E+03	5.441229E-15	1.627752E-16
5.130000E+03	5.377193E-15	1.599573E-16
5.140000E+03	5.341028E-15	1.579817E-16
5.150000E+03	5.328109E-15	1.566990E-16
5.160000E+03	5.333038E-15	1.559406E-16
5.170000E+03	5.350391E-15	1.555405E-16
5.180000E+03	5.375368E-15	1.553546E-16
5.190000E+03	5.404355E-15	1.552762E-16
5.200000E+03	5.435118E-15	1.552404E-16
5.210000E+03	5.466879E-15	1.552254E-16
5.220000E+03	5.500098E-15	1.552449E-16
5.230000E+03	5.536118E-15	1.553371E-16
5.240000E+03	5.576497E-15	1.555454E-16
5.250000E+03	5.622697E-15	1.559098E-16
5.260000E+03	5.675514E-15	1.564508E-16
5.270000E+03	5.734584E-15	1.571570E-16
5.280000E+03	5.798584E-15	1.579912E-16
5.290000E+03	5.864877E-15	1.588816E-16
5.300000E+03	5.930024E-15	1.597366E-16
5.310000E+03	5.990030E-15	1.604520E-16
5.320000E+03	6.040927E-15	1.609267E-16
5.330000E+03	6.079290E-15	1.610762E-16
5.340000E+03	6.102630E-15	1.608427E-16
5.350000E+03	6.109588E-15	1.601987E-16
5.360000E+03	6.099973E-15	1.591481E-16
5.370000E+03	6.074384E-15	1.577145E-16
5.380000E+03	6.034123E-15	1.559391E-16
5.390000E+03	5.980975E-15	1.538744E-16
5.400000E+03	5.916916E-15	1.515764E-16
5.410000E+03	5.844290E-15	1.491091E-16
5.420000E+03	5.765816E-15	1.465447E-16
5.430000E+03	5.684626E-15	1.439643E-16
5.440000E+03	5.604277E-15	1.414585E-16
5.450000E+03	5.528361E-15	1.391171E-16
5.460000E+03	5.460313E-15	1.370251E-16
5.470000E+03	5.402925E-15	1.352486E-16
5.480000E+03	5.357841E-15	1.338236E-16
5.490000E+03	5.325272E-15	1.327504E-16
5.500000E+03	5.303610E-15	1.319844E-16
5.510000E+03	5.289716E-15	1.314437E-16
5.520000E+03	5.279685E-15	1.310283E-16
5.530000E+03	5.269840E-15	1.306444E-16
5.540000E+03	5.257470E-15	1.302225E-16
5.550000E+03	5.241347E-15	1.297300E-16
5.560000E+03	5.221806E-15	1.291731E-16
5.570000E+03	5.200284E-15	1.285851E-16
5.580000E+03	5.179142E-15	1.280222E-16
5.590000E+03	5.160974E-15	1.275462E-16
5.600000E+03	5.147984E-15	1.272093E-16
5.610000E+03	5.141627E-15	1.270454E-16
5.620000E+03	5.142064E-15	1.270563E-16
5.630000E+03	5.148113E-15	1.272109E-16
5.640000E+03	5.157461E-15	1.274503E-16
5.650000E+03	5.166695E-15	1.276882E-16
5.660000E+03	5.172079E-15	1.278305E-16
5.670000E+03	5.169838E-15	1.277820E-16
5.680000E+03	5.156867E-15	1.274644E-16
5.690000E+03	5.131146E-15	1.268260E-16
5.700000E+03	5.091948E-15	1.258475E-16
5.710000E+03	5.040232E-15	1.245512E-16
5.720000E+03	4.978104E-15	1.229882E-16
5.730000E+03	4.908806E-15	1.212377E-16
5.740000E+03	4.836204E-15	1.193946E-16
5.750000E+03	4.764312E-15	1.175575E-16
5.760000E+03	4.697053E-15	1.158223E-16
5.770000E+03	4.637969E-15	1.142758E-16
5.780000E+03	4.590060E-15	1.129910E-16
5.790000E+03	4.555837E-15	1.120284E-16
5.800000E+03	4.537271E-15	1.114349E-16
5.810000E+03	4.535738E-15	1.112422E-16
5.820000E+03	4.551828E-15	1.114622E-16
5.830000E+03	4.585418E-15	1.120891E-16
5.840000E+03	4.635291E-15	1.130899E-16
5.850000E+03	4.699224E-15	1.144068E-16
5.860000E+03	4.773748E-15	1.159521E-16
5.870000E+03	4.854601E-15	1.176191E-16
5.880000E+03	4.938286E-15	1.193206E-16
5.890000E+03	5.017567E-15	1.208801E-16
5.900000E+03	5.088503E-15	1.222024E-16
5.910000E+03	5.143400E-15	1.231039E-16
5.920000E+03	5.186721E-15	1.236939E-16
5.930000E+03	5.214408E-15	1.238782E-16
5.940000E+03	5.226630E-15	1.236647E-16
5.950000E+03	5.224711E-15	1.230888E-16
5.960000E+03	5.210702E-15	1.222031E-16
5.970000E+03	5.186845E-15	1.210641E-16
5.980000E+03	5.155459E-15	1.197296E-16
5.990000E+03	5.118661E-15	1.182519E-16
6.000000E+03	5.078516E-15	1.166814E-16
6.010000E+03	5.036679E-15	1.150582E-16
6.020000E+03	4.994817E-15	1.134219E-16
6.030000E+03	4.954436E-15	1.118078E-16
6.040000E+03	4.916839E-15	1.102458E-16
6.050000E+03	4.883461E-15	1.087677E-16
6.060000E+03	4.855281E-15	1.073948E-16
6.070000E+03	4.833144E-15	1.061444E-16
6.080000E+03	4.817468E-15	1.050241E-16
6.090000E+03	4.808228E-15	1.040316E-16
6.100000E+03	4.804961E-15	1.031551E-16
6.110000E+03	4.806898E-15	1.023767E-16
6.120000E+03	4.812975E-15	1.016725E-16
6.130000E+03	4.822255E-15	1.010225E-16
6.140000E+03	4.834026E-15	1.004117E-16
6.150000E+03	4.847851E-15	9.983166E-17
6.160000E+03	4.863596E-15	9.928047E-17
6.170000E+03	4.881304E-15	9.876005E-17
6.180000E+03	4.924844E-15	9.875021E-17
6.190000E+03	4.945941E-15	9.828011E-17
6.200000E+03	4.941701E-15	9.730760E-17
6.210000E+03	4.959586E-15	9.677519E-17
6.220000E+03	4.972427E-15	9.614876E-17
6.230000E+03	4.977546E-15	9.538285E-17
6.240000E+03	4.972684E-15	9.444192E-17
6.250000E+03	4.956618E-15	9.331146E-17
6.260000E+03	4.929245E-15	9.199850E-17
6.270000E+03	4.891753E-15	9.053390E-17
6.280000E+03	4.845785E-15	8.895573E-17
6.290000E+03	4.792978E-15	8.730069E-17
6.300000E+03	4.733974E-15	8.558617E-17
6.310000E+03	4.667850E-15	8.380074E-17
6.320000E+03	4.592025E-15	8.190341E-17
6.330000E+03	4.502285E-15	7.982465E-17
6.340000E+03	4.394137E-15	7.749081E-17
6.350000E+03	4.263835E-15	7.484150E-17
6.360000E+03	4.109672E-15	7.185119E-17
6.370000E+03	3.933452E-15	6.855361E-17
6.380000E+03	3.740619E-15	6.504284E-17
6.390000E+03	3.539735E-15	6.146377E-17
6.400000E+03	3.341602E-15	5.799759E-17
6.410000E+03	3.157388E-15	5.483062E-17
6.420000E+03	2.997398E-15	5.213498E-17
6.430000E+03	2.870011E-15	5.005182E-17
6.440000E+03	2.781381E-15	4.868621E-17
6.450000E+03	2.735793E-15	4.811458E-17
6.460000E+03	2.735952E-15	4.839120E-17
6.470000E+03	2.783742E-15	4.956140E-17
6.480000E+03	2.880758E-15	5.167069E-17
6.490000E+03	3.028604E-15	5.476993E-17
6.500000E+03	3.229570E-15	5.892749E-17
6.510000E+03	3.486077E-15	6.421953E-17
6.520000E+03	3.799743E-15	7.071256E-17
6.530000E+03	4.168083E-15	7.840045E-17
6.540000E+03	4.580928E-15	8.713174E-17
6.550000E+03	5.017610E-15	9.654623E-17
6.560000E+03	5.447597E-15	1.060740E-16
6.570000E+03	5.835671E-15	1.150234E-16
6.580000E+03	6.149105E-15	1.227165E-16
6.590000E+03	6.364525E-15	1.286281E-16
6.600000E+03	6.471866E-15	1.324774E-16
6.610000E+03	6.474541E-15	1.342483E-16
6.620000E+03	6.386884E-15	1.341545E-16
6.630000E+03	6.229452E-15	1.325550E-16
6.640000E+03	6.024694E-15	1.298705E-16
6.650000E+03	5.793494E-15	1.265121E-16
6.660000E+03	5.553469E-15	1.228421E-16
6.670000E+03	5.317911E-15	1.191461E-16
6.680000E+03	5.096165E-15	1.156361E-16
6.690000E+03	4.894176E-15	1.124572E-16
6.700000E+03	4.714916E-15	1.096930E-16
6.710000E+03	4.559572E-15	1.073888E-16
6.720000E+03	4.427633E-15	1.055512E-16
6.730000E+03	4.317575E-15	1.041619E-16
6.740000E+03	4.227406E-15	1.031900E-16
6.750000E+03	4.154488E-15	1.025861E-16
6.760000E+03	4.096136E-15	1.022967E-16
6.770000E+03	4.049712E-15	1.022665E-16
6.780000E+03	4.012562E-15	1.024370E-16
6.790000E+03	3.982304E-15	1.027534E-16
6.800000E+03	3.956845E-15	1.031661E-16
6.810000E+03	3.934429E-15	1.036319E-16
6.820000E+03	3.913670E-15	1.041156E-16
6.830000E+03	3.893485E-15	1.045888E-16
6.840000E+03	3.873257E-15	1.050346E-16
6.850000E+03	3.852544E-15	1.054404E-16
6.860000E+03	3.831279E-15	1.058033E-16
6.870000E+03	3.809492E-15	1.061235E-16
6.880000E+03	3.787398E-15	1.064063E-16
6.890000E+03	3.765546E-15	1.066666E-16
6.900000E+03	3.744350E-15	1.069162E-16
6.910000E+03	3.724450E-15	1.071738E-16
6.920000E+03	3.706338E-15	1.074542E-16
6.930000E+03	3.690504E-15	1.077728E-16
6.940000E+03	3.677128E-15	1.081361E-16
6.950000E+03	3.666200E-15	1.085451E-16
6.960000E+03	3.657452E-15	1.089930E-16
6.970000E+03	3.650381E-15	1.094659E-16
6.980000E+03	3.644258E-15	1.099424E-16
6.990000E+03	3.638388E-15	1.104017E-16
7.000000E+03	3.632039E-15	1.108215E-16
7.010000E+03	3.624587E-15	1.111821E-16
7.020000E+03	3.615464E-15	1.114655E-16
7.030000E+03	3.604563E-15	1.116674E-16
7.040000E+03	3.591808E-15	1.117846E-16
7.050000E+03	3.577361E-15	1.118215E-16
7.060000E+03	3.561502E-15	1.117861E-16
7.070000E+03	3.544555E-15	1.116885E-16
7.080000E+03	3.526775E-15	1.115363E-16
7.090000E+03	3.508488E-15	1.113398E-16
7.100000E+03	3.489917E-15	1.111063E-16
7.110000E+03	3.471203E-15	1.108403E-16
7.120000E+03	3.452562E-15	1.105491E-16
7.130000E+03	3.434313E-15	1.102432E-16
7.140000E+03	3.416705E-15	1.099310E-16
7.150000E+03	3.400073E-15	1.096238E-16
7.160000E+03	3.384786E-15	1.093340E-16
7.170000E+03	3.370963E-15	1.090659E-16
7.180000E+03	3.358841E-15	1.088278E-16
7.190000E+03	3.348287E-15	1.086158E-16
7.200000E+03	3.339223E-15	1.084277E-16
7.210000E+03	3.331480E-15	1.082585E-16
7.220000E+03	3.324665E-15	1.080956E-16
7.230000E+03	3.318482E-15	1.079297E-16
7.240000E+03	3.312737E-15	1.077546E-16
7.250000E+03	3.306997E-15	1.075563E-16
7.260000E+03	3.300977E-15	1.073260E-16
7.270000E+03	3.294313E-15	1.070519E-16
7.280000E+03	3.286632E-15	1.067222E-16
7.290000E+03	3.277530E-15	1.063242E-16
7.300000E+03	3.266800E-15	1.058515E-16
7.310000E+03	3.254313E-15	1.053006E-16
7.320000E+03	3.240064E-15	1.046718E-16
7.330000E+03	3.224371E-15	1.039763E-16
7.340000E+03	3.207752E-15	1.032314E-16
7.350000E+03	3.190707E-15	1.024539E-16
7.360000E+03	3.174007E-15	1.016690E-16
7.370000E+03	3.158367E-15	1.009002E-16
7.380000E+03	3.144410E-15	1.001674E-16
7.390000E+03	3.132585E-15	9.948503E-17
7.400000E+03	3.123162E-15	9.886144E-17
7.410000E+03	3.116028E-15	9.829278E-17
7.420000E+03	3.110874E-15	9.776899E-17
7.430000E+03	3.107244E-15	9.727547E-17
7.440000E+03	3.104479E-15	9.679158E-17
7.450000E+03	3.101815E-15	9.629355E-17
7.460000E+03	3.098688E-15	9.576437E-17
7.470000E+03	3.094395E-15	9.518298E-17
7.480000E+03	3.088613E-15	9.454050E-17
7.490000E+03	3.080944E-15	9.382595E-17
7.500000E+03	3.071268E-15	9.303717E-17
7.510000E+03	3.059732E-15	9.218009E-17
7.520000E+03	3.046350E-15	9.125671E-17
7.530000E+03	3.031317E-15	9.027444E-17
7.540000E+03	3.014894E-15	8.924264E-17
7.550000E+03	2.997177E-15	8.816559E-17
7.560000E+03	2.978282E-15	8.704818E-17
7.570000E+03	2.958075E-15	8.588799E-17
7.580000E+03	2.936355E-15	8.468082E-17
7.590000E+03	2.912887E-15	8.342167E-17
7.600000E+03	2.887253E-15	8.210057E-17
7.610000E+03	2.859425E-15	8.071902E-17
7.620000E+03	2.829249E-15	7.927492E-17
7.630000E+03	2.797175E-15	7.778331E-17
7.640000E+03	2.763883E-15	7.626504E-17
7.650000E+03	2.730563E-15	7.475450E-17
7.660000E+03	2.698692E-15	7.329280E-17
7.670000E+03	2.669891E-15	7.192359E-17
7.680000E+03	2.645833E-15	7.069053E-17
7.690000E+03	2.628016E-15	6.963104E-17
7.700000E+03	2.617427E-15	6.876785E-17
7.710000E+03	2.614426E-15	6.810640E-17
7.720000E+03	2.618630E-15	6.763273E-17
7.730000E+03	2.628902E-15	6.731382E-17
7.740000E+03	2.643377E-15	6.709935E-17
7.750000E+03	2.659879E-15	6.693286E-17
7.760000E+03	2.675880E-15	6.675114E-17
