#wls	flux	fluxerr
1.600000E+03	6.466143E-18	1.161060E-18
1.640000E+03	5.954476E-18	1.067785E-18
1.680000E+03	5.502246E-18	9.853556E-19
1.720000E+03	5.109062E-18	9.136682E-19
1.760000E+03	4.767946E-18	8.514398E-19
1.800000E+03	4.478551E-18	7.985757E-19
1.840000E+03	4.235215E-18	7.540321E-19
1.880000E+03	4.038088E-18	7.178029E-19
1.920000E+03	3.882981E-18	6.891102E-19
1.960000E+03	3.770999E-18	6.681162E-19
2.000000E+03	3.700671E-18	6.545244E-19
2.040000E+03	3.672579E-18	6.484004E-19
2.080000E+03	3.688386E-18	6.499975E-19
2.120000E+03	3.751982E-18	6.599557E-19
2.160000E+03	3.865980E-18	6.786839E-19
2.200000E+03	4.038732E-18	7.075891E-19
2.240000E+03	4.277121E-18	7.478067E-19
2.280000E+03	4.594998E-18	8.016740E-19
2.320000E+03	5.007087E-18	8.716549E-19
2.360000E+03	5.532768E-18	9.609929E-19
2.400000E+03	6.201327E-18	1.074611E-18
2.440000E+03	7.045136E-18	1.217909E-18
2.480000E+03	8.110759E-18	1.398668E-18
2.520000E+03	9.456760E-18	1.626640E-18
2.560000E+03	1.115846E-17	1.914329E-18
2.600000E+03	1.330943E-17	2.277203E-18
2.640000E+03	1.603317E-17	2.735627E-18
2.680000E+03	1.947790E-17	3.313904E-18
2.720000E+03	2.382821E-17	4.042153E-18
2.760000E+03	2.930533E-17	4.956265E-18
2.800000E+03	3.616657E-17	6.097662E-18
2.840000E+03	4.469898E-17	7.512123E-18
2.880000E+03	5.520496E-17	9.247236E-18
2.920000E+03	6.797690E-17	1.134809E-17
2.960000E+03	8.324565E-17	1.384866E-17
3.000000E+03	1.011845E-16	1.677266E-17
3.010000E+03	1.060900E-16	1.756975E-17
3.020000E+03	1.111595E-16	1.839240E-17
3.030000E+03	1.163903E-16	1.924006E-17
3.040000E+03	1.217981E-16	2.011523E-17
3.050000E+03	1.273602E-16	2.101409E-17
3.060000E+03	1.330712E-16	2.193562E-17
3.070000E+03	1.389243E-16	2.287866E-17
3.080000E+03	1.449350E-16	2.384565E-17
3.090000E+03	1.510736E-16	2.483160E-17
3.100000E+03	1.573553E-16	2.583897E-17
3.110000E+03	1.637467E-16	2.686216E-17
3.120000E+03	1.702629E-16	2.790358E-17
3.130000E+03	1.768671E-16	2.895714E-17
3.140000E+03	1.835747E-16	3.002526E-17
3.150000E+03	1.903455E-16	3.110134E-17
3.160000E+03	1.971950E-16	3.218784E-17
3.170000E+03	2.041109E-16	3.328269E-17
3.180000E+03	2.110487E-16	3.437860E-17
3.190000E+03	2.180252E-16	3.547826E-17
3.200000E+03	2.250604E-16	3.658487E-17
3.210000E+03	2.320742E-16	3.768540E-17
3.220000E+03	2.390505E-16	3.877721E-17
3.230000E+03	2.460449E-16	3.986931E-17
3.240000E+03	2.530095E-16	4.095389E-17
3.250000E+03	2.599304E-16	4.202874E-17
3.260000E+03	2.667950E-16	4.309182E-17
3.270000E+03	2.736294E-16	4.414730E-17
3.280000E+03	2.803443E-16	4.518083E-17
3.290000E+03	2.870068E-16	4.620324E-17
3.300000E+03	2.935674E-16	4.720658E-17
3.310000E+03	3.000159E-16	4.818923E-17
3.320000E+03	3.063858E-16	4.915661E-17
3.330000E+03	3.126702E-16	5.010766E-17
3.340000E+03	3.188205E-16	5.103460E-17
3.350000E+03	3.248741E-16	5.194347E-17
3.360000E+03	3.307830E-16	5.282663E-17
3.370000E+03	3.366321E-16	5.369769E-17
3.380000E+03	3.423306E-16	5.454220E-17
3.390000E+03	3.479212E-16	5.536703E-17
3.400000E+03	3.534038E-16	5.617218E-17
3.410000E+03	3.587786E-16	5.695776E-17
3.420000E+03	3.640469E-16	5.772398E-17
3.430000E+03	3.692104E-16	5.847119E-17
3.440000E+03	3.743184E-16	5.920720E-17
3.450000E+03	3.793274E-16	5.992516E-17
3.460000E+03	3.842882E-16	6.063315E-17
3.470000E+03	3.891582E-16	6.132442E-17
3.480000E+03	3.939886E-16	6.200711E-17
3.490000E+03	3.987374E-16	6.267460E-17
3.500000E+03	4.034569E-16	6.333515E-17
3.510000E+03	4.081999E-16	6.399702E-17
3.520000E+03	4.128770E-16	6.464619E-17
3.530000E+03	4.175410E-16	6.529095E-17
3.540000E+03	4.222453E-16	6.593961E-17
3.550000E+03	4.269000E-16	6.657812E-17
3.560000E+03	4.316059E-16	6.722218E-17
3.570000E+03	4.363682E-16	6.787256E-17
3.580000E+03	4.411447E-16	6.852266E-17
3.590000E+03	4.459410E-16	6.917331E-17
3.600000E+03	4.508564E-16	6.983986E-17
3.610000E+03	4.558016E-16	7.050841E-17
3.620000E+03	4.608287E-16	7.118697E-17
3.630000E+03	4.659426E-16	7.187622E-17
3.640000E+03	4.711482E-16	7.257685E-17
3.650000E+03	4.764970E-16	7.329669E-17
3.660000E+03	4.819007E-16	7.402206E-17
3.670000E+03	4.874573E-16	7.476795E-17
3.680000E+03	4.931713E-16	7.553493E-17
3.690000E+03	4.990020E-16	7.631662E-17
3.700000E+03	5.050003E-16	7.712073E-17
3.710000E+03	5.111717E-16	7.794794E-17
3.720000E+03	5.174759E-16	7.879200E-17
3.730000E+03	5.240098E-16	7.966748E-17
3.740000E+03	5.306883E-16	8.056133E-17
3.750000E+03	5.376079E-16	8.148803E-17
3.760000E+03	5.447744E-16	8.244826E-17
3.770000E+03	5.521041E-16	8.342919E-17
3.780000E+03	5.597377E-16	8.445190E-17
3.790000E+03	5.675917E-16	8.550357E-17
3.800000E+03	5.757170E-16	8.659167E-17
3.810000E+03	5.841195E-16	8.771687E-17
3.820000E+03	5.928048E-16	8.887978E-17
3.830000E+03	6.017788E-16	9.008103E-17
3.840000E+03	6.110467E-16	9.132118E-17
3.850000E+03	6.206575E-16	9.260730E-17
3.860000E+03	6.306158E-16	9.393977E-17
3.870000E+03	6.409258E-16	9.531893E-17
3.880000E+03	6.515478E-16	9.673859E-17
3.890000E+03	6.625295E-16	9.820555E-17
3.900000E+03	6.739182E-16	9.972651E-17
3.910000E+03	6.856742E-16	1.012953E-16
3.920000E+03	6.978449E-16	1.029185E-16
3.930000E+03	7.103917E-16	1.045901E-16
3.940000E+03	7.233635E-16	1.063170E-16
3.950000E+03	7.367667E-16	1.080997E-16
3.960000E+03	7.506095E-16	1.099392E-16
3.970000E+03	7.649024E-16	1.118364E-16
3.980000E+03	7.797011E-16	1.137992E-16
3.990000E+03	7.949783E-16	1.158231E-16
4.000000E+03	8.107961E-16	1.179167E-16
4.010000E+03	8.271779E-16	1.200830E-16
4.020000E+03	8.441511E-16	1.223254E-16
4.030000E+03	8.617483E-16	1.246482E-16
4.040000E+03	8.800511E-16	1.270624E-16
4.050000E+03	8.990595E-16	1.295676E-16
4.060000E+03	9.188667E-16	1.321764E-16
4.070000E+03	9.395284E-16	1.348962E-16
4.080000E+03	9.611070E-16	1.377351E-16
4.090000E+03	9.836704E-16	1.407020E-16
4.100000E+03	1.007292E-15	1.438067E-16
4.110000E+03	1.032097E-15	1.470657E-16
4.120000E+03	1.058123E-15	1.504837E-16
4.130000E+03	1.085504E-15	1.540783E-16
4.140000E+03	1.114331E-15	1.578613E-16
4.150000E+03	1.144696E-15	1.618445E-16
4.160000E+03	1.176691E-15	1.660394E-16
4.170000E+03	1.210452E-15	1.704637E-16
4.180000E+03	1.246020E-15	1.751214E-16
4.190000E+03	1.283474E-15	1.800221E-16
4.200000E+03	1.322928E-15	1.851801E-16
4.210000E+03	1.364394E-15	1.905950E-16
4.220000E+03	1.408006E-15	1.962838E-16
4.230000E+03	1.453691E-15	2.022342E-16
4.240000E+03	1.501493E-15	2.084504E-16
4.250000E+03	1.551332E-15	2.149194E-16
4.260000E+03	1.603245E-15	2.216445E-16
4.270000E+03	1.657090E-15	2.286037E-16
4.280000E+03	1.712683E-15	2.357700E-16
4.290000E+03	1.769950E-15	2.431318E-16
4.300000E+03	1.828581E-15	2.506444E-16
4.310000E+03	1.888371E-15	2.582788E-16
4.320000E+03	1.949032E-15	2.659942E-16
4.330000E+03	2.010185E-15	2.737382E-16
4.340000E+03	2.071531E-15	2.814694E-16
4.350000E+03	2.132647E-15	2.891300E-16
4.360000E+03	2.193157E-15	2.966694E-16
4.370000E+03	2.252698E-15	3.040387E-16
4.380000E+03	2.310943E-15	3.111947E-16
4.390000E+03	2.367581E-15	3.180966E-16
4.400000E+03	2.422474E-15	3.247271E-16
4.410000E+03	2.475605E-15	3.310856E-16
4.420000E+03	2.527066E-15	3.371856E-16
4.430000E+03	2.576976E-15	3.430444E-16
4.440000E+03	2.625571E-15	3.486948E-16
4.450000E+03	2.673090E-15	3.541693E-16
4.460000E+03	2.719860E-15	3.595121E-16
4.470000E+03	2.766234E-15	3.647703E-16
4.480000E+03	2.812518E-15	3.699847E-16
4.490000E+03	2.859022E-15	3.751954E-16
4.500000E+03	2.906159E-15	3.804565E-16
4.510000E+03	2.954145E-15	3.857954E-16
4.520000E+03	3.003288E-15	3.912513E-16
4.530000E+03	3.053857E-15	3.968578E-16
4.540000E+03	3.106018E-15	4.026350E-16
4.550000E+03	3.159948E-15	4.086042E-16
4.560000E+03	3.215658E-15	4.147648E-16
4.570000E+03	3.273209E-15	4.211229E-16
4.580000E+03	3.332610E-15	4.276775E-16
4.590000E+03	3.393748E-15	4.344124E-16
4.600000E+03	3.456446E-15	4.413029E-16
4.610000E+03	3.520524E-15	4.483244E-16
4.620000E+03	3.585627E-15	4.554303E-16
4.630000E+03	3.651510E-15	4.625884E-16
4.640000E+03	3.717706E-15	4.697386E-16
4.650000E+03	3.783748E-15	4.768217E-16
4.660000E+03	3.849253E-15	4.837893E-16
4.670000E+03	3.913615E-15	4.905659E-16
4.680000E+03	3.976267E-15	4.970815E-16
4.690000E+03	4.036734E-15	5.032787E-16
4.700000E+03	4.094300E-15	5.090703E-16
4.710000E+03	4.148489E-15	5.144000E-16
4.720000E+03	4.198715E-15	5.191988E-16
4.730000E+03	4.244413E-15	5.234009E-16
4.740000E+03	4.285056E-15	5.269459E-16
4.750000E+03	4.320153E-15	5.297788E-16
4.760000E+03	4.349387E-15	5.318663E-16
4.770000E+03	4.372312E-15	5.331604E-16
4.780000E+03	4.388669E-15	5.336357E-16
4.790000E+03	4.398203E-15	5.332681E-16
4.800000E+03	4.400731E-15	5.320427E-16
4.810000E+03	4.396251E-15	5.299667E-16
4.820000E+03	4.384660E-15	5.270349E-16
4.830000E+03	4.366036E-15	5.232644E-16
4.840000E+03	4.340524E-15	5.186799E-16
4.850000E+03	4.308275E-15	5.133066E-16
4.860000E+03	4.269549E-15	5.071829E-16
4.870000E+03	4.224611E-15	5.003472E-16
4.880000E+03	4.173829E-15	4.928494E-16
4.890000E+03	4.117660E-15	4.847501E-16
4.900000E+03	4.056401E-15	4.760899E-16
4.910000E+03	3.990684E-15	4.669484E-16
4.920000E+03	3.920916E-15	4.573782E-16
4.930000E+03	3.847633E-15	4.474460E-16
4.940000E+03	3.771427E-15	4.372248E-16
4.950000E+03	3.692814E-15	4.267773E-16
4.960000E+03	3.612362E-15	4.161718E-16
4.970000E+03	3.530678E-15	4.054804E-16
4.980000E+03	3.448281E-15	3.947641E-16
4.990000E+03	3.365723E-15	3.840869E-16
5.000000E+03	3.283615E-15	3.735185E-16
5.010000E+03	3.202394E-15	3.631086E-16
5.020000E+03	3.122623E-15	3.529197E-16
5.030000E+03	3.044722E-15	3.429978E-16
5.040000E+03	2.969155E-15	3.333933E-16
5.050000E+03	2.896343E-15	3.241510E-16
5.060000E+03	2.826614E-15	3.153044E-16
5.070000E+03	2.760318E-15	3.068894E-16
5.080000E+03	2.697739E-15	2.989336E-16
5.090000E+03	2.639154E-15	2.914639E-16
5.100000E+03	2.584805E-15	2.845024E-16
5.110000E+03	2.534842E-15	2.780612E-16
5.120000E+03	2.489473E-15	2.721581E-16
5.130000E+03	2.448815E-15	2.668011E-16
5.140000E+03	2.412969E-15	2.619956E-16
5.150000E+03	2.382032E-15	2.577473E-16
5.160000E+03	2.356086E-15	2.540594E-16
5.170000E+03	2.335173E-15	2.509308E-16
5.180000E+03	2.319342E-15	2.483613E-16
5.190000E+03	2.308634E-15	2.463497E-16
5.200000E+03	2.303059E-15	2.448914E-16
5.210000E+03	2.302646E-15	2.439837E-16
5.220000E+03	2.307397E-15	2.436210E-16
5.230000E+03	2.317337E-15	2.438004E-16
5.240000E+03	2.332491E-15	2.445185E-16
5.250000E+03	2.352888E-15	2.457728E-16
5.260000E+03	2.378532E-15	2.475577E-16
5.270000E+03	2.409461E-15	2.498713E-16
5.280000E+03	2.445710E-15	2.527114E-16
5.290000E+03	2.487295E-15	2.560737E-16
5.300000E+03	2.534229E-15	2.599537E-16
5.310000E+03	2.586607E-15	2.643552E-16
5.320000E+03	2.644416E-15	2.692706E-16
5.330000E+03	2.707686E-15	2.746974E-16
5.340000E+03	2.776413E-15	2.806289E-16
5.350000E+03	2.850638E-15	2.870633E-16
5.360000E+03	2.930322E-15	2.939908E-16
5.370000E+03	3.015437E-15	3.014025E-16
5.380000E+03	3.105888E-15	3.092834E-16
5.390000E+03	3.201616E-15	3.176216E-16
5.400000E+03	3.302385E-15	3.263884E-16
5.410000E+03	3.408118E-15	3.355706E-16
5.420000E+03	3.518479E-15	3.451304E-16
5.430000E+03	3.633181E-15	3.550346E-16
5.440000E+03	3.751916E-15	3.652492E-16
5.450000E+03	3.874205E-15	3.757235E-16
5.460000E+03	3.999584E-15	3.864092E-16
5.470000E+03	4.127531E-15	3.972533E-16
5.480000E+03	4.257390E-15	4.081905E-16
5.490000E+03	4.388591E-15	4.191649E-16
5.500000E+03	4.520409E-15	4.301066E-16
5.510000E+03	4.652202E-15	4.409548E-16
5.520000E+03	4.783283E-15	4.516454E-16
5.530000E+03	4.912986E-15	4.621172E-16
5.540000E+03	5.040719E-15	4.723170E-16
5.550000E+03	5.165838E-15	4.821877E-16
5.560000E+03	5.287859E-15	4.916877E-16
5.570000E+03	5.406324E-15	5.007789E-16
5.580000E+03	5.520861E-15	5.094315E-16
5.590000E+03	5.631136E-15	5.176199E-16
5.600000E+03	5.737027E-15	5.253384E-16
5.610000E+03	5.838402E-15	5.325804E-16
5.620000E+03	5.935285E-15	5.393534E-16
5.630000E+03	6.027849E-15	5.456785E-16
5.640000E+03	6.116179E-15	5.515683E-16
5.650000E+03	6.200554E-15	5.570529E-16
5.660000E+03	6.281318E-15	5.621674E-16
5.670000E+03	6.358862E-15	5.669510E-16
5.680000E+03	6.433561E-15	5.714409E-16
5.690000E+03	6.505868E-15	5.756803E-16
5.700000E+03	6.576248E-15	5.797132E-16
5.710000E+03	6.644975E-15	5.835662E-16
5.720000E+03	6.712670E-15	5.872955E-16
5.730000E+03	6.779484E-15	5.909159E-16
5.740000E+03	6.845890E-15	5.944698E-16
5.750000E+03	6.912106E-15	5.979770E-16
5.760000E+03	6.978206E-15	6.014445E-16
5.770000E+03	7.044292E-15	6.048818E-16
5.780000E+03	7.110361E-15	6.082891E-16
5.790000E+03	7.176228E-15	6.116511E-16
5.800000E+03	7.241576E-15	6.149418E-16
5.810000E+03	7.306029E-15	6.181304E-16
5.820000E+03	7.368945E-15	6.211641E-16
5.830000E+03	7.429688E-15	6.239917E-16
5.840000E+03	7.487444E-15	6.265475E-16
5.850000E+03	7.541302E-15	6.287589E-16
5.860000E+03	7.590345E-15	6.305539E-16
5.870000E+03	7.633483E-15	6.318471E-16
5.880000E+03	7.669685E-15	6.325594E-16
5.890000E+03	7.698085E-15	6.326264E-16
5.900000E+03	7.717626E-15	6.319688E-16
5.910000E+03	7.727567E-15	6.305342E-16
5.920000E+03	7.727246E-15	6.282779E-16
5.930000E+03	7.716256E-15	6.251758E-16
5.940000E+03	7.694203E-15	6.212055E-16
5.950000E+03	7.661113E-15	6.163787E-16
5.960000E+03	7.617114E-15	6.107152E-16
5.970000E+03	7.562756E-15	6.042679E-16
5.980000E+03	7.498605E-15	5.970904E-16
5.990000E+03	7.425480E-15	5.892555E-16
6.000000E+03	7.344360E-15	5.808478E-16
6.010000E+03	7.256282E-15	5.719551E-16
6.020000E+03	7.162490E-15	5.626804E-16
6.030000E+03	7.064209E-15	5.531235E-16
6.040000E+03	6.962671E-15	5.433837E-16
6.050000E+03	6.859081E-15	5.335567E-16
6.060000E+03	6.754528E-15	5.237280E-16
6.070000E+03	6.650190E-15	5.139887E-16
6.080000E+03	6.546919E-15	5.044038E-16
6.090000E+03	6.445621E-15	4.950415E-16
6.100000E+03	6.347074E-15	4.859592E-16
6.110000E+03	6.251824E-15	4.771961E-16
6.120000E+03	6.160397E-15	4.687894E-16
6.130000E+03	6.073144E-15	4.607625E-16
6.140000E+03	5.990300E-15	4.531297E-16
6.150000E+03	5.912044E-15	4.459011E-16
6.160000E+03	5.838451E-15	4.390789E-16
6.170000E+03	5.769464E-15	4.326553E-16
6.180000E+03	5.704948E-15	4.266168E-16
6.190000E+03	5.644844E-15	4.209559E-16
6.200000E+03	5.588851E-15	4.156472E-16
6.210000E+03	5.536765E-15	4.106727E-16
6.220000E+03	5.488348E-15	4.060122E-16
6.230000E+03	5.443257E-15	4.016382E-16
6.240000E+03	5.401227E-15	3.975289E-16
6.250000E+03	5.361950E-15	3.936599E-16
6.260000E+03	5.325265E-15	3.900179E-16
6.270000E+03	5.290855E-15	3.865781E-16
6.280000E+03	5.258525E-15	3.833250E-16
6.290000E+03	5.228161E-15	3.802493E-16
6.300000E+03	5.199648E-15	3.773415E-16
6.310000E+03	5.172922E-15	3.745961E-16
6.320000E+03	5.148008E-15	3.720140E-16
6.330000E+03	5.124898E-15	3.695939E-16
6.340000E+03	5.103757E-15	3.673468E-16
6.350000E+03	5.084706E-15	3.652805E-16
6.360000E+03	5.067897E-15	3.634053E-16
6.370000E+03	5.053548E-15	3.617359E-16
6.380000E+03	5.041884E-15	3.602874E-16
6.390000E+03	5.033041E-15	3.590689E-16
6.400000E+03	5.027260E-15	3.580966E-16
6.410000E+03	5.024616E-15	3.573746E-16
6.420000E+03	5.025257E-15	3.569118E-16
6.430000E+03	5.029125E-15	3.567024E-16
6.440000E+03	5.036158E-15	3.567406E-16
6.450000E+03	5.046189E-15	3.570130E-16
6.460000E+03	5.058795E-15	3.574886E-16
6.470000E+03	5.073604E-15	3.581397E-16
6.480000E+03	5.089974E-15	3.589202E-16
6.490000E+03	5.107181E-15	3.597782E-16
6.500000E+03	5.124385E-15	3.606541E-16
6.510000E+03	5.140672E-15	3.614829E-16
6.520000E+03	5.155056E-15	3.621951E-16
6.530000E+03	5.166656E-15	3.627286E-16
6.540000E+03	5.174703E-15	3.630294E-16
6.550000E+03	5.178616E-15	3.630566E-16
6.560000E+03	5.178072E-15	3.627876E-16
6.570000E+03	5.172666E-15	3.621938E-16
6.580000E+03	5.162274E-15	3.612666E-16
6.590000E+03	5.146756E-15	3.599958E-16
6.600000E+03	5.126043E-15	3.583765E-16
6.610000E+03	5.100151E-15	3.564093E-16
6.620000E+03	5.069126E-15	3.540973E-16
6.630000E+03	5.033252E-15	3.514597E-16
6.640000E+03	4.992799E-15	3.485149E-16
6.650000E+03	4.948023E-15	3.452802E-16
6.660000E+03	4.899494E-15	3.417949E-16
6.670000E+03	4.847557E-15	3.380822E-16
6.680000E+03	4.792844E-15	3.341857E-16
6.690000E+03	4.735926E-15	3.301444E-16
6.700000E+03	4.677344E-15	3.259954E-16
6.710000E+03	4.617735E-15	3.217822E-16
6.720000E+03	4.557587E-15	3.175383E-16
6.730000E+03	4.497548E-15	3.133080E-16
6.740000E+03	4.438141E-15	3.091272E-16
6.750000E+03	4.379756E-15	3.050223E-16
6.760000E+03	4.322923E-15	3.010295E-16
6.770000E+03	4.267941E-15	2.971690E-16
6.780000E+03	4.215240E-15	2.934704E-16
6.790000E+03	4.165025E-15	2.899473E-16
6.800000E+03	4.117590E-15	2.866195E-16
6.810000E+03	4.073098E-15	2.834981E-16
6.820000E+03	4.031760E-15	2.805972E-16
6.830000E+03	3.993711E-15	2.779258E-16
6.840000E+03	3.958966E-15	2.754844E-16
6.850000E+03	3.927641E-15	2.732809E-16
6.860000E+03	3.899825E-15	2.713209E-16
6.870000E+03	3.875458E-15	2.696000E-16
6.880000E+03	3.854581E-15	2.681207E-16
6.890000E+03	3.837180E-15	2.668816E-16
6.900000E+03	3.823172E-15	2.658766E-16
6.910000E+03	3.812505E-15	2.651018E-16
6.920000E+03	3.805150E-15	2.645547E-16
6.930000E+03	3.800937E-15	2.642234E-16
6.940000E+03	3.799852E-15	2.641064E-16
6.950000E+03	3.801703E-15	2.641901E-16
6.960000E+03	3.806417E-15	2.644690E-16
6.970000E+03	3.813825E-15	2.649311E-16
6.980000E+03	3.823847E-15	2.655705E-16
6.990000E+03	3.836309E-15	2.663747E-16
7.000000E+03	3.851090E-15	2.673349E-16
7.010000E+03	3.868112E-15	2.684455E-16
7.020000E+03	3.887177E-15	2.696922E-16
7.030000E+03	3.908224E-15	2.710705E-16
7.040000E+03	3.931117E-15	2.725707E-16
7.050000E+03	3.955815E-15	2.741894E-16
7.060000E+03	3.982250E-15	2.759216E-16
7.070000E+03	4.010268E-15	2.777562E-16
7.080000E+03	4.039904E-15	2.796954E-16
7.090000E+03	4.071063E-15	2.817320E-16
7.100000E+03	4.103649E-15	2.838590E-16
7.110000E+03	4.137701E-15	2.860790E-16
7.120000E+03	4.173017E-15	2.883773E-16
7.130000E+03	4.209665E-15	2.907584E-16
7.140000E+03	4.247454E-15	2.932086E-16
7.150000E+03	4.286266E-15	2.957195E-16
7.160000E+03	4.325949E-15	2.982802E-16
7.170000E+03	4.366321E-15	3.008777E-16
7.180000E+03	4.407158E-15	3.034964E-16
7.190000E+03	4.448197E-15	3.061179E-16
7.200000E+03	4.489079E-15	3.087172E-16
7.210000E+03	4.529507E-15	3.112736E-16
7.220000E+03	4.569036E-15	3.137566E-16
7.230000E+03	4.607242E-15	3.161369E-16
7.240000E+03	4.643718E-15	3.183868E-16
7.250000E+03	4.677875E-15	3.204660E-16
7.260000E+03	4.709276E-15	3.223448E-16
7.270000E+03	4.737423E-15	3.239896E-16
7.280000E+03	4.761775E-15	3.253639E-16
7.290000E+03	4.781929E-15	3.264409E-16
7.300000E+03	4.797405E-15	3.271886E-16
7.310000E+03	4.807828E-15	3.275826E-16
7.320000E+03	4.812889E-15	3.276026E-16
7.330000E+03	4.812344E-15	3.272335E-16
7.340000E+03	4.805974E-15	3.264615E-16
7.350000E+03	4.793758E-15	3.252867E-16
7.360000E+03	4.775703E-15	3.237111E-16
7.370000E+03	4.751780E-15	3.217342E-16
7.380000E+03	4.722277E-15	3.193771E-16
7.390000E+03	4.687380E-15	3.166541E-16
7.400000E+03	4.647346E-15	3.135839E-16
7.410000E+03	4.602665E-15	3.102013E-16
7.420000E+03	4.553645E-15	3.065284E-16
7.430000E+03	4.500815E-15	3.026022E-16
7.440000E+03	4.444621E-15	2.984542E-16
7.450000E+03	4.385652E-15	2.941251E-16
7.460000E+03	4.324406E-15	2.896493E-16
7.470000E+03	4.261505E-15	2.850696E-16
7.480000E+03	4.197476E-15	2.804218E-16
7.490000E+03	4.132949E-15	2.757489E-16
7.500000E+03	4.068452E-15	2.710865E-16
7.510000E+03	4.004608E-15	2.664767E-16
7.520000E+03	3.941977E-15	2.619566E-16
7.530000E+03	3.881095E-15	2.575621E-16
7.540000E+03	3.822478E-15	2.533272E-16
7.550000E+03	3.766606E-15	2.492835E-16
7.560000E+03	3.713922E-15	2.454599E-16
7.570000E+03	3.664872E-15	2.418853E-16
7.580000E+03	3.619802E-15	2.385818E-16
7.590000E+03	3.578952E-15	2.355645E-16
7.600000E+03	3.542644E-15	2.328537E-16
7.610000E+03	3.510946E-15	2.304530E-16
7.620000E+03	3.484039E-15	2.283733E-16
7.630000E+03	3.461943E-15	2.266150E-16
7.640000E+03	3.444556E-15	2.251705E-16
7.650000E+03	3.431797E-15	2.240334E-16
7.660000E+03	3.423463E-15	2.231898E-16
7.670000E+03	3.419284E-15	2.226212E-16
7.680000E+03	3.418970E-15	2.223081E-16
7.690000E+03	3.422078E-15	2.222210E-16
7.700000E+03	3.428203E-15	2.223334E-16
7.710000E+03	3.436807E-15	2.226100E-16
7.720000E+03	3.447406E-15	2.230193E-16
7.730000E+03	3.459496E-15	2.235289E-16
7.740000E+03	3.472418E-15	2.240963E-16
7.750000E+03	3.485658E-15	2.246886E-16
7.760000E+03	3.498717E-15	2.252742E-16
