#wls	flux	fluxerr
1.600000E+03	5.575881E-18	8.176950E-19
1.640000E+03	5.170868E-18	7.572582E-19
1.680000E+03	4.797543E-18	7.015912E-19
1.720000E+03	4.456025E-18	6.506972E-19
1.760000E+03	4.174976E-18	6.087405E-19
1.800000E+03	3.935877E-18	5.729901E-19
1.840000E+03	3.736550E-18	5.431047E-19
1.880000E+03	3.585825E-18	5.203413E-19
1.920000E+03	3.461483E-18	5.014488E-19
1.960000E+03	3.373296E-18	4.878228E-19
2.000000E+03	3.321274E-18	4.794388E-19
2.040000E+03	3.306225E-18	4.763857E-19
2.080000E+03	3.329898E-18	4.788852E-19
2.120000E+03	3.386043E-18	4.860073E-19
2.160000E+03	3.497107E-18	5.009381E-19
2.200000E+03	3.660728E-18	5.232894E-19
2.240000E+03	3.894012E-18	5.554495E-19
2.280000E+03	4.177274E-18	5.945470E-19
2.320000E+03	4.567226E-18	6.485807E-19
2.360000E+03	5.050306E-18	7.155153E-19
2.400000E+03	5.646244E-18	7.980341E-19
2.440000E+03	6.429174E-18	9.064577E-19
2.480000E+03	7.397631E-18	1.040363E-18
2.520000E+03	8.615144E-18	1.208434E-18
2.560000E+03	1.014912E-17	1.419793E-18
2.600000E+03	1.208107E-17	1.685406E-18
2.640000E+03	1.452080E-17	2.020032E-18
2.680000E+03	1.755289E-17	2.434725E-18
2.720000E+03	2.141228E-17	2.961161E-18
2.760000E+03	2.629773E-17	3.625588E-18
2.800000E+03	3.233705E-17	4.444102E-18
2.840000E+03	3.975320E-17	5.445534E-18
2.880000E+03	4.897572E-17	6.686429E-18
2.920000E+03	6.001414E-17	8.165287E-18
2.960000E+03	7.325568E-17	9.931664E-18
3.000000E+03	8.880066E-17	1.199546E-17
3.010000E+03	9.302778E-17	1.255486E-17
3.020000E+03	9.740618E-17	1.313352E-17
3.030000E+03	1.019324E-16	1.373092E-17
3.040000E+03	1.065944E-16	1.434537E-17
3.050000E+03	1.114438E-16	1.498374E-17
3.060000E+03	1.163101E-16	1.562306E-17
3.070000E+03	1.213732E-16	1.628745E-17
3.080000E+03	1.265542E-16	1.696623E-17
3.090000E+03	1.320221E-16	1.768200E-17
3.100000E+03	1.374581E-16	1.839195E-17
3.110000E+03	1.427986E-16	1.908761E-17
3.120000E+03	1.486818E-16	1.985420E-17
3.130000E+03	1.544321E-16	2.060137E-17
3.140000E+03	1.599502E-16	2.131594E-17
3.150000E+03	1.658339E-16	2.207756E-17
3.160000E+03	1.721958E-16	2.290107E-17
3.170000E+03	1.782473E-16	2.368145E-17
3.180000E+03	1.838447E-16	2.439975E-17
3.190000E+03	1.899414E-16	2.518257E-17
3.200000E+03	1.960710E-16	2.596791E-17
3.210000E+03	2.021933E-16	2.675040E-17
3.220000E+03	2.083552E-16	2.753624E-17
3.230000E+03	2.152359E-16	2.841507E-17
3.240000E+03	2.214486E-16	2.920368E-17
3.250000E+03	2.276083E-16	2.998334E-17
3.260000E+03	2.337673E-16	3.076097E-17
3.270000E+03	2.398836E-16	3.153101E-17
3.280000E+03	2.459473E-16	3.229217E-17
3.290000E+03	2.519486E-16	3.304317E-17
3.300000E+03	2.579129E-16	3.378735E-17
3.310000E+03	2.625547E-16	3.435650E-17
3.320000E+03	2.696317E-16	3.524236E-17
3.330000E+03	2.739941E-16	3.577146E-17
3.340000E+03	2.810485E-16	3.665007E-17
3.350000E+03	2.851465E-16	3.714125E-17
3.360000E+03	2.905797E-16	3.780464E-17
3.370000E+03	2.959377E-16	3.845637E-17
3.380000E+03	3.028839E-16	3.931232E-17
3.390000E+03	3.064190E-16	3.972368E-17
3.400000E+03	3.115392E-16	4.033892E-17
3.410000E+03	3.183868E-16	4.117569E-17
3.420000E+03	3.214958E-16	4.152713E-17
3.430000E+03	3.283353E-16	4.235860E-17
3.440000E+03	3.331872E-16	4.293151E-17
3.450000E+03	3.359706E-16	4.323638E-17
3.460000E+03	3.406549E-16	4.378440E-17
3.470000E+03	3.453070E-16	4.432648E-17
3.480000E+03	3.499299E-16	4.486301E-17
3.490000E+03	3.566635E-16	4.566798E-17
3.500000E+03	3.590185E-16	4.591053E-17
3.510000E+03	3.635324E-16	4.642769E-17
3.520000E+03	3.679895E-16	4.693580E-17
3.530000E+03	3.747266E-16	4.773253E-17
3.540000E+03	3.792386E-16	4.824364E-17
3.550000E+03	3.837036E-16	4.874690E-17
3.560000E+03	3.882076E-16	4.925327E-17
3.570000E+03	3.904288E-16	4.946854E-17
3.580000E+03	3.972249E-16	5.026156E-17
3.590000E+03	4.017870E-16	5.076961E-17
3.600000E+03	4.064032E-16	5.128256E-17
3.610000E+03	4.110365E-16	5.179570E-17
3.620000E+03	4.135592E-16	5.204127E-17
3.630000E+03	4.183483E-16	5.257039E-17
3.640000E+03	4.253196E-16	5.337127E-17
3.650000E+03	4.302199E-16	5.390981E-17
3.660000E+03	4.331950E-16	5.420530E-17
3.670000E+03	4.383285E-16	5.476904E-17
3.680000E+03	4.435464E-16	5.534107E-17
3.690000E+03	4.488519E-16	5.592173E-17
3.700000E+03	4.543301E-16	5.652154E-17
3.710000E+03	4.599029E-16	5.713069E-17
3.720000E+03	4.671950E-16	5.795065E-17
3.730000E+03	4.729584E-16	5.857815E-17
3.740000E+03	4.774678E-16	5.904802E-17
3.750000E+03	4.836172E-16	5.971827E-17
3.760000E+03	4.911670E-16	6.055846E-17
3.770000E+03	4.964193E-16	6.111253E-17
3.780000E+03	5.030799E-16	6.183726E-17
3.790000E+03	5.099449E-16	6.258409E-17
3.800000E+03	5.170181E-16	6.335335E-17
3.810000E+03	5.243031E-16	6.414534E-17
3.820000E+03	5.318036E-16	6.496037E-17
3.830000E+03	5.394846E-16	6.579403E-17
3.840000E+03	5.476390E-16	6.668186E-17
3.850000E+03	5.556948E-16	6.755400E-17
3.860000E+03	5.639792E-16	6.845022E-17
3.870000E+03	5.724965E-16	6.937089E-17
3.880000E+03	5.817419E-16	7.037574E-17
3.890000E+03	5.903609E-16	7.130072E-17
3.900000E+03	6.005353E-16	7.240926E-17
3.910000E+03	6.103868E-16	7.347429E-17
3.920000E+03	6.205370E-16	7.457069E-17
3.930000E+03	6.310311E-16	7.570367E-17
3.940000E+03	6.418399E-16	7.686948E-17
3.950000E+03	6.510647E-16	7.784090E-17
3.960000E+03	6.645967E-16	7.932202E-17
3.970000E+03	6.740680E-16	8.031311E-17
3.980000E+03	6.861470E-16	8.160984E-17
3.990000E+03	6.986489E-16	8.295111E-17
4.000000E+03	7.116340E-16	8.434379E-17
4.010000E+03	7.250915E-16	8.578626E-17
4.020000E+03	7.390894E-16	8.728621E-17
4.030000E+03	7.579646E-16	8.935453E-17
4.040000E+03	7.734817E-16	9.101897E-17
4.050000E+03	7.896628E-16	9.275407E-17
4.060000E+03	8.065949E-16	9.456956E-17
4.070000E+03	8.243316E-16	9.647119E-17
4.080000E+03	8.428939E-16	9.846082E-17
4.090000E+03	8.623824E-16	1.005496E-16
4.100000E+03	8.755956E-16	1.018989E-16
4.110000E+03	8.966353E-16	1.041506E-16
4.120000E+03	9.187627E-16	1.065184E-16
4.130000E+03	9.421300E-16	1.090191E-16
4.140000E+03	9.667762E-16	1.116562E-16
4.150000E+03	9.927793E-16	1.144379E-16
4.160000E+03	1.031090E-15	1.186230E-16
4.170000E+03	1.060810E-15	1.218037E-16
4.180000E+03	1.092134E-15	1.251539E-16
4.190000E+03	1.125168E-15	1.286844E-16
4.200000E+03	1.160012E-15	1.324056E-16
4.210000E+03	1.196631E-15	1.363120E-16
4.220000E+03	1.235143E-15	1.404158E-16
4.230000E+03	1.275523E-15	1.447128E-16
4.240000E+03	1.299522E-15	1.471353E-16
4.250000E+03	1.342407E-15	1.516795E-16
4.260000E+03	1.387089E-15	1.564053E-16
4.270000E+03	1.455433E-15	1.637715E-16
4.280000E+03	1.481247E-15	1.663289E-16
4.290000E+03	1.530517E-15	1.715012E-16
4.300000E+03	1.581001E-15	1.767846E-16
4.310000E+03	1.660577E-15	1.852890E-16
4.320000E+03	1.714578E-15	1.909064E-16
4.330000E+03	1.737667E-15	1.930624E-16
4.340000E+03	1.823932E-15	2.022098E-16
4.350000E+03	1.878680E-15	2.078276E-16
4.360000E+03	1.933084E-15	2.133796E-16
4.370000E+03	1.947960E-15	2.145501E-16
4.380000E+03	1.998730E-15	2.196564E-16
4.390000E+03	2.090932E-15	2.292796E-16
4.400000E+03	2.141036E-15	2.342501E-16
4.410000E+03	2.189796E-15	2.390476E-16
4.420000E+03	2.237142E-15	2.436654E-16
4.430000E+03	2.283382E-15	2.481378E-16
4.440000E+03	2.275986E-15	2.467703E-16
4.450000E+03	2.318434E-15	2.507965E-16
4.460000E+03	2.417005E-15	2.608569E-16
4.470000E+03	2.460728E-15	2.649603E-16
4.480000E+03	2.504473E-15	2.690424E-16
4.490000E+03	2.548546E-15	2.731357E-16
4.500000E+03	2.593244E-15	2.772717E-16
4.510000E+03	2.638849E-15	2.814799E-16
4.520000E+03	2.685514E-15	2.857759E-16
4.530000E+03	2.661790E-15	2.825738E-16
4.540000E+03	2.708871E-15	2.868804E-16
4.550000E+03	2.757483E-15	2.913226E-16
4.560000E+03	2.886457E-15	3.042076E-16
4.570000E+03	2.859493E-15	3.006296E-16
4.580000E+03	2.912893E-15	3.054921E-16
4.590000E+03	3.054263E-15	3.195279E-16
4.600000E+03	3.024082E-15	3.155857E-16
4.610000E+03	3.173459E-15	3.303485E-16
4.620000E+03	3.234602E-15	3.358694E-16
4.630000E+03	3.296468E-15	3.414310E-16
4.640000E+03	3.358629E-15	3.469884E-16
4.650000E+03	3.420767E-15	3.525085E-16
4.660000E+03	3.376645E-15	3.470714E-16
4.670000E+03	3.434499E-15	3.521100E-16
4.680000E+03	3.601878E-15	3.683153E-16
4.690000E+03	3.658813E-15	3.731650E-16
4.700000E+03	3.713149E-15	3.777175E-16
4.710000E+03	3.645813E-15	3.698940E-16
4.720000E+03	3.811683E-15	3.857021E-16
4.730000E+03	3.854878E-15	3.890383E-16
4.740000E+03	3.893326E-15	3.918708E-16
4.750000E+03	3.800327E-15	3.814851E-16
4.760000E+03	3.826475E-15	3.830752E-16
4.770000E+03	3.846935E-15	3.840807E-16
4.780000E+03	3.861402E-15	3.844760E-16
4.790000E+03	3.869638E-15	3.842421E-16
4.800000E+03	4.002379E-15	3.963303E-16
4.810000E+03	3.998005E-15	3.948033E-16
4.820000E+03	3.855953E-15	3.797183E-16
4.830000E+03	3.969099E-15	3.897695E-16
4.840000E+03	3.944814E-15	3.862982E-16
4.850000E+03	3.914247E-15	3.822243E-16
4.860000E+03	3.749960E-15	3.651444E-16
4.870000E+03	3.835275E-15	3.723886E-16
4.880000E+03	3.787529E-15	3.667005E-16
4.890000E+03	3.734850E-15	3.605605E-16
4.900000E+03	3.677682E-15	3.540159E-16
4.910000E+03	3.498126E-15	3.357541E-16
4.920000E+03	3.435719E-15	3.288022E-16
4.930000E+03	3.370421E-15	3.216077E-16
4.940000E+03	3.413377E-15	3.247473E-16
4.950000E+03	3.233047E-15	3.066806E-16
4.960000E+03	3.267152E-15	3.089943E-16
4.970000E+03	3.090089E-15	2.913754E-16
4.980000E+03	3.017773E-15	2.837025E-16
4.990000E+03	2.945518E-15	2.760750E-16
5.000000E+03	2.967409E-15	2.772844E-16
5.010000E+03	2.893857E-15	2.695888E-16
5.020000E+03	2.821781E-15	2.620710E-16
5.030000E+03	2.751558E-15	2.547646E-16
5.040000E+03	2.683626E-15	2.477088E-16
5.050000E+03	2.538474E-15	2.335851E-16
5.060000E+03	2.478591E-15	2.273654E-16
5.070000E+03	2.421889E-15	2.214702E-16
5.080000E+03	2.368559E-15	2.159140E-16
5.090000E+03	2.318843E-15	2.107162E-16
5.100000E+03	2.272954E-15	2.058930E-16
5.110000E+03	2.297579E-15	2.074626E-16
5.120000E+03	2.258025E-15	2.032410E-16
5.130000E+03	2.222839E-15	1.994335E-16
5.140000E+03	2.130620E-15	1.905453E-16
5.150000E+03	2.166093E-15	1.930928E-16
5.160000E+03	2.085714E-15	1.853254E-16
5.170000E+03	2.070100E-15	1.833402E-16
5.180000E+03	2.059107E-15	1.817717E-16
5.190000E+03	2.108742E-15	1.855439E-16
5.200000E+03	2.051159E-15	1.798843E-16
5.210000E+03	2.108872E-15	1.843359E-16
5.220000E+03	2.062146E-15	1.796553E-16
5.230000E+03	2.074821E-15	1.801597E-16
5.240000E+03	2.092346E-15	1.810765E-16
5.250000E+03	2.168044E-15	1.870009E-16
5.260000E+03	2.195325E-15	1.887196E-16
5.270000E+03	2.227656E-15	1.908555E-16
5.280000E+03	2.211628E-15	1.888437E-16
5.290000E+03	2.254032E-15	1.918139E-16
5.300000E+03	2.355678E-15	1.997845E-16
5.310000E+03	2.354298E-15	1.989892E-16
5.320000E+03	2.467464E-15	2.078438E-16
5.330000E+03	2.475701E-15	2.078257E-16
5.340000E+03	2.544457E-15	2.128665E-16
5.350000E+03	2.675975E-15	2.231014E-16
5.360000E+03	2.698310E-15	2.241903E-16
5.370000E+03	2.842639E-15	2.353685E-16
5.380000E+03	2.873902E-15	2.371360E-16
5.390000E+03	3.031313E-15	2.492600E-16
5.400000E+03	3.070885E-15	2.516398E-16
5.410000E+03	3.177050E-15	2.594367E-16
5.420000E+03	3.353546E-15	2.728984E-16
5.430000E+03	3.470562E-15	2.814388E-16
5.440000E+03	3.591833E-15	2.902593E-16
5.450000E+03	3.716952E-15	2.993237E-16
5.460000E+03	3.845361E-15	3.085846E-16
5.470000E+03	3.976512E-15	3.179957E-16
5.480000E+03	4.109794E-15	3.275066E-16
5.490000E+03	4.244460E-15	3.370566E-16
5.500000E+03	4.300819E-15	3.403388E-16
5.510000E+03	4.434297E-15	3.496753E-16
5.520000E+03	4.566978E-15	3.588797E-16
5.530000E+03	4.782878E-15	3.745325E-16
5.540000E+03	4.827136E-15	3.766783E-16
5.550000E+03	5.041825E-15	3.920582E-16
5.560000E+03	5.075982E-15	3.933378E-16
5.570000E+03	5.287223E-15	4.082794E-16
5.580000E+03	5.403733E-15	4.158242E-16
5.590000E+03	5.419432E-15	4.155828E-16
5.600000E+03	5.622758E-15	4.296784E-16
5.610000E+03	5.725157E-15	4.359878E-16
5.620000E+03	5.720840E-15	4.341527E-16
5.630000E+03	5.811897E-15	4.395411E-16
5.640000E+03	5.898630E-15	4.445645E-16
5.650000E+03	5.981243E-15	4.492419E-16
5.660000E+03	6.060122E-15	4.536057E-16
5.670000E+03	6.247305E-15	4.660168E-16
5.680000E+03	6.322066E-15	4.699839E-16
5.690000E+03	6.394459E-15	4.737467E-16
5.700000E+03	6.347332E-15	4.686575E-16
5.710000E+03	6.534279E-15	4.808255E-16
5.720000E+03	6.480496E-15	4.752556E-16
5.730000E+03	6.670240E-15	4.875209E-16
5.740000E+03	6.737708E-15	4.907954E-16
5.750000E+03	6.676322E-15	4.846922E-16
5.760000E+03	6.741656E-15	4.877976E-16
5.770000E+03	6.941204E-15	5.005602E-16
5.780000E+03	6.873012E-15	4.939934E-16
5.790000E+03	6.938763E-15	4.970646E-16
5.800000E+03	7.004228E-15	5.000945E-16
5.810000E+03	7.068937E-15	5.030504E-16
5.820000E+03	7.279756E-15	5.163501E-16
5.830000E+03	7.193589E-15	5.085665E-16
5.840000E+03	7.251991E-15	5.110212E-16
5.850000E+03	7.306585E-15	5.131928E-16
5.860000E+03	7.514713E-15	5.260997E-16
5.870000E+03	7.561014E-15	5.276311E-16
5.880000E+03	7.436644E-15	5.172821E-16
5.890000E+03	7.630961E-15	5.290971E-16
5.900000E+03	7.484619E-15	5.172936E-16
5.910000E+03	7.494106E-15	5.163026E-16
5.920000E+03	7.664174E-15	5.263479E-16
5.930000E+03	7.653062E-15	5.239286E-16
5.940000E+03	7.630063E-15	5.207156E-16
5.950000E+03	7.420697E-15	5.048466E-16
5.960000E+03	7.548668E-15	5.119577E-16
5.970000E+03	7.490872E-15	5.064680E-16
5.980000E+03	7.422376E-15	5.002945E-16
5.990000E+03	7.169611E-15	4.817801E-16
6.000000E+03	7.257280E-15	4.861892E-16
6.010000E+03	7.162929E-15	4.784186E-16
6.020000E+03	7.062358E-15	4.702851E-16
6.030000E+03	6.956974E-15	4.618855E-16
6.040000E+03	6.848133E-15	4.533120E-16
6.050000E+03	6.737112E-15	4.446504E-16
6.060000E+03	6.460320E-15	4.251361E-16
6.070000E+03	6.350808E-15	4.167172E-16
6.080000E+03	6.242784E-15	4.084500E-16
6.090000E+03	6.137166E-15	4.003931E-16
6.100000E+03	6.191592E-15	4.027999E-16
6.110000E+03	6.091071E-15	3.951479E-16
6.120000E+03	5.842366E-15	3.779590E-16
6.130000E+03	5.903770E-15	3.808784E-16
6.140000E+03	5.817697E-15	3.743007E-16
6.150000E+03	5.736936E-15	3.681069E-16
6.160000E+03	5.517112E-15	3.530551E-16
6.170000E+03	5.591638E-15	3.568773E-16
6.180000E+03	5.526866E-15	3.518203E-16
6.190000E+03	5.467140E-15	3.471182E-16
6.200000E+03	5.275279E-15	3.340808E-16
6.210000E+03	5.361729E-15	3.386990E-16
6.220000E+03	5.315376E-15	3.349347E-16
6.230000E+03	5.272799E-15	3.314357E-16
6.240000E+03	5.233603E-15	3.281752E-16
6.250000E+03	5.069649E-15	3.171358E-16
6.260000E+03	5.163852E-15	3.222697E-16
6.270000E+03	5.008653E-15	3.118610E-16
6.280000E+03	5.103395E-15	3.170373E-16
6.290000E+03	4.955872E-15	3.071845E-16
6.300000E+03	4.931989E-15	3.050330E-16
6.310000E+03	5.025701E-15	3.101592E-16
6.320000E+03	5.002754E-15	3.080907E-16
6.330000E+03	4.869071E-15	2.992371E-16
6.340000E+03	4.850978E-15	2.975210E-16
6.350000E+03	4.942552E-15	3.025366E-16
6.360000E+03	4.925866E-15	3.009312E-16
6.370000E+03	4.807075E-15	2.931188E-16
6.380000E+03	4.898675E-15	2.981537E-16
6.390000E+03	4.888736E-15	2.970145E-16
6.400000E+03	4.881519E-15	2.960581E-16
6.410000E+03	4.877323E-15	2.953016E-16
6.420000E+03	4.876322E-15	2.947542E-16
6.430000E+03	4.878582E-15	2.944185E-16
6.440000E+03	4.884129E-15	2.942948E-16
6.450000E+03	4.892966E-15	2.943818E-16
6.460000E+03	4.815845E-15	2.893167E-16
6.470000E+03	4.919341E-15	2.951132E-16
6.480000E+03	4.936044E-15	2.957053E-16
6.490000E+03	4.954312E-15	2.964005E-16
6.500000E+03	4.889113E-15	2.921177E-16
6.510000E+03	4.992146E-15	2.978950E-16
6.520000E+03	5.009699E-15	2.985735E-16
6.530000E+03	5.025085E-15	2.991311E-16
6.540000E+03	5.037433E-15	2.995161E-16
6.550000E+03	5.046259E-15	2.997001E-16
6.560000E+03	5.051089E-15	2.996551E-16
6.570000E+03	5.051565E-15	2.993605E-16
6.580000E+03	5.047469E-15	2.988038E-16
6.590000E+03	5.038489E-15	2.979668E-16
6.600000E+03	5.024470E-15	2.968407E-16
6.610000E+03	5.005235E-15	2.954156E-16
6.620000E+03	4.909648E-15	2.894974E-16
6.630000E+03	4.951249E-15	2.916778E-16
6.640000E+03	4.847941E-15	2.853306E-16
6.650000E+03	4.877511E-15	2.868136E-16
6.660000E+03	4.833940E-15	2.840012E-16
6.670000E+03	4.721407E-15	2.771498E-16
6.680000E+03	4.671811E-15	2.740051E-16
6.690000E+03	4.619358E-15	2.707015E-16
6.700000E+03	4.626095E-15	2.708721E-16
6.710000E+03	4.568659E-15	2.672905E-16
6.720000E+03	4.510157E-15	2.636547E-16
6.730000E+03	4.451319E-15	2.600070E-16
6.740000E+03	4.392620E-15	2.563747E-16
6.750000E+03	4.278885E-15	2.495398E-16
6.760000E+03	4.277841E-15	2.492834E-16
6.770000E+03	4.222637E-15	2.458744E-16
6.780000E+03	4.116507E-15	2.395081E-16
6.790000E+03	4.066488E-15	2.364139E-16
6.800000E+03	4.070305E-15	2.364518E-16
6.810000E+03	4.024930E-15	2.336338E-16
6.820000E+03	3.932794E-15	2.281074E-16
6.830000E+03	3.943645E-15	2.285575E-16
6.840000E+03	3.908016E-15	2.263141E-16
6.850000E+03	3.875902E-15	2.242764E-16
6.860000E+03	3.799644E-15	2.196881E-16
6.870000E+03	3.775120E-15	2.180944E-16
6.880000E+03	3.801254E-15	2.194256E-16
6.890000E+03	3.783707E-15	2.182332E-16
6.900000E+03	3.769736E-15	2.172467E-16
6.910000E+03	3.712967E-15	2.137952E-16
6.920000E+03	3.752507E-15	2.158879E-16
6.930000E+03	3.702759E-15	2.128419E-16
6.940000E+03	3.702593E-15	2.126460E-16
6.950000E+03	3.751814E-15	2.152814E-16
6.960000E+03	3.711439E-15	2.127725E-16
6.970000E+03	3.766658E-15	2.157403E-16
6.980000E+03	3.731552E-15	2.135306E-16
6.990000E+03	3.792345E-15	2.168040E-16
7.000000E+03	3.808844E-15	2.175377E-16
7.010000E+03	3.827581E-15	2.183939E-16
7.020000E+03	3.848382E-15	2.193623E-16
7.030000E+03	3.871210E-15	2.204401E-16
7.040000E+03	3.895871E-15	2.216158E-16
7.050000E+03	3.922274E-15	2.228839E-16
7.060000E+03	3.901219E-15	2.214510E-16
7.070000E+03	3.930514E-15	2.228718E-16
7.080000E+03	3.961299E-15	2.243693E-16
7.090000E+03	4.044164E-15	2.288055E-16
7.100000E+03	4.027376E-15	2.275953E-16
7.110000E+03	4.062559E-15	2.293167E-16
7.120000E+03	4.151273E-15	2.340472E-16
7.130000E+03	4.137023E-15	2.329633E-16
7.140000E+03	4.229465E-15	2.378778E-16
7.150000E+03	4.216447E-15	2.368510E-16
7.160000E+03	4.312310E-15	2.419300E-16
7.170000E+03	4.299903E-15	2.409245E-16
7.180000E+03	4.342677E-15	2.430042E-16
7.190000E+03	4.442359E-15	2.482532E-16
7.200000E+03	4.429032E-15	2.471761E-16
7.210000E+03	4.471943E-15	2.492308E-16
7.220000E+03	4.514106E-15	2.512329E-16
7.230000E+03	4.555116E-15	2.531600E-16
7.240000E+03	4.594359E-15	2.549783E-16
7.250000E+03	4.631409E-15	2.566645E-16
7.260000E+03	4.665597E-15	2.581821E-16
7.270000E+03	4.757988E-15	2.629061E-16
7.280000E+03	4.785292E-15	2.640198E-16
7.290000E+03	4.808067E-15	2.648754E-16
7.300000E+03	4.825752E-15	2.654434E-16
7.310000E+03	4.837898E-15	2.657005E-16
7.320000E+03	4.844126E-15	2.656275E-16
7.330000E+03	4.780732E-15	2.617383E-16
7.340000E+03	4.774291E-15	2.609701E-16
7.350000E+03	4.824843E-15	2.633105E-16
7.360000E+03	4.805360E-15	2.618233E-16
7.370000E+03	4.716483E-15	2.565622E-16
7.380000E+03	4.684586E-15	2.544092E-16
7.390000E+03	4.646820E-15	2.519416E-16
7.400000E+03	4.665169E-15	2.525165E-16
7.410000E+03	4.616044E-15	2.494404E-16
7.420000E+03	4.562238E-15	2.461195E-16
7.430000E+03	4.504223E-15	2.425808E-16
7.440000E+03	4.442571E-15	2.388564E-16
7.450000E+03	4.377881E-15	2.349798E-16
7.460000E+03	4.253891E-15	2.279375E-16
7.470000E+03	4.241780E-15	2.269026E-16
7.480000E+03	4.116895E-15	2.198482E-16
7.490000E+03	4.101173E-15	2.186369E-16
7.500000E+03	3.978018E-15	2.117119E-16
7.510000E+03	3.961277E-15	2.104644E-16
7.520000E+03	3.893204E-15	2.064989E-16
7.530000E+03	3.777481E-15	2.000244E-16
7.540000E+03	3.763884E-15	1.989714E-16
7.550000E+03	3.703828E-15	1.954716E-16
7.560000E+03	3.600590E-15	1.897099E-16
7.570000E+03	3.595432E-15	1.891284E-16
7.580000E+03	3.502712E-15	1.839528E-16
7.590000E+03	3.505520E-15	1.838053E-16
7.600000E+03	3.468335E-15	1.815679E-16
7.610000E+03	3.436594E-15	1.796254E-16
7.620000E+03	3.410406E-15	1.779826E-16
7.630000E+03	3.389793E-15	1.766395E-16
7.640000E+03	3.374780E-15	1.755962E-16
7.650000E+03	3.365124E-15	1.748391E-16
7.660000E+03	3.360582E-15	1.743549E-16
7.670000E+03	3.360919E-15	1.741306E-16
7.680000E+03	3.365728E-15	1.741442E-16
7.690000E+03	3.374436E-15	1.743659E-16
7.700000E+03	3.345361E-15	1.726441E-16
7.710000E+03	3.401527E-15	1.753276E-16
7.720000E+03	3.418662E-15	1.760031E-16
7.730000E+03	3.437313E-15	1.767636E-16
7.740000E+03	3.456792E-15	1.775737E-16
7.750000E+03	3.476368E-15	1.783967E-16
7.760000E+03	3.453656E-15	1.770600E-16
