#wls	flux	fluxerr
1.600000E+03	4.294765E-19	7.671658E-20
1.640000E+03	4.176763E-19	7.451332E-20
1.680000E+03	4.074702E-19	7.259657E-20
1.720000E+03	3.991498E-19	7.101724E-20
1.760000E+03	3.924718E-19	6.973081E-20
1.800000E+03	3.877319E-19	6.878859E-20
1.840000E+03	3.847283E-19	6.815337E-20
1.880000E+03	3.836560E-19	6.785824E-20
1.920000E+03	3.847221E-19	6.793814E-20
1.960000E+03	3.877994E-19	6.836871E-20
2.000000E+03	3.932667E-19	6.921470E-20
2.040000E+03	4.010597E-19	7.046243E-20
2.080000E+03	4.116276E-19	7.218825E-20
2.120000E+03	4.251077E-19	7.441311E-20
2.160000E+03	4.419319E-19	7.720914E-20
2.200000E+03	4.622150E-19	8.059241E-20
2.240000E+03	4.866451E-19	8.467828E-20
2.280000E+03	5.156035E-19	8.952768E-20
2.320000E+03	5.498321E-19	9.526309E-20
2.360000E+03	5.898887E-19	1.019737E-19
2.400000E+03	6.367409E-19	1.098182E-19
2.440000E+03	6.911643E-19	1.189201E-19
2.480000E+03	7.542123E-19	1.294487E-19
2.520000E+03	8.274897E-19	1.416653E-19
2.560000E+03	9.119881E-19	1.557232E-19
2.600000E+03	1.009448E-18	1.719002E-19
2.640000E+03	1.121310E-18	1.904191E-19
2.680000E+03	1.249942E-18	2.116559E-19
2.720000E+03	1.397093E-18	2.358757E-19
2.760000E+03	1.564505E-18	2.633378E-19
2.800000E+03	1.755013E-18	2.944792E-19
2.840000E+03	1.970034E-18	3.294921E-19
2.880000E+03	2.212506E-18	3.688162E-19
2.920000E+03	2.484013E-18	4.126577E-19
2.960000E+03	2.786893E-18	4.613410E-19
3.000000E+03	3.121486E-18	5.148521E-19
3.010000E+03	3.210590E-18	5.290581E-19
3.020000E+03	3.301718E-18	5.435669E-19
3.030000E+03	3.394872E-18	5.583774E-19
3.040000E+03	3.490758E-18	5.736046E-19
3.050000E+03	3.587988E-18	5.890188E-19
3.060000E+03	3.687978E-18	6.048515E-19
3.070000E+03	3.790022E-18	6.209853E-19
3.080000E+03	3.894115E-18	6.374181E-19
3.090000E+03	4.000244E-18	6.541465E-19
3.100000E+03	4.108399E-18	6.711674E-19
3.110000E+03	4.218562E-18	6.884767E-19
3.120000E+03	4.331559E-18	7.062076E-19
3.130000E+03	4.446563E-18	7.242236E-19
3.140000E+03	4.563555E-18	7.425202E-19
3.150000E+03	4.682505E-18	7.610915E-19
3.160000E+03	4.803388E-18	7.799316E-19
3.170000E+03	4.926173E-18	7.990343E-19
3.180000E+03	5.051778E-18	8.185469E-19
3.190000E+03	5.179254E-18	8.383138E-19
3.200000E+03	5.308561E-18	8.583276E-19
3.210000E+03	5.439659E-18	8.785800E-19
3.220000E+03	5.572504E-18	8.990625E-19
3.230000E+03	5.708100E-18	9.199359E-19
3.240000E+03	5.844314E-18	9.408545E-19
3.250000E+03	5.983218E-18	9.621509E-19
3.260000E+03	6.123707E-18	9.836455E-19
3.270000E+03	6.265723E-18	1.005328E-18
3.280000E+03	6.410358E-18	1.027372E-18
3.290000E+03	6.555267E-18	1.049399E-18
3.300000E+03	6.702713E-18	1.071772E-18
3.310000E+03	6.851473E-18	1.094293E-18
3.320000E+03	7.001478E-18	1.116949E-18
3.330000E+03	7.152658E-18	1.139729E-18
3.340000E+03	7.306215E-18	1.162821E-18
3.350000E+03	7.459539E-18	1.185811E-18
3.360000E+03	7.615126E-18	1.209092E-18
3.370000E+03	7.771619E-18	1.232449E-18
3.380000E+03	7.930291E-18	1.256082E-18
3.390000E+03	8.088359E-18	1.279549E-18
3.400000E+03	8.248474E-18	1.303267E-18
3.410000E+03	8.407766E-18	1.326784E-18
3.420000E+03	8.568962E-18	1.350527E-18
3.430000E+03	8.730566E-18	1.374260E-18
3.440000E+03	8.893960E-18	1.398200E-18
3.450000E+03	9.056104E-18	1.421868E-18
3.460000E+03	9.219873E-18	1.445713E-18
3.470000E+03	9.383683E-18	1.469488E-18
3.480000E+03	9.547426E-18	1.493173E-18
3.490000E+03	9.712566E-18	1.516997E-18
3.500000E+03	9.875855E-18	1.540453E-18
3.510000E+03	1.004035E-17	1.564016E-18
3.520000E+03	1.020435E-17	1.587421E-18
3.530000E+03	1.036774E-17	1.610648E-18
3.540000E+03	1.053038E-17	1.633679E-18
3.550000E+03	1.069385E-17	1.656754E-18
3.560000E+03	1.085635E-17	1.679595E-18
3.570000E+03	1.101774E-17	1.702182E-18
3.580000E+03	1.117790E-17	1.724494E-18
3.590000E+03	1.133667E-17	1.746510E-18
3.600000E+03	1.149569E-17	1.768477E-18
3.610000E+03	1.165127E-17	1.789833E-18
3.620000E+03	1.180683E-17	1.811100E-18
3.630000E+03	1.196043E-17	1.831983E-18
3.640000E+03	1.211375E-17	1.852738E-18
3.650000E+03	1.226298E-17	1.872784E-18
3.660000E+03	1.241162E-17	1.892656E-18
3.670000E+03	1.255769E-17	1.912051E-18
3.680000E+03	1.270100E-17	1.930944E-18
3.690000E+03	1.284327E-17	1.949596E-18
3.700000E+03	1.298056E-17	1.967410E-18
3.710000E+03	1.311649E-17	1.984935E-18
3.720000E+03	1.324898E-17	2.001860E-18
3.730000E+03	1.337785E-17	2.018159E-18
3.740000E+03	1.350487E-17	2.034099E-18
3.750000E+03	1.362600E-17	2.049074E-18
3.760000E+03	1.374494E-17	2.063643E-18
3.770000E+03	1.385958E-17	2.077493E-18
3.780000E+03	1.396977E-17	2.090601E-18
3.790000E+03	1.407732E-17	2.103241E-18
3.800000E+03	1.417815E-17	2.114807E-18
3.810000E+03	1.427607E-17	2.125869E-18
3.820000E+03	1.436898E-17	2.136119E-18
3.830000E+03	1.445678E-17	2.145544E-18
3.840000E+03	1.454136E-17	2.154426E-18
3.850000E+03	1.461867E-17	2.162171E-18
3.860000E+03	1.469262E-17	2.169360E-18
3.870000E+03	1.476118E-17	2.175696E-18
3.880000E+03	1.482433E-17	2.181179E-18
3.890000E+03	1.488402E-17	2.186101E-18
3.900000E+03	1.493631E-17	2.189885E-18
3.910000E+03	1.498516E-17	2.193118E-18
3.920000E+03	1.502865E-17	2.195520E-18
3.930000E+03	1.506679E-17	2.197097E-18
3.940000E+03	1.510164E-17	2.198154E-18
3.950000E+03	1.512933E-17	2.198130E-18
3.960000E+03	1.515387E-17	2.197612E-18
3.970000E+03	1.517343E-17	2.196338E-18
3.980000E+03	1.518812E-17	2.194328E-18
3.990000E+03	1.520004E-17	2.191889E-18
4.000000E+03	1.520550E-17	2.188491E-18
4.010000E+03	1.520852E-17	2.184717E-18
4.020000E+03	1.520741E-17	2.180327E-18
4.030000E+03	1.520240E-17	2.175358E-18
4.040000E+03	1.519373E-17	2.169845E-18
4.050000E+03	1.518352E-17	2.164095E-18
4.060000E+03	1.516832E-17	2.157620E-18
4.070000E+03	1.515211E-17	2.150987E-18
4.080000E+03	1.513331E-17	2.143974E-18
4.090000E+03	1.511404E-17	2.136882E-18
4.100000E+03	1.509094E-17	2.129239E-18
4.110000E+03	1.506612E-17	2.121346E-18
4.120000E+03	1.504169E-17	2.113498E-18
4.130000E+03	1.501615E-17	2.105485E-18
4.140000E+03	1.498980E-17	2.097353E-18
4.150000E+03	1.496299E-17	2.089149E-18
4.160000E+03	1.493778E-17	2.081161E-18
4.170000E+03	1.491106E-17	2.072956E-18
4.180000E+03	1.488666E-17	2.065066E-18
4.190000E+03	1.486321E-17	2.057300E-18
4.200000E+03	1.484111E-17	2.049712E-18
4.210000E+03	1.482076E-17	2.042357E-18
4.220000E+03	1.480424E-17	2.035518E-18
4.230000E+03	1.478860E-17	2.028786E-18
4.240000E+03	1.477754E-17	2.022669E-18
4.250000E+03	1.476979E-17	2.016989E-18
4.260000E+03	1.476571E-17	2.011790E-18
4.270000E+03	1.476564E-17	2.007117E-18
4.280000E+03	1.476987E-17	2.003004E-18
4.290000E+03	1.477870E-17	1.999487E-18
4.300000E+03	1.479394E-17	1.996808E-18
4.310000E+03	1.481420E-17	1.994772E-18
4.320000E+03	1.483808E-17	1.993186E-18
4.330000E+03	1.486884E-17	1.992484E-18
4.340000E+03	1.490502E-17	1.992463E-18
4.350000E+03	1.494825E-17	1.993336E-18
4.360000E+03	1.499544E-17	1.994683E-18
4.370000E+03	1.504818E-17	1.996714E-18
4.380000E+03	1.510805E-17	1.999629E-18
4.390000E+03	1.517352E-17	2.003219E-18
4.400000E+03	1.524309E-17	2.007284E-18
4.410000E+03	1.532009E-17	2.012253E-18
4.420000E+03	1.540311E-17	2.017934E-18
4.430000E+03	1.549232E-17	2.024344E-18
4.440000E+03	1.558786E-17	2.031496E-18
4.450000E+03	1.569149E-17	2.039608E-18
4.460000E+03	1.580018E-17	2.048279E-18
4.470000E+03	1.591716E-17	2.057924E-18
4.480000E+03	1.603937E-17	2.068137E-18
4.490000E+03	1.617003E-17	2.079326E-18
4.500000E+03	1.630757E-17	2.091281E-18
4.510000E+03	1.645037E-17	2.103787E-18
4.520000E+03	1.660159E-17	2.117240E-18
4.530000E+03	1.675959E-17	2.131422E-18
4.540000E+03	1.692427E-17	2.146312E-18
4.550000E+03	1.709553E-17	2.161890E-18
4.560000E+03	1.727322E-17	2.178130E-18
4.570000E+03	1.745888E-17	2.195216E-18
4.580000E+03	1.764904E-17	2.212705E-18
4.590000E+03	1.784518E-17	2.230775E-18
4.600000E+03	1.804885E-17	2.249612E-18
4.610000E+03	1.825650E-17	2.268767E-18
4.620000E+03	1.846963E-17	2.288418E-18
4.630000E+03	1.868983E-17	2.308757E-18
4.640000E+03	1.891352E-17	2.329333E-18
4.650000E+03	1.914407E-17	2.350555E-18
4.660000E+03	1.937968E-17	2.372193E-18
4.670000E+03	1.961859E-17	2.394027E-18
4.680000E+03	1.986441E-17	2.416489E-18
4.690000E+03	2.011369E-17	2.439155E-18
4.700000E+03	2.037033E-17	2.462489E-18
4.710000E+03	2.063288E-17	2.486308E-18
4.720000E+03	2.090004E-17	2.510445E-18
4.730000E+03	2.117610E-17	2.535412E-18
4.740000E+03	2.146004E-17	2.561072E-18
4.750000E+03	2.175091E-17	2.587302E-18
4.760000E+03	2.205358E-17	2.614672E-18
4.770000E+03	2.236739E-17	2.643087E-18
4.780000E+03	2.269167E-17	2.672456E-18
4.790000E+03	2.303177E-17	2.703390E-18
4.800000E+03	2.338522E-17	2.735580E-18
4.810000E+03	2.375745E-17	2.769646E-18
4.820000E+03	2.414591E-17	2.805262E-18
4.830000E+03	2.455608E-17	2.843045E-18
4.840000E+03	2.498508E-17	2.882634E-18
4.850000E+03	2.543825E-17	2.924617E-18
4.860000E+03	2.591223E-17	2.968581E-18
4.870000E+03	2.640981E-17	3.014814E-18
4.880000E+03	2.693364E-17	3.063589E-18
4.890000E+03	2.747939E-17	3.114379E-18
4.900000E+03	2.804907E-17	3.167382E-18
4.910000E+03	2.864216E-17	3.222510E-18
4.920000E+03	2.925789E-17	3.279641E-18
4.930000E+03	2.989514E-17	3.338624E-18
4.940000E+03	3.055010E-17	3.399003E-18
4.950000E+03	3.122608E-17	3.461121E-18
4.960000E+03	3.191888E-17	3.524485E-18
4.970000E+03	3.262400E-17	3.588576E-18
4.980000E+03	3.334460E-17	3.653722E-18
4.990000E+03	3.407335E-17	3.719102E-18
5.000000E+03	3.481082E-17	3.784763E-18
5.010000E+03	3.555504E-17	3.850479E-18
5.020000E+03	3.630414E-17	3.916038E-18
5.030000E+03	3.705642E-17	3.981246E-18
5.040000E+03	3.781037E-17	4.045935E-18
5.050000E+03	3.856474E-17	4.109970E-18
5.060000E+03	3.931550E-17	4.172917E-18
5.070000E+03	4.006803E-17	4.235351E-18
5.080000E+03	4.081584E-17	4.296579E-18
5.090000E+03	4.156192E-17	4.356922E-18
5.100000E+03	4.230657E-17	4.416409E-18
5.110000E+03	4.305031E-17	4.475096E-18
5.120000E+03	4.379062E-17	4.532721E-18
5.130000E+03	4.453509E-17	4.590068E-18
5.140000E+03	4.527817E-17	4.646559E-18
5.150000E+03	4.602435E-17	4.702655E-18
5.160000E+03	4.677485E-17	4.758472E-18
5.170000E+03	4.753080E-17	4.814118E-18
5.180000E+03	4.829320E-17	4.869685E-18
5.190000E+03	4.906293E-17	4.925250E-18
5.200000E+03	4.983695E-17	4.980498E-18
5.210000E+03	5.061929E-17	5.035823E-18
5.220000E+03	5.141020E-17	5.091236E-18
5.230000E+03	5.220974E-17	5.146731E-18
5.240000E+03	5.301402E-17	5.201913E-18
5.250000E+03	5.383066E-17	5.257517E-18
5.260000E+03	5.465186E-17	5.312768E-18
5.270000E+03	5.548159E-17	5.368041E-18
5.280000E+03	5.631615E-17	5.422969E-18
5.290000E+03	5.716425E-17	5.478377E-18
5.300000E+03	5.801874E-17	5.533565E-18
5.310000E+03	5.888513E-17	5.589045E-18
5.320000E+03	5.976525E-17	5.644973E-18
5.330000E+03	6.066130E-17	5.701536E-18
5.340000E+03	6.157147E-17	5.758541E-18
5.350000E+03	6.250274E-17	5.816619E-18
5.360000E+03	6.345794E-17	5.876000E-18
5.370000E+03	6.443982E-17	5.936905E-18
5.380000E+03	6.545090E-17	5.999527E-18
5.390000E+03	6.648863E-17	6.063592E-18
5.400000E+03	6.755901E-17	6.129606E-18
5.410000E+03	6.865796E-17	6.197156E-18
5.420000E+03	6.979473E-17	6.267031E-18
5.430000E+03	7.095841E-17	6.338205E-18
5.440000E+03	7.215131E-17	6.410843E-18
5.450000E+03	7.336974E-17	6.484580E-18
5.460000E+03	7.460374E-17	6.558504E-18
5.470000E+03	7.585227E-17	6.632501E-18
5.480000E+03	7.710832E-17	6.705943E-18
5.490000E+03	7.836413E-17	6.778149E-18
5.500000E+03	7.960653E-17	6.847987E-18
5.510000E+03	8.083457E-17	6.915396E-18
5.520000E+03	8.203709E-17	6.979448E-18
5.530000E+03	8.322007E-17	7.040687E-18
5.540000E+03	8.436843E-17	7.097873E-18
5.550000E+03	8.548501E-17	7.151296E-18
5.560000E+03	8.656293E-17	7.200430E-18
5.570000E+03	8.761429E-17	7.246333E-18
5.580000E+03	8.862985E-17	7.288287E-18
5.590000E+03	8.961359E-17	7.326670E-18
5.600000E+03	9.058308E-17	7.362957E-18
5.610000E+03	9.153351E-17	7.396785E-18
5.620000E+03	9.247298E-17	7.428833E-18
5.630000E+03	9.342255E-17	7.460803E-18
5.640000E+03	9.437935E-17	7.492449E-18
5.650000E+03	9.535256E-17	7.524481E-18
5.660000E+03	9.636357E-17	7.558548E-18
5.670000E+03	9.740809E-17	7.594258E-18
5.680000E+03	9.849957E-17	7.632599E-18
5.690000E+03	9.963771E-17	7.673475E-18
5.700000E+03	1.008333E-16	7.717638E-18
5.710000E+03	1.020892E-16	7.765224E-18
5.720000E+03	1.034071E-16	7.816259E-18
5.730000E+03	1.047797E-16	7.870105E-18
5.740000E+03	1.062047E-16	7.926507E-18
5.750000E+03	1.076923E-16	7.986135E-18
5.760000E+03	1.092234E-16	8.047484E-18
5.770000E+03	1.107981E-16	8.110501E-18
5.780000E+03	1.124012E-16	8.173991E-18
5.790000E+03	1.140297E-16	8.237709E-18
5.800000E+03	1.156727E-16	8.300818E-18
5.810000E+03	1.173101E-16	8.361855E-18
5.820000E+03	1.189351E-16	8.420339E-18
5.830000E+03	1.205323E-16	8.475190E-18
5.840000E+03	1.220768E-16	8.524716E-18
5.850000E+03	1.235580E-16	8.568237E-18
5.860000E+03	1.249563E-16	8.604491E-18
5.870000E+03	1.262435E-16	8.631658E-18
5.880000E+03	1.274064E-16	8.649003E-18
5.890000E+03	1.284159E-16	8.654729E-18
5.900000E+03	1.292594E-16	8.648227E-18
5.910000E+03	1.299177E-16	8.628445E-18
5.920000E+03	1.303734E-16	8.594507E-18
5.930000E+03	1.306036E-16	8.545211E-18
5.940000E+03	1.305970E-16	8.480160E-18
5.950000E+03	1.303627E-16	8.400276E-18
5.960000E+03	1.298816E-16	8.304684E-18
5.970000E+03	1.291561E-16	8.193900E-18
5.980000E+03	1.282011E-16	8.069230E-18
5.990000E+03	1.270284E-16	7.931760E-18
6.000000E+03	1.256544E-16	7.782834E-18
6.010000E+03	1.240915E-16	7.623523E-18
6.020000E+03	1.223638E-16	7.455583E-18
6.030000E+03	1.205121E-16	7.281747E-18
6.040000E+03	1.185494E-16	7.102979E-18
6.050000E+03	1.165044E-16	6.921164E-18
6.060000E+03	1.144198E-16	6.738953E-18
6.070000E+03	1.123022E-16	6.556804E-18
6.080000E+03	1.101988E-16	6.377509E-18
6.090000E+03	1.081204E-16	6.201672E-18
6.100000E+03	1.060960E-16	6.030915E-18
6.110000E+03	1.041390E-16	5.865923E-18
6.120000E+03	1.022733E-16	5.707933E-18
6.130000E+03	1.005077E-16	5.557304E-18
6.140000E+03	9.886703E-17	5.415246E-18
6.150000E+03	9.734352E-17	5.281157E-18
6.160000E+03	9.596359E-17	5.156282E-18
6.170000E+03	9.472202E-17	5.040130E-18
6.180000E+03	9.362966E-17	4.933066E-18
6.190000E+03	9.268456E-17	4.834763E-18
6.200000E+03	9.189452E-17	4.745403E-18
6.210000E+03	9.125527E-17	4.664534E-18
6.220000E+03	9.077232E-17	4.592208E-18
6.230000E+03	9.044467E-17	4.528139E-18
6.240000E+03	9.027033E-17	4.471996E-18
6.250000E+03	9.024093E-17	4.423138E-18
6.260000E+03	9.035277E-17	4.381170E-18
6.270000E+03	9.061189E-17	4.346172E-18
6.280000E+03	9.099661E-17	4.316899E-18
6.290000E+03	9.151689E-17	4.293637E-18
6.300000E+03	9.215529E-17	4.275381E-18
6.310000E+03	9.290996E-17	4.261881E-18
6.320000E+03	9.376802E-17	4.252392E-18
6.330000E+03	9.472773E-17	4.246698E-18
6.340000E+03	9.578222E-17	4.244364E-18
6.350000E+03	9.691933E-17	4.244740E-18
6.360000E+03	9.813944E-17	4.247746E-18
6.370000E+03	9.943827E-17	4.253108E-18
6.380000E+03	1.008074E-16	4.260388E-18
6.390000E+03	1.022517E-16	4.269730E-18
6.400000E+03	1.037665E-16	4.280870E-18
6.410000E+03	1.053612E-16	4.294145E-18
6.420000E+03	1.070420E-16	4.309739E-18
6.430000E+03	1.088111E-16	4.327679E-18
6.440000E+03	1.106866E-16	4.348619E-18
6.450000E+03	1.126836E-16	4.373067E-18
6.460000E+03	1.148137E-16	4.401376E-18
6.470000E+03	1.171062E-16	4.434571E-18
6.480000E+03	1.195818E-16	4.473297E-18
6.490000E+03	1.222881E-16	4.519187E-18
6.500000E+03	1.252446E-16	4.572770E-18
6.510000E+03	1.285241E-16	4.636486E-18
6.520000E+03	1.321745E-16	4.711793E-18
6.530000E+03	1.362809E-16	4.801405E-18
6.540000E+03	1.408545E-16	4.905359E-18
6.550000E+03	1.458206E-16	5.020767E-18
6.560000E+03	1.510872E-16	5.144311E-18
6.570000E+03	1.565521E-16	5.272520E-18
6.580000E+03	1.621319E-16	5.402728E-18
6.590000E+03	1.677366E-16	5.532215E-18
6.600000E+03	1.732714E-16	5.658240E-18
6.610000E+03	1.786693E-16	5.779112E-18
6.620000E+03	1.838639E-16	5.893252E-18
6.630000E+03	1.887907E-16	5.999210E-18
6.640000E+03	1.934211E-16	6.096741E-18
6.650000E+03	1.977301E-16	6.185725E-18
6.660000E+03	2.016954E-16	6.266118E-18
6.670000E+03	2.053306E-16	6.338983E-18
6.680000E+03	2.086366E-16	6.404944E-18
6.690000E+03	2.116599E-16	6.465979E-18
6.700000E+03	2.144031E-16	6.522671E-18
6.710000E+03	2.168972E-16	6.576415E-18
6.720000E+03	2.192004E-16	6.629379E-18
6.730000E+03	2.213187E-16	6.682099E-18
6.740000E+03	2.232814E-16	6.735776E-18
6.750000E+03	2.251415E-16	6.792287E-18
6.760000E+03	2.268944E-16	6.851742E-18
6.770000E+03	2.285580E-16	6.914813E-18
6.780000E+03	2.301731E-16	6.982763E-18
6.790000E+03	2.317218E-16	7.055042E-18
6.800000E+03	2.332232E-16	7.132198E-18
6.810000E+03	2.346653E-16	7.213813E-18
6.820000E+03	2.360612E-16	7.300205E-18
6.830000E+03	2.374078E-16	7.391180E-18
6.840000E+03	2.387000E-16	7.486458E-18
6.850000E+03	2.399167E-16	7.585235E-18
6.860000E+03	2.410649E-16	7.687551E-18
6.870000E+03	2.421358E-16	7.792944E-18
6.880000E+03	2.431058E-16	7.900436E-18
6.890000E+03	2.439800E-16	8.009944E-18
6.900000E+03	2.447487E-16	8.120892E-18
6.910000E+03	2.453871E-16	8.232172E-18
6.920000E+03	2.459151E-16	8.344141E-18
6.930000E+03	2.462936E-16	8.455151E-18
6.940000E+03	2.465137E-16	8.564534E-18
6.950000E+03	2.465976E-16	8.672691E-18
6.960000E+03	2.465094E-16	8.777980E-18
6.970000E+03	2.462448E-16	8.879835E-18
6.980000E+03	2.458322E-16	8.978867E-18
6.990000E+03	2.452430E-16	9.073628E-18
7.000000E+03	2.444970E-16	9.164423E-18
7.010000E+03	2.436020E-16	9.251149E-18
7.020000E+03	2.425553E-16	9.333298E-18
7.030000E+03	2.414018E-16	9.412224E-18
7.040000E+03	2.401306E-16	9.487173E-18
7.050000E+03	2.387637E-16	9.558679E-18
7.060000E+03	2.373544E-16	9.628605E-18
7.070000E+03	2.358996E-16	9.696613E-18
7.080000E+03	2.344412E-16	9.764240E-18
7.090000E+03	2.329928E-16	9.831920E-18
7.100000E+03	2.316109E-16	9.901972E-18
7.110000E+03	2.302945E-16	9.974342E-18
7.120000E+03	2.290840E-16	1.005082E-17
7.130000E+03	2.279903E-16	1.013196E-17
7.140000E+03	2.270644E-16	1.022017E-17
7.150000E+03	2.262996E-16	1.031535E-17
7.160000E+03	2.257289E-16	1.041923E-17
7.170000E+03	2.253551E-16	1.053219E-17
7.180000E+03	2.252207E-16	1.065654E-17
7.190000E+03	2.253105E-16	1.079188E-17
7.200000E+03	2.256489E-16	1.093976E-17
7.210000E+03	2.262444E-16	1.110095E-17
7.220000E+03	2.270899E-16	1.127553E-17
7.230000E+03	2.282044E-16	1.146483E-17
7.240000E+03	2.295917E-16	1.166948E-17
7.250000E+03	2.312541E-16	1.189004E-17
7.260000E+03	2.331927E-16	1.212701E-17
7.270000E+03	2.353925E-16	1.238005E-17
7.280000E+03	2.378667E-16	1.265030E-17
7.290000E+03	2.406125E-16	1.293805E-17
7.300000E+03	2.436262E-16	1.324354E-17
7.310000E+03	2.469023E-16	1.356692E-17
7.320000E+03	2.504182E-16	1.390734E-17
7.330000E+03	2.541802E-16	1.426556E-17
7.340000E+03	2.581773E-16	1.464135E-17
7.350000E+03	2.623960E-16	1.503431E-17
7.360000E+03	2.668030E-16	1.544287E-17
7.370000E+03	2.714126E-16	1.586816E-17
7.380000E+03	2.761680E-16	1.630713E-17
7.390000E+03	2.810422E-16	1.675840E-17
7.400000E+03	2.860410E-16	1.722247E-17
7.410000E+03	2.911135E-16	1.769644E-17
7.420000E+03	2.962040E-16	1.817697E-17
7.430000E+03	3.012906E-16	1.866269E-17
7.440000E+03	3.063307E-16	1.915089E-17
7.450000E+03	3.112789E-16	1.963860E-17
7.460000E+03	3.160685E-16	2.012135E-17
7.470000E+03	3.206931E-16	2.059843E-17
7.480000E+03	3.250658E-16	2.106390E-17
7.490000E+03	3.291636E-16	2.151577E-17
7.500000E+03	3.329472E-16	2.195096E-17
7.510000E+03	3.363831E-16	2.236667E-17
7.520000E+03	3.394226E-16	2.275901E-17
7.530000E+03	3.420691E-16	2.312753E-17
7.540000E+03	3.443136E-16	2.347092E-17
7.550000E+03	3.461561E-16	2.378851E-17
7.560000E+03	3.476060E-16	2.408022E-17
7.570000E+03	3.486800E-16	2.434659E-17
7.580000E+03	3.493781E-16	2.458697E-17
7.590000E+03	3.497731E-16	2.480589E-17
7.600000E+03	3.498471E-16	2.500156E-17
7.610000E+03	3.496495E-16	2.517703E-17
7.620000E+03	3.492028E-16	2.533346E-17
7.630000E+03	3.484997E-16	2.546994E-17
7.640000E+03	3.475943E-16	2.559001E-17
7.650000E+03	3.464388E-16	2.568983E-17
7.660000E+03	3.450456E-16	2.576992E-17
7.670000E+03	3.433956E-16	2.582846E-17
7.680000E+03	3.414628E-16	2.586311E-17
7.690000E+03	3.392171E-16	2.587112E-17
7.700000E+03	3.366272E-16	2.584960E-17
7.710000E+03	3.336416E-16	2.579407E-17
7.720000E+03	3.302818E-16	2.570559E-17
7.730000E+03	3.264877E-16	2.557890E-17
7.740000E+03	3.222769E-16	2.541473E-17
7.750000E+03	3.176565E-16	2.521304E-17
7.760000E+03	3.126453E-16	2.497473E-17
