#wls	flux	fluxerr
1.600000E+03	5.127133E-14	3.167492E-14
1.640000E+03	5.305433E-14	3.029706E-14
1.680000E+03	5.496135E-14	2.871175E-14
1.720000E+03	5.701122E-14	2.690613E-14
1.760000E+03	5.922450E-14	2.486710E-14
1.800000E+03	6.162444E-14	2.258262E-14
1.840000E+03	6.423376E-14	2.004194E-14
1.880000E+03	6.707108E-14	1.723762E-14
1.920000E+03	7.013953E-14	1.416838E-14
1.960000E+03	7.339709E-14	1.084444E-14
2.000000E+03	7.668222E-14	7.300169E-15
2.040000E+03	7.955280E-14	3.632771E-15
2.080000E+03	8.186095E-14	5.847292E-16
2.120000E+03	8.705471E-14	2.967527E-15
2.160000E+03	9.205775E-14	4.307610E-15
2.200000E+03	9.693127E-14	3.861968E-15
2.240000E+03	1.013307E-13	1.667872E-15
2.280000E+03	1.026791E-13	2.645958E-15
2.320000E+03	1.018242E-13	6.050714E-15
2.360000E+03	1.013794E-13	8.802618E-15
2.400000E+03	1.021310E-13	1.070589E-14
2.440000E+03	1.042623E-13	1.164822E-14
2.480000E+03	1.077651E-13	1.148500E-14
2.520000E+03	1.125471E-13	1.002474E-14
2.560000E+03	1.183951E-13	7.052608E-15
2.600000E+03	1.246146E-13	2.550913E-15
2.640000E+03	1.291766E-13	4.187406E-15
2.680000E+03	1.320875E-13	1.026055E-14
2.720000E+03	1.345289E-13	1.600473E-14
2.760000E+03	1.366567E-13	2.109593E-14
2.800000E+03	1.383665E-13	2.531473E-14
2.840000E+03	1.395112E-13	2.848260E-14
2.880000E+03	1.399500E-13	3.047292E-14
2.920000E+03	1.395629E-13	3.122696E-14
2.960000E+03	1.382569E-13	3.076736E-14
3.000000E+03	1.359751E-13	2.920602E-14
3.010000E+03	1.352500E-13	2.866522E-14
3.020000E+03	1.344653E-13	2.807196E-14
3.030000E+03	1.336200E-13	2.743011E-14
3.040000E+03	1.327170E-13	2.674439E-14
3.050000E+03	1.317582E-13	2.601950E-14
3.060000E+03	1.307463E-13	2.526030E-14
3.070000E+03	1.296842E-13	2.447167E-14
3.080000E+03	1.285772E-13	2.365883E-14
3.090000E+03	1.274295E-13	2.282658E-14
3.100000E+03	1.262478E-13	2.197994E-14
3.110000E+03	1.250396E-13	2.112363E-14
3.120000E+03	1.238134E-13	2.026212E-14
3.130000E+03	1.225792E-13	1.939953E-14
3.140000E+03	1.213474E-13	1.853951E-14
3.150000E+03	1.201312E-13	1.768545E-14
3.160000E+03	1.189422E-13	1.683988E-14
3.170000E+03	1.177954E-13	1.600520E-14
3.180000E+03	1.167036E-13	1.518287E-14
3.190000E+03	1.156815E-13	1.437420E-14
3.200000E+03	1.147423E-13	1.357983E-14
3.210000E+03	1.138984E-13	1.280013E-14
3.220000E+03	1.131614E-13	1.203521E-14
3.230000E+03	1.125408E-13	1.128509E-14
3.240000E+03	1.120436E-13	1.054981E-14
3.250000E+03	1.116749E-13	9.829722E-15
3.260000E+03	1.114372E-13	9.125622E-15
3.270000E+03	1.113289E-13	8.438741E-15
3.280000E+03	1.113447E-13	7.770841E-15
3.290000E+03	1.114745E-13	7.123957E-15
3.300000E+03	1.117049E-13	6.500199E-15
3.310000E+03	1.120150E-13	5.901295E-15
3.320000E+03	1.123831E-13	5.329107E-15
3.330000E+03	1.127841E-13	4.786149E-15
3.340000E+03	1.131958E-13	4.277045E-15
3.350000E+03	1.136017E-13	3.809467E-15
3.360000E+03	1.139934E-13	3.392553E-15
3.370000E+03	1.143681E-13	3.028711E-15
3.380000E+03	1.147311E-13	2.707190E-15
3.390000E+03	1.150887E-13	2.413673E-15
3.394840E+03	1.166584E-13	3.715384E-15
3.397150E+03	1.167955E-13	3.701122E-15
3.399460E+03	1.169189E-13	3.686527E-15
3.401770E+03	1.170402E-13	3.671891E-15
3.404080E+03	1.171946E-13	3.658058E-15
3.406390E+03	1.173624E-13	3.644548E-15
3.408700E+03	1.175088E-13	3.630524E-15
3.411010E+03	1.176260E-13	3.615817E-15
3.413320E+03	1.177295E-13	3.600805E-15
3.415630E+03	1.178756E-13	3.586807E-15
3.417940E+03	1.180372E-13	3.573174E-15
3.420250E+03	1.181618E-13	3.547749E-15
3.422560E+03	1.183019E-13	3.549946E-15
3.424870E+03	1.184419E-13	3.529448E-15
3.427170E+03	1.186304E-13	3.478661E-15
3.429480E+03	1.188382E-13	3.471692E-15
3.431790E+03	1.190013E-13	3.432675E-15
3.434100E+03	1.191818E-13	3.423484E-15
3.436410E+03	1.193427E-13	3.405507E-15
3.438720E+03	1.195132E-13	3.339840E-15
3.441030E+03	1.196643E-13	3.314094E-15
3.443340E+03	1.197744E-13	3.240640E-15
3.445650E+03	1.199388E-13	3.245772E-15
3.447960E+03	1.200662E-13	3.241384E-15
3.450270E+03	1.202344E-13	3.229357E-15
3.452580E+03	1.203207E-13	3.187196E-15
3.454890E+03	1.203837E-13	3.177123E-15
3.457200E+03	1.204932E-13	3.130455E-15
3.459510E+03	1.205890E-13	3.106763E-15
3.461820E+03	1.206906E-13	3.090944E-15
3.464130E+03	1.207765E-13	3.019418E-15
3.466440E+03	1.208915E-13	2.962784E-15
3.468750E+03	1.210608E-13	2.947744E-15
3.471060E+03	1.211814E-13	2.931990E-15
3.473370E+03	1.212649E-13	2.921391E-15
3.475680E+03	1.214203E-13	2.955450E-15
3.477990E+03	1.216476E-13	2.937640E-15
3.480300E+03	1.219291E-13	2.921561E-15
3.482610E+03	1.221542E-13	2.913114E-15
3.484920E+03	1.224161E-13	2.879219E-15
3.487230E+03	1.226273E-13	2.866419E-15
3.489540E+03	1.228637E-13	2.851526E-15
3.491850E+03	1.231155E-13	2.829052E-15
3.494160E+03	1.233147E-13	2.801283E-15
3.496470E+03	1.235547E-13	2.780857E-15
3.498780E+03	1.238334E-13	2.763909E-15
3.501090E+03	1.241178E-13	2.799974E-15
3.503390E+03	1.243243E-13	2.771088E-15
3.505700E+03	1.245793E-13	2.722853E-15
3.508010E+03	1.249858E-13	2.703960E-15
3.510320E+03	1.253650E-13	2.700568E-15
3.512630E+03	1.256993E-13	2.694998E-15
3.514940E+03	1.261229E-13	2.687618E-15
3.517250E+03	1.265929E-13	2.685546E-15
3.519560E+03	1.270046E-13	2.722005E-15
3.521870E+03	1.274375E-13	2.694635E-15
3.524180E+03	1.278954E-13	2.643224E-15
3.526490E+03	1.283028E-13	2.644289E-15
3.528800E+03	1.287566E-13	2.657408E-15
3.531110E+03	1.292102E-13	2.641472E-15
3.533420E+03	1.296230E-13	2.633594E-15
3.535730E+03	1.299889E-13	2.618273E-15
3.538040E+03	1.303663E-13	2.620742E-15
3.540350E+03	1.307728E-13	2.613668E-15
3.542660E+03	1.310722E-13	2.572381E-15
3.544970E+03	1.312977E-13	2.561162E-15
3.547280E+03	1.315599E-13	2.552353E-15
3.549590E+03	1.317870E-13	2.503164E-15
3.551900E+03	1.319558E-13	2.491123E-15
3.554210E+03	1.320777E-13	2.492575E-15
3.556520E+03	1.321432E-13	2.475937E-15
3.558830E+03	1.321931E-13	2.465912E-15
3.561140E+03	1.321923E-13	2.449503E-15
3.563450E+03	1.321973E-13	2.435912E-15
3.565760E+03	1.321263E-13	2.416715E-15
3.568070E+03	1.319388E-13	2.359629E-15
3.570380E+03	1.317842E-13	2.361024E-15
3.572690E+03	1.315925E-13	2.342796E-15
3.575000E+03	1.313329E-13	2.315320E-15
3.577310E+03	1.309877E-13	2.270747E-15
3.579610E+03	1.306482E-13	2.253002E-15
3.581920E+03	1.303145E-13	2.234567E-15
3.584230E+03	1.299225E-13	2.216780E-15
3.586540E+03	1.295536E-13	2.185644E-15
3.588850E+03	1.291576E-13	2.165715E-15
3.591160E+03	1.287730E-13	2.149078E-15
3.593470E+03	1.284427E-13	2.147029E-15
3.595780E+03	1.280968E-13	2.175109E-15
3.598090E+03	1.277819E-13	2.162117E-15
3.600400E+03	1.274203E-13	2.155961E-15
3.602710E+03	1.271459E-13	2.180984E-15
3.605020E+03	1.269141E-13	2.214873E-15
3.607330E+03	1.266958E-13	2.212752E-15
3.609640E+03	1.265161E-13	2.194426E-15
3.611950E+03	1.263713E-13	2.185067E-15
3.614260E+03	1.262612E-13	2.183319E-15
3.616570E+03	1.261587E-13	2.164803E-15
3.618880E+03	1.260736E-13	2.129457E-15
3.621190E+03	1.260640E-13	2.151157E-15
3.623500E+03	1.261415E-13	2.186081E-15
3.625810E+03	1.263235E-13	2.183064E-15
3.628120E+03	1.265731E-13	2.192437E-15
3.630430E+03	1.268245E-13	2.198194E-15
3.632740E+03	1.270913E-13	2.199105E-15
3.635050E+03	1.274392E-13	2.198752E-15
3.637360E+03	1.278683E-13	2.199380E-15
3.639670E+03	1.282488E-13	2.192268E-15
3.641980E+03	1.287395E-13	2.189762E-15
3.644290E+03	1.292746E-13	2.163538E-15
3.646600E+03	1.298114E-13	2.170311E-15
3.648910E+03	1.303384E-13	2.171077E-15
3.651220E+03	1.309136E-13	2.120370E-15
3.653530E+03	1.315196E-13	2.075872E-15
3.655830E+03	1.320965E-13	2.051261E-15
3.658140E+03	1.326053E-13	2.060500E-15
3.660450E+03	1.330889E-13	2.059180E-15
3.662760E+03	1.335008E-13	2.070877E-15
3.665070E+03	1.339106E-13	2.066536E-15
3.667380E+03	1.342390E-13	2.083017E-15
3.669690E+03	1.345383E-13	2.071264E-15
3.672000E+03	1.347989E-13	2.046573E-15
3.674310E+03	1.350052E-13	2.056297E-15
3.676620E+03	1.352135E-13	2.034906E-15
3.678930E+03	1.353463E-13	2.035368E-15
3.681240E+03	1.354713E-13	2.038981E-15
3.683550E+03	1.355267E-13	2.067022E-15
3.685860E+03	1.355280E-13	2.071187E-15
3.688170E+03	1.354402E-13	2.073723E-15
3.690480E+03	1.352752E-13	2.123346E-15
3.692790E+03	1.350561E-13	2.120547E-15
3.695100E+03	1.348234E-13	2.123964E-15
3.697410E+03	1.345039E-13	2.122306E-15
3.699720E+03	1.341457E-13	2.115964E-15
3.702030E+03	1.337393E-13	2.144174E-15
3.704340E+03	1.333020E-13	2.173655E-15
3.706650E+03	1.328455E-13	2.206147E-15
3.708960E+03	1.323137E-13	2.224218E-15
3.711270E+03	1.317510E-13	2.239681E-15
3.713580E+03	1.311286E-13	2.238536E-15
3.715890E+03	1.304484E-13	2.226686E-15
3.718200E+03	1.298165E-13	2.231491E-15
3.720510E+03	1.291635E-13	2.228511E-15
3.722820E+03	1.284990E-13	2.256362E-15
3.725130E+03	1.278655E-13	2.293957E-15
3.727440E+03	1.272399E-13	2.309148E-15
3.729750E+03	1.265969E-13	2.351999E-15
3.732050E+03	1.259464E-13	2.335075E-15
3.734360E+03	1.253191E-13	2.332576E-15
3.736670E+03	1.246862E-13	2.327881E-15
3.738980E+03	1.240745E-13	2.283034E-15
3.741290E+03	1.234456E-13	2.282655E-15
3.743600E+03	1.228881E-13	2.273528E-15
3.745910E+03	1.223346E-13	2.271866E-15
3.748220E+03	1.218063E-13	2.288034E-15
3.750530E+03	1.212838E-13	2.290068E-15
3.752840E+03	1.207807E-13	2.257986E-15
3.755150E+03	1.203258E-13	2.208928E-15
3.757460E+03	1.199019E-13	2.192885E-15
3.759770E+03	1.194935E-13	2.161311E-15
3.762080E+03	1.190619E-13	2.160650E-15
3.764390E+03	1.186246E-13	2.159681E-15
3.766700E+03	1.182549E-13	2.177992E-15
3.769010E+03	1.178563E-13	2.184092E-15
3.771320E+03	1.175078E-13	2.155304E-15
3.773630E+03	1.171536E-13	2.126891E-15
3.775940E+03	1.167647E-13	2.109683E-15
3.778250E+03	1.163836E-13	2.041084E-15
3.780560E+03	1.160180E-13	2.033313E-15
3.782870E+03	1.157005E-13	2.028191E-15
3.785180E+03	1.153253E-13	2.027063E-15
3.787490E+03	1.149713E-13	2.024213E-15
3.789800E+03	1.146751E-13	2.024825E-15
3.792110E+03	1.143442E-13	2.042494E-15
3.794420E+03	1.140134E-13	2.045879E-15
3.796730E+03	1.137076E-13	2.040191E-15
3.799040E+03	1.134385E-13	2.014483E-15
3.801350E+03	1.130923E-13	2.039877E-15
3.803660E+03	1.127212E-13	2.067227E-15
3.805970E+03	1.123789E-13	2.070867E-15
3.808270E+03	1.120599E-13	2.055211E-15
3.810580E+03	1.117292E-13	2.054596E-15
3.812890E+03	1.114640E-13	2.054478E-15
3.815200E+03	1.112122E-13	2.041788E-15
3.817510E+03	1.110163E-13	2.030608E-15
3.819820E+03	1.108453E-13	2.033042E-15
3.822130E+03	1.107359E-13	2.027769E-15
3.824440E+03	1.107187E-13	2.022574E-15
3.826750E+03	1.107284E-13	2.027514E-15
3.829060E+03	1.108034E-13	2.018209E-15
3.831370E+03	1.108995E-13	2.021799E-15
3.833680E+03	1.110359E-13	2.052160E-15
3.835990E+03	1.111953E-13	2.051244E-15
3.838300E+03	1.114122E-13	2.062719E-15
3.840610E+03	1.116598E-13	2.066846E-15
3.842920E+03	1.119476E-13	2.075153E-15
3.845230E+03	1.122641E-13	2.084096E-15
3.847540E+03	1.126093E-13	2.091554E-15
3.849850E+03	1.129390E-13	2.082852E-15
3.852160E+03	1.133261E-13	2.067274E-15
3.854470E+03	1.137266E-13	2.100562E-15
3.856780E+03	1.140885E-13	2.121823E-15
3.859090E+03	1.145328E-13	2.135313E-15
3.861400E+03	1.150902E-13	2.149004E-15
3.863710E+03	1.156667E-13	2.150288E-15
3.866020E+03	1.162774E-13	2.168393E-15
3.868330E+03	1.169283E-13	2.180451E-15
3.870640E+03	1.175597E-13	2.190379E-15
3.872950E+03	1.180912E-13	2.200999E-15
3.875260E+03	1.185975E-13	2.228581E-15
3.877570E+03	1.191018E-13	2.256852E-15
3.879880E+03	1.195463E-13	2.268632E-15
3.882190E+03	1.199313E-13	2.266245E-15
3.884490E+03	1.202356E-13	2.285222E-15
3.886800E+03	1.205224E-13	2.293341E-15
3.889110E+03	1.207440E-13	2.308290E-15
3.891420E+03	1.209653E-13	2.327401E-15
3.893730E+03	1.211502E-13	2.333542E-15
3.896040E+03	1.212908E-13	2.338196E-15
3.898350E+03	1.214045E-13	2.342909E-15
3.900660E+03	1.215238E-13	2.341618E-15
3.902970E+03	1.216277E-13	2.299718E-15
3.905280E+03	1.217046E-13	2.331951E-15
3.907590E+03	1.217336E-13	2.518417E-15
3.909900E+03	1.217165E-13	2.606495E-15
3.912210E+03	1.216993E-13	2.607026E-15
3.914520E+03	1.216763E-13	2.606150E-15
3.916830E+03	1.216015E-13	2.612213E-15
3.919140E+03	1.215017E-13	2.618735E-15
3.921450E+03	1.213426E-13	2.642527E-15
3.923760E+03	1.211623E-13	2.629619E-15
3.926070E+03	1.209590E-13	2.618648E-15
3.928380E+03	1.207194E-13	2.615773E-15
3.930690E+03	1.204644E-13	2.623636E-15
3.933000E+03	1.201692E-13	2.623056E-15
3.935310E+03	1.198931E-13	2.612676E-15
3.937620E+03	1.195902E-13	2.603379E-15
3.939930E+03	1.192759E-13	2.581867E-15
3.942240E+03	1.189691E-13	2.576092E-15
3.944550E+03	1.186547E-13	2.570652E-15
3.946860E+03	1.183269E-13	2.559998E-15
3.949170E+03	1.179627E-13	2.556626E-15
3.951480E+03	1.176196E-13	2.549023E-15
3.953790E+03	1.173223E-13	2.518376E-15
3.956100E+03	1.170116E-13	2.349811E-15
3.958410E+03	1.166608E-13	2.245059E-15
3.960710E+03	1.163043E-13	2.236986E-15
3.963020E+03	1.159802E-13	2.230060E-15
3.965330E+03	1.156714E-13	2.212536E-15
3.967640E+03	1.153396E-13	2.205517E-15
3.969950E+03	1.150249E-13	2.179722E-15
3.972260E+03	1.147237E-13	2.174881E-15
3.974570E+03	1.143746E-13	2.165762E-15
3.976880E+03	1.140008E-13	2.151015E-15
3.979190E+03	1.136423E-13	2.122016E-15
3.981500E+03	1.132894E-13	2.097418E-15
3.983810E+03	1.129232E-13	2.089456E-15
3.986120E+03	1.125817E-13	2.075864E-15
3.988430E+03	1.122155E-13	2.068045E-15
3.990740E+03	1.118112E-13	2.059813E-15
3.993050E+03	1.114125E-13	2.054846E-15
3.995360E+03	1.110196E-13	2.044087E-15
3.997670E+03	1.106344E-13	2.029513E-15
3.999980E+03	1.102719E-13	2.020841E-15
4.002290E+03	1.099190E-13	2.012417E-15
4.004600E+03	1.096060E-13	1.999839E-15
4.006910E+03	1.094682E-13	1.992108E-15
4.009220E+03	1.093702E-13	1.992164E-15
4.011530E+03	1.092226E-13	1.992285E-15
4.013840E+03	1.091625E-13	1.984329E-15
4.016150E+03	1.091765E-13	1.974210E-15
4.018460E+03	1.091694E-13	1.962285E-15
4.020770E+03	1.091830E-13	1.953308E-15
4.023080E+03	1.092536E-13	1.944255E-15
4.025390E+03	1.093507E-13	1.940904E-15
4.027700E+03	1.094988E-13	1.941601E-15
4.030010E+03	1.096449E-13	1.938820E-15
4.032320E+03	1.097851E-13	1.941866E-15
4.034630E+03	1.099783E-13	1.944227E-15
4.036930E+03	1.101562E-13	1.971935E-15
4.039240E+03	1.103528E-13	1.992194E-15
4.041550E+03	1.105852E-13	1.994911E-15
4.043860E+03	1.107984E-13	1.994655E-15
4.046170E+03	1.110532E-13	1.994191E-15
4.048480E+03	1.113343E-13	1.998990E-15
4.050790E+03	1.115942E-13	2.001558E-15
4.053100E+03	1.118653E-13	1.999625E-15
4.055410E+03	1.121494E-13	2.024018E-15
4.057720E+03	1.124257E-13	2.015672E-15
4.060030E+03	1.127092E-13	1.999368E-15
4.062340E+03	1.129490E-13	2.032247E-15
4.064650E+03	1.131524E-13	2.034820E-15
4.066960E+03	1.133140E-13	2.031040E-15
4.069270E+03	1.134545E-13	2.041261E-15
4.071580E+03	1.135796E-13	2.041143E-15
4.073890E+03	1.136496E-13	2.045156E-15
4.076200E+03	1.136683E-13	2.041873E-15
4.078510E+03	1.136849E-13	2.040586E-15
4.080820E+03	1.137052E-13	2.043718E-15
4.083130E+03	1.136817E-13	2.040378E-15
4.085440E+03	1.136108E-13	2.019216E-15
4.087750E+03	1.135512E-13	1.996360E-15
4.090060E+03	1.134743E-13	1.982833E-15
4.092370E+03	1.133633E-13	1.974544E-15
4.094680E+03	1.132011E-13	1.968462E-15
4.096990E+03	1.129859E-13	1.949123E-15
4.099300E+03	1.127480E-13	1.932390E-15
4.101610E+03	1.124704E-13	1.922065E-15
4.103920E+03	1.121549E-13	1.893905E-15
4.106230E+03	1.117940E-13	1.881747E-15
4.108540E+03	1.114332E-13	1.869680E-15
4.110850E+03	1.110987E-13	1.830778E-15
4.113150E+03	1.107097E-13	1.820103E-15
4.115460E+03	1.102959E-13	1.807092E-15
4.117770E+03	1.098954E-13	1.781001E-15
4.120080E+03	1.094591E-13	1.762081E-15
4.122390E+03	1.089983E-13	1.737239E-15
4.124700E+03	1.085206E-13	1.711412E-15
4.127010E+03	1.080579E-13	1.719983E-15
4.129320E+03	1.075708E-13	1.720840E-15
4.131630E+03	1.070480E-13	1.703064E-15
4.133940E+03	1.065441E-13	1.684926E-15
4.136250E+03	1.060064E-13	1.681232E-15
4.138560E+03	1.054555E-13	1.666855E-15
4.140870E+03	1.049010E-13	1.656595E-15
4.143180E+03	1.043447E-13	1.647865E-15
4.145490E+03	1.037716E-13	1.638490E-15
4.147800E+03	1.031722E-13	1.621330E-15
4.150110E+03	1.025748E-13	1.606108E-15
4.152420E+03	1.020245E-13	1.591696E-15
4.154730E+03	1.015288E-13	1.581996E-15
4.157040E+03	1.010181E-13	1.577674E-15
4.159350E+03	1.005301E-13	1.579665E-15
4.161660E+03	1.001002E-13	1.558421E-15
4.163970E+03	9.967795E-14	1.547157E-15
4.166280E+03	9.928758E-14	1.538001E-15
4.168590E+03	9.893474E-14	1.527545E-15
4.170900E+03	9.862313E-14	1.507079E-15
4.173210E+03	9.835274E-14	1.495922E-15
4.175520E+03	9.810104E-14	1.473544E-15
4.177830E+03	9.785491E-14	1.448115E-15
4.180140E+03	9.763119E-14	1.437464E-15
4.182450E+03	9.745982E-14	1.429519E-15
4.184760E+03	9.728648E-14	1.402436E-15
4.187070E+03	9.714110E-14	1.399129E-15
4.189370E+03	9.701070E-14	1.405235E-15
4.191680E+03	9.687257E-14	1.409142E-15
4.193990E+03	9.677545E-14	1.417714E-15
4.196300E+03	9.666697E-14	1.411665E-15
4.198610E+03	9.654340E-14	1.402650E-15
4.200920E+03	9.644399E-14	1.394614E-15
4.203230E+03	9.635190E-14	1.382883E-15
4.205540E+03	9.624659E-14	1.360783E-15
4.207850E+03	9.614860E-14	1.321426E-15
4.210160E+03	9.600008E-14	1.311668E-15
4.212470E+03	9.585145E-14	1.292356E-15
4.214780E+03	9.570829E-14	1.276976E-15
4.217090E+03	9.557247E-14	1.269936E-15
4.219400E+03	9.542533E-14	1.280139E-15
4.221710E+03	9.525200E-14	1.277849E-15
4.224020E+03	9.509532E-14	1.279065E-15
4.226330E+03	9.497762E-14	1.313775E-15
4.228640E+03	9.488397E-14	1.341637E-15
4.230950E+03	9.476597E-14	1.354121E-15
4.233260E+03	9.467945E-14	1.348559E-15
4.235570E+03	9.464669E-14	1.341192E-15
4.237880E+03	9.458956E-14	1.307682E-15
4.240190E+03	9.455826E-14	1.268913E-15
4.242500E+03	9.453605E-14	1.223605E-15
4.244810E+03	9.451176E-14	1.211555E-15
4.247120E+03	9.451140E-14	1.207487E-15
4.249430E+03	9.453679E-14	1.203556E-15
4.251740E+03	9.458604E-14	1.197761E-15
4.254050E+03	9.465913E-14	1.216140E-15
4.256360E+03	9.477272E-14	1.225708E-15
4.258670E+03	9.488785E-14	1.253058E-15
4.260980E+03	9.497488E-14	1.249545E-15
4.263290E+03	9.509308E-14	1.254424E-15
4.265590E+03	9.522036E-14	1.262375E-15
4.267900E+03	9.531941E-14	1.256180E-15
4.270210E+03	9.544034E-14	1.253696E-15
4.272520E+03	9.556094E-14	1.243242E-15
4.274830E+03	9.566087E-14	1.195535E-15
4.277140E+03	9.574016E-14	1.143821E-15
4.279450E+03	9.582283E-14	1.099247E-15
4.281760E+03	9.590334E-14	1.096550E-15
4.284070E+03	9.597984E-14	1.090079E-15
4.286380E+03	9.601913E-14	1.095534E-15
4.288690E+03	9.604338E-14	1.123211E-15
4.291000E+03	9.603233E-14	1.120651E-15
4.293310E+03	9.598417E-14	1.118704E-15
4.295620E+03	9.592105E-14	1.129520E-15
4.297930E+03	9.584851E-14	1.146069E-15
4.300240E+03	9.574263E-14	1.141001E-15
4.302550E+03	9.560345E-14	1.117058E-15
4.304860E+03	9.544021E-14	1.098917E-15
4.307170E+03	9.525476E-14	1.085924E-15
4.309480E+03	9.499202E-14	1.084182E-15
4.311790E+03	9.474024E-14	1.070439E-15
4.314100E+03	9.447553E-14	1.055535E-15
4.316410E+03	9.419610E-14	1.041467E-15
4.318720E+03	9.389643E-14	1.028195E-15
4.321030E+03	9.358024E-14	1.024357E-15
4.323340E+03	9.328054E-14	1.029314E-15
4.325650E+03	9.301013E-14	1.025095E-15
4.327960E+03	9.275250E-14	1.021487E-15
4.330270E+03	9.248567E-14	1.015356E-15
4.332580E+03	9.222063E-14	1.017703E-15
4.334890E+03	9.196653E-14	1.011833E-15
4.337200E+03	9.172153E-14	9.971376E-16
4.339510E+03	9.147650E-14	9.914217E-16
4.341810E+03	9.124622E-14	9.877552E-16
4.344120E+03	9.100476E-14	9.734406E-16
4.346430E+03	9.078152E-14	9.499027E-16
4.348740E+03	9.056554E-14	9.495525E-16
4.351050E+03	9.034405E-14	9.470568E-16
4.353360E+03	9.011888E-14	9.464407E-16
4.355670E+03	8.991554E-14	9.252339E-16
4.357980E+03	8.971034E-14	9.497651E-16
4.360290E+03	8.952695E-14	9.570757E-16
4.362600E+03	8.931621E-14	9.534601E-16
4.364910E+03	8.910364E-14	9.507466E-16
4.367220E+03	8.892013E-14	9.500200E-16
4.369530E+03	8.872205E-14	9.580293E-16
4.371840E+03	8.853666E-14	9.611847E-16
4.374150E+03	8.834398E-14	9.612287E-16
4.376460E+03	8.816580E-14	9.606551E-16
4.378770E+03	8.801479E-14	9.594578E-16
4.381080E+03	8.787823E-14	9.554780E-16
4.383390E+03	8.775429E-14	9.539230E-16
4.385700E+03	8.762847E-14	9.455608E-16
4.388010E+03	8.753697E-14	9.498169E-16
4.390320E+03	8.745624E-14	9.522924E-16
4.392630E+03	8.736275E-14	9.555174E-16
4.394940E+03	8.729086E-14	9.561091E-16
4.397250E+03	8.725680E-14	9.572600E-16
4.399560E+03	8.719913E-14	9.600846E-16
4.401870E+03	8.714316E-14	9.576108E-16
