#wls	flux	fluxerr
1.600000E+03	9.313974E-17	8.457565E-17
1.640000E+03	9.171640E-17	8.142037E-17
1.680000E+03	9.018439E-17	7.823351E-17
1.720000E+03	8.856734E-17	7.505510E-17
1.760000E+03	8.685492E-17	7.189486E-17
1.800000E+03	8.513263E-17	6.883978E-17
1.840000E+03	8.344928E-17	6.593981E-17
1.880000E+03	8.182381E-17	6.321628E-17
1.920000E+03	8.036080E-17	6.075147E-17
1.960000E+03	7.909494E-17	5.856652E-17
2.000000E+03	7.813919E-17	5.673487E-17
2.040000E+03	7.753935E-17	5.527348E-17
2.080000E+03	7.738081E-17	5.422290E-17
2.120000E+03	7.778463E-17	5.364259E-17
2.160000E+03	7.880875E-17	5.354288E-17
2.200000E+03	8.058007E-17	5.397805E-17
2.240000E+03	8.312805E-17	5.493434E-17
2.280000E+03	8.661435E-17	5.648520E-17
2.320000E+03	9.113400E-17	5.865836E-17
2.360000E+03	9.673936E-17	6.145509E-17
2.400000E+03	1.035417E-16	6.491696E-17
2.440000E+03	1.115556E-16	6.902891E-17
2.480000E+03	1.208864E-16	7.384000E-17
2.520000E+03	1.314768E-16	7.930799E-17
2.560000E+03	1.432556E-16	8.539429E-17
2.600000E+03	1.561503E-16	9.206609E-17
2.640000E+03	1.700547E-16	9.926491E-17
2.680000E+03	1.847255E-16	1.068274E-16
2.720000E+03	1.999591E-16	1.145783E-16
2.760000E+03	2.156196E-16	1.223446E-16
2.800000E+03	2.315933E-16	1.299337E-16
2.840000E+03	2.477996E-16	1.371448E-16
2.880000E+03	2.639556E-16	1.436478E-16
2.920000E+03	2.803002E-16	1.493903E-16
2.960000E+03	2.967281E-16	1.541261E-16
3.000000E+03	3.133490E-16	1.577273E-16
3.010000E+03	3.175561E-16	1.584401E-16
3.020000E+03	3.217411E-16	1.590513E-16
3.030000E+03	3.259971E-16	1.596042E-16
3.040000E+03	3.303267E-16	1.600968E-16
3.050000E+03	3.346396E-16	1.604826E-16
3.060000E+03	3.390308E-16	1.608048E-16
3.070000E+03	3.435030E-16	1.610614E-16
3.080000E+03	3.479648E-16	1.612067E-16
3.090000E+03	3.524174E-16	1.612398E-16
3.100000E+03	3.570539E-16	1.612464E-16
3.110000E+03	3.616865E-16	1.611378E-16
3.120000E+03	3.664132E-16	1.609560E-16
3.130000E+03	3.712371E-16	1.606992E-16
3.140000E+03	3.760635E-16	1.603239E-16
3.150000E+03	3.809918E-16	1.598709E-16
3.160000E+03	3.860249E-16	1.593385E-16
3.170000E+03	3.911652E-16	1.587249E-16
3.180000E+03	3.964152E-16	1.580284E-16
3.190000E+03	4.017772E-16	1.572473E-16
3.200000E+03	4.071528E-16	1.563413E-16
3.210000E+03	4.127441E-16	1.553863E-16
3.220000E+03	4.183516E-16	1.543043E-16
3.230000E+03	4.241784E-16	1.531690E-16
3.240000E+03	4.301248E-16	1.519410E-16
3.250000E+03	4.361913E-16	1.506188E-16
3.260000E+03	4.422753E-16	1.491667E-16
3.270000E+03	4.486853E-16	1.476875E-16
3.280000E+03	4.551119E-16	1.460765E-16
3.290000E+03	4.617610E-16	1.444004E-16
3.300000E+03	4.685278E-16	1.426249E-16
3.310000E+03	4.754101E-16	1.407502E-16
3.320000E+03	4.824050E-16	1.387769E-16
3.330000E+03	4.897205E-16	1.367651E-16
3.340000E+03	4.970366E-16	1.346257E-16
3.350000E+03	5.045601E-16	1.324192E-16
3.360000E+03	5.122862E-16	1.301464E-16
3.370000E+03	5.201022E-16	1.277822E-16
3.380000E+03	5.281077E-16	1.253572E-16
3.390000E+03	5.362949E-16	1.228744E-16
3.400000E+03	5.445463E-16	1.203143E-16
3.410000E+03	5.530668E-16	1.177308E-16
3.420000E+03	5.616277E-16	1.150832E-16
3.430000E+03	5.703222E-16	1.124026E-16
3.440000E+03	5.791337E-16	1.096974E-16
3.450000E+03	5.881520E-16	1.069963E-16
3.460000E+03	5.971370E-16	1.042684E-16
3.470000E+03	6.062819E-16	1.015628E-16
3.480000E+03	6.154494E-16	9.886956E-17
3.490000E+03	6.246077E-16	9.619828E-17
3.500000E+03	6.338313E-16	9.357421E-17
3.510000E+03	6.429733E-16	9.098868E-17
3.520000E+03	6.521029E-16	8.846510E-17
3.530000E+03	6.611783E-16	8.600981E-17
3.540000E+03	6.700481E-16	8.361531E-17
3.550000E+03	6.787797E-16	8.130220E-17
3.560000E+03	6.873328E-16	7.907611E-17
3.570000E+03	6.957780E-16	7.695448E-17
3.580000E+03	7.038666E-16	7.491846E-17
3.590000E+03	7.116786E-16	7.298558E-17
3.600000E+03	7.192972E-16	7.116995E-17
3.610000E+03	7.265989E-16	6.945959E-17
3.620000E+03	7.335709E-16	6.785012E-17
3.630000E+03	7.403058E-16	6.634370E-17
3.640000E+03	7.467909E-16	6.492994E-17
3.650000E+03	7.529122E-16	6.358883E-17
3.660000E+03	7.587620E-16	6.231868E-17
3.670000E+03	7.643306E-16	6.111078E-17
3.680000E+03	7.697111E-16	5.996763E-17
3.690000E+03	7.747099E-16	5.887310E-17
3.700000E+03	7.795428E-16	5.784663E-17
3.710000E+03	7.841568E-16	5.688935E-17
3.720000E+03	7.886337E-16	5.601334E-17
3.730000E+03	7.931959E-16	5.523859E-17
3.740000E+03	7.980268E-16	5.457738E-17
3.750000E+03	8.033709E-16	5.403962E-17
3.760000E+03	8.095333E-16	5.363130E-17
3.770000E+03	8.167904E-16	5.334812E-17
3.780000E+03	8.257362E-16	5.319955E-17
3.790000E+03	8.368346E-16	5.318122E-17
3.800000E+03	8.504213E-16	5.327764E-17
3.810000E+03	8.672992E-16	5.350106E-17
3.820000E+03	8.878703E-16	5.383755E-17
3.830000E+03	9.128159E-16	5.429031E-17
3.840000E+03	9.427442E-16	5.485870E-17
3.850000E+03	9.782621E-16	5.554409E-17
3.860000E+03	1.019955E-15	5.635026E-17
3.870000E+03	1.068450E-15	5.728876E-17
3.880000E+03	1.124201E-15	5.836881E-17
3.890000E+03	1.187424E-15	5.959731E-17
3.900000E+03	1.258333E-15	6.099396E-17
3.910000E+03	1.336908E-15	6.258039E-17
3.920000E+03	1.422503E-15	6.436371E-17
3.930000E+03	1.514536E-15	6.637071E-17
3.940000E+03	1.611832E-15	6.861579E-17
3.950000E+03	1.712701E-15	7.110203E-17
3.960000E+03	1.815350E-15	7.383372E-17
3.970000E+03	1.917636E-15	7.679614E-17
3.980000E+03	2.017313E-15	7.995374E-17
3.990000E+03	2.112320E-15	8.325066E-17
4.000000E+03	2.200638E-15	8.659516E-17
4.010000E+03	2.280382E-15	8.985751E-17
4.020000E+03	2.350270E-15	9.289496E-17
4.030000E+03	2.409315E-15	9.555322E-17
4.040000E+03	2.456315E-15	9.766264E-17
4.050000E+03	2.490945E-15	9.910297E-17
4.060000E+03	2.512213E-15	9.976146E-17
4.070000E+03	2.519619E-15	9.959010E-17
4.080000E+03	2.512657E-15	9.858888E-17
4.090000E+03	2.491267E-15	9.681626E-17
4.100000E+03	2.455593E-15	9.436558E-17
4.110000E+03	2.406531E-15	9.137014E-17
4.120000E+03	2.345909E-15	8.799041E-17
4.130000E+03	2.275852E-15	8.437473E-17
4.140000E+03	2.199166E-15	8.066849E-17
4.150000E+03	2.119014E-15	7.700169E-17
4.160000E+03	2.038875E-15	7.349133E-17
4.170000E+03	1.961728E-15	7.022240E-17
4.180000E+03	1.890527E-15	6.727441E-17
4.190000E+03	1.827769E-15	6.471106E-17
4.200000E+03	1.775297E-15	6.257822E-17
4.210000E+03	1.734625E-15	6.091559E-17
4.220000E+03	1.706773E-15	5.974715E-17
4.230000E+03	1.692479E-15	5.908509E-17
4.240000E+03	1.692341E-15	5.892817E-17
4.250000E+03	1.706905E-15	5.925792E-17
4.260000E+03	1.736755E-15	6.003867E-17
4.270000E+03	1.782347E-15	6.120844E-17
4.280000E+03	1.843982E-15	6.267380E-17
4.290000E+03	1.921671E-15	6.430499E-17
4.300000E+03	2.014934E-15	6.593111E-17
4.310000E+03	2.122552E-15	6.733728E-17
4.320000E+03	2.242407E-15	6.827449E-17
4.330000E+03	2.371029E-15	6.847546E-17
4.340000E+03	2.503643E-15	6.770982E-17
4.350000E+03	2.633701E-15	6.586362E-17
4.360000E+03	2.753204E-15	6.308606E-17
4.370000E+03	2.852441E-15	5.995044E-17
4.380000E+03	2.921273E-15	5.757624E-17
4.390000E+03	2.950344E-15	5.730672E-17
4.400000E+03	2.940944E-15	5.919681E-17
4.410000E+03	2.905008E-15	6.203878E-17
4.420000E+03	2.854953E-15	6.482351E-17
4.430000E+03	2.802858E-15	6.707929E-17
4.440000E+03	2.758957E-15	6.875009E-17
4.450000E+03	2.731912E-15	7.002122E-17
4.460000E+03	2.729130E-15	7.118225E-17
4.470000E+03	2.756727E-15	7.254134E-17
4.480000E+03	2.820426E-15	7.440239E-17
4.490000E+03	2.925501E-15	7.704302E-17
4.500000E+03	3.077266E-15	8.072954E-17
4.510000E+03	3.280562E-15	8.570863E-17
4.520000E+03	3.539388E-15	9.220098E-17
4.530000E+03	3.856287E-15	1.003948E-16
4.540000E+03	4.231211E-15	1.104099E-16
4.550000E+03	4.660834E-15	1.222527E-16
4.560000E+03	5.137314E-15	1.357552E-16
4.570000E+03	5.648132E-15	1.505314E-16
4.580000E+03	6.176362E-15	1.659411E-16
4.590000E+03	6.701529E-15	1.811191E-16
4.600000E+03	7.200662E-15	1.950513E-16
4.610000E+03	7.650167E-15	2.066913E-16
4.620000E+03	8.027103E-15	2.150784E-16
4.630000E+03	8.311309E-15	2.194586E-16
4.640000E+03	8.486012E-15	2.193237E-16
4.650000E+03	8.539866E-15	2.144693E-16
4.660000E+03	8.467587E-15	2.049972E-16
4.670000E+03	8.271292E-15	1.913713E-16
4.680000E+03	7.961186E-15	1.745393E-16
4.690000E+03	7.554599E-15	1.560006E-16
4.700000E+03	7.076024E-15	1.377878E-16
4.710000E+03	6.553994E-15	1.221753E-16
4.720000E+03	6.018364E-15	1.110310E-16
4.730000E+03	5.499094E-15	1.043677E-16
4.740000E+03	5.023839E-15	1.001981E-16
4.750000E+03	4.613703E-15	9.703066E-17
4.760000E+03	4.283134E-15	9.429166E-17
4.770000E+03	4.040845E-15	9.201520E-17
4.780000E+03	3.891251E-15	9.048587E-17
4.790000E+03	3.836242E-15	9.001857E-17
4.800000E+03	3.876040E-15	9.085953E-17
4.810000E+03	4.009372E-15	9.315348E-17
4.820000E+03	4.232080E-15	9.692633E-17
4.830000E+03	4.536281E-15	1.021266E-16
4.840000E+03	4.909028E-15	1.086532E-16
4.850000E+03	5.331974E-15	1.163724E-16
4.860000E+03	5.782148E-15	1.251022E-16
4.870000E+03	6.235180E-15	1.345430E-16
4.880000E+03	6.669067E-15	1.441943E-16
4.890000E+03	7.066740E-15	1.534012E-16
4.900000E+03	7.416702E-15	1.614865E-16
4.910000E+03	7.712190E-15	1.678804E-16
4.920000E+03	7.951175E-15	1.722879E-16
4.930000E+03	8.135855E-15	1.747881E-16
4.940000E+03	8.272625E-15	1.758319E-16
4.950000E+03	8.370635E-15	1.761097E-16
4.960000E+03	8.441353E-15	1.763416E-16
4.970000E+03	8.495150E-15	1.770428E-16
4.980000E+03	8.537195E-15	1.784338E-16
4.990000E+03	8.561967E-15	1.803437E-16
5.000000E+03	8.552313E-15	1.821879E-16
5.010000E+03	8.482993E-15	1.831174E-16
5.020000E+03	8.330101E-15	1.822909E-16
5.030000E+03	8.079273E-15	1.790840E-16
5.040000E+03	7.731504E-15	1.732755E-16
5.050000E+03	7.304571E-15	1.651114E-16
5.060000E+03	6.829811E-15	1.552288E-16
5.070000E+03	6.344526E-15	1.444947E-16
5.080000E+03	5.884437E-15	1.338118E-16
5.090000E+03	5.478555E-15	1.239578E-16
5.100000E+03	5.147373E-15	1.155252E-16
5.110000E+03	4.902810E-15	1.088986E-16
5.120000E+03	4.750332E-15	1.042881E-16
5.130000E+03	4.690017E-15	1.017643E-16
5.140000E+03	4.717811E-15	1.012878E-16
5.150000E+03	4.825342E-15	1.027081E-16
5.160000E+03	5.000104E-15	1.058013E-16
5.170000E+03	5.225982E-15	1.102939E-16
5.180000E+03	5.483664E-15	1.158569E-16
5.190000E+03	5.752317E-15	1.221397E-16
5.200000E+03	6.012282E-15	1.287921E-16
5.210000E+03	6.248310E-15	1.354798E-16
5.220000E+03	6.450838E-15	1.419205E-16
5.230000E+03	6.616586E-15	1.479152E-16
5.240000E+03	6.747478E-15	1.533158E-16
5.250000E+03	6.849464E-15	1.580099E-16
5.260000E+03	6.930569E-15	1.618838E-16
5.270000E+03	6.999288E-15	1.648032E-16
5.280000E+03	7.063984E-15	1.666878E-16
5.290000E+03	7.131737E-15	1.675861E-16
5.300000E+03	7.208160E-15	1.677129E-16
5.310000E+03	7.297073E-15	1.674247E-16
5.320000E+03	7.399945E-15	1.671208E-16
5.330000E+03	7.516274E-15	1.671524E-16
5.340000E+03	7.643659E-15	1.677556E-16
5.350000E+03	7.778399E-15	1.689854E-16
5.360000E+03	7.916261E-15	1.706822E-16
5.370000E+03	8.052503E-15	1.725416E-16
5.380000E+03	8.182362E-15	1.742139E-16
5.390000E+03	8.300761E-15	1.753429E-16
5.400000E+03	8.402460E-15	1.756039E-16
5.410000E+03	8.481974E-15	1.746822E-16
5.420000E+03	8.534079E-15	1.722404E-16
5.430000E+03	8.555086E-15	1.679678E-16
5.440000E+03	8.544933E-15	1.616615E-16
5.450000E+03	8.508713E-15	1.533323E-16
5.460000E+03	8.457343E-15	1.434609E-16
5.470000E+03	8.407773E-15	1.333225E-16
5.480000E+03	8.381799E-15	1.253506E-16
5.490000E+03	8.403475E-15	1.232366E-16
5.500000E+03	8.485952E-15	1.291638E-16
5.510000E+03	8.610504E-15	1.397603E-16
5.520000E+03	8.750847E-15	1.512940E-16
5.530000E+03	8.880513E-15	1.614471E-16
5.540000E+03	8.975765E-15	1.691773E-16
5.550000E+03	9.020386E-15	1.744054E-16
5.560000E+03	9.009029E-15	1.776439E-16
5.570000E+03	8.948373E-15	1.796365E-16
5.580000E+03	8.854100E-15	1.811085E-16
5.590000E+03	8.745868E-15	1.825712E-16
5.600000E+03	8.642367E-15	1.842125E-16
5.610000E+03	8.557158E-15	1.859634E-16
5.620000E+03	8.496413E-15	1.876183E-16
5.630000E+03	8.457054E-15	1.888756E-16
5.640000E+03	8.426994E-15	1.893875E-16
5.650000E+03	8.386416E-15	1.887846E-16
5.660000E+03	8.309328E-15	1.866718E-16
5.670000E+03	8.168470E-15	1.827074E-16
5.680000E+03	7.940562E-15	1.766456E-16
5.690000E+03	7.612362E-15	1.683943E-16
5.700000E+03	7.184952E-15	1.581034E-16
5.710000E+03	6.675578E-15	1.462068E-16
5.720000E+03	6.114779E-15	1.333652E-16
5.730000E+03	5.540570E-15	1.203906E-16
5.740000E+03	4.990951E-15	1.081039E-16
5.750000E+03	4.498486E-15	9.720697E-17
5.760000E+03	4.087017E-15	8.821850E-17
5.770000E+03	3.771569E-15	8.146045E-17
5.780000E+03	3.560709E-15	7.709694E-17
5.790000E+03	3.459497E-15	7.521073E-17
5.800000E+03	3.472205E-15	7.585800E-17
5.810000E+03	3.604301E-15	7.909444E-17
5.820000E+03	3.863706E-15	8.500558E-17
5.830000E+03	4.260464E-15	9.369913E-17
5.840000E+03	4.804295E-15	1.052415E-16
5.850000E+03	5.500321E-15	1.195731E-16
5.860000E+03	6.343767E-15	1.364045E-16
5.870000E+03	7.313551E-15	1.550996E-16
5.880000E+03	8.367778E-15	1.746594E-16
5.890000E+03	9.443077E-15	1.937871E-16
5.900000E+03	1.046055E-14	2.110410E-16
5.910000E+03	1.133754E-14	2.250830E-16
5.920000E+03	1.200351E-14	2.349000E-16
5.930000E+03	1.241441E-14	2.399357E-16
5.940000E+03	1.255999E-14	2.402141E-16
5.950000E+03	1.246136E-14	2.362872E-16
5.960000E+03	1.216285E-14	2.290497E-16
5.970000E+03	1.172004E-14	2.195709E-16
5.980000E+03	1.118816E-14	2.088673E-16
5.990000E+03	1.061482E-14	1.977404E-16
6.000000E+03	1.003685E-14	1.868207E-16
6.010000E+03	9.480839E-15	1.766202E-16
6.020000E+03	8.964554E-15	1.675262E-16
6.030000E+03	8.499425E-15	1.598549E-16
6.040000E+03	8.092703E-15	1.538285E-16
6.050000E+03	7.749301E-15	1.495201E-16
6.060000E+03	7.472999E-15	1.468820E-16
6.070000E+03	7.267296E-15	1.457491E-16
6.080000E+03	7.135663E-15	1.458232E-16
6.090000E+03	7.081522E-15	1.467432E-16
6.100000E+03	7.107754E-15	1.481297E-16
6.110000E+03	7.216131E-15	1.495497E-16
6.120000E+03	7.405993E-15	1.504530E-16
6.130000E+03	7.672835E-15	1.500979E-16
6.140000E+03	8.006167E-15	1.475030E-16
6.150000E+03	8.386871E-15	1.415616E-16
6.160000E+03	8.785486E-15	1.314740E-16
6.170000E+03	9.160797E-15	1.178576E-16
6.180000E+03	9.462028E-15	1.051614E-16
6.190000E+03	9.632934E-15	1.034907E-16
6.200000E+03	9.656495E-15	1.163674E-16
6.210000E+03	9.581218E-15	1.337239E-16
6.220000E+03	9.457436E-15	1.487894E-16
6.230000E+03	9.322912E-15	1.594480E-16
6.240000E+03	9.199261E-15	1.657143E-16
6.250000E+03	9.093758E-15	1.683025E-16
6.260000E+03	9.001772E-15	1.680111E-16
6.270000E+03	8.910079E-15	1.655560E-16
6.280000E+03	8.800572E-15	1.615303E-16
6.290000E+03	8.653334E-15	1.563833E-16
6.300000E+03	8.450061E-15	1.504645E-16
6.310000E+03	8.176661E-15	1.439855E-16
6.320000E+03	7.826616E-15	1.370041E-16
6.330000E+03	7.403220E-15	1.295275E-16
6.340000E+03	6.920315E-15	1.215795E-16
6.350000E+03	6.401128E-15	1.132551E-16
6.360000E+03	5.874309E-15	1.048487E-16
6.370000E+03	5.369932E-15	9.689028E-17
6.380000E+03	4.915180E-15	9.001399E-17
6.390000E+03	4.531598E-15	8.480874E-17
6.400000E+03	4.234483E-15	8.167492E-17
6.410000E+03	4.033706E-15	8.076501E-17
6.420000E+03	3.935435E-15	8.205676E-17
6.430000E+03	3.943647E-15	8.540644E-17
6.440000E+03	4.061596E-15	9.053610E-17
6.450000E+03	4.293084E-15	9.702274E-17
6.460000E+03	4.643125E-15	1.042884E-16
6.470000E+03	5.117990E-15	1.115753E-16
6.480000E+03	5.725261E-15	1.179495E-16
6.490000E+03	6.475174E-15	1.224168E-16
6.500000E+03	7.384559E-15	1.243087E-16
6.510000E+03	8.484700E-15	1.242779E-16
6.520000E+03	9.836009E-15	1.265189E-16
6.530000E+03	1.154720E-14	1.417866E-16
6.540000E+03	1.368183E-14	1.786337E-16
6.550000E+03	1.613038E-14	2.318371E-16
6.560000E+03	1.869503E-14	2.924616E-16
6.570000E+03	2.111892E-14	3.516295E-16
6.580000E+03	2.313731E-14	4.018235E-16
6.590000E+03	2.454093E-14	4.378377E-16
6.600000E+03	2.522233E-14	4.573995E-16
6.610000E+03	2.518560E-14	4.609261E-16
6.620000E+03	2.452526E-14	4.506704E-16
6.630000E+03	2.338932E-14	4.299867E-16
6.640000E+03	2.194068E-14	4.025966E-16
6.650000E+03	2.032894E-14	3.719276E-16
6.660000E+03	1.867581E-14	3.407896E-16
6.670000E+03	1.707000E-14	3.111131E-16
6.680000E+03	1.556880E-14	2.838996E-16
6.690000E+03	1.420481E-14	2.595701E-16
6.700000E+03	1.299178E-14	2.382050E-16
6.710000E+03	1.193023E-14	2.196538E-16
6.720000E+03	1.101264E-14	2.037050E-16
6.730000E+03	1.022696E-14	1.901261E-16
6.740000E+03	9.558908E-15	1.786399E-16
6.750000E+03	8.993690E-15	1.689856E-16
6.760000E+03	8.516580E-15	1.609172E-16
6.770000E+03	8.113616E-15	1.541745E-16
6.780000E+03	7.772049E-15	1.485296E-16
6.790000E+03	7.479949E-15	1.437818E-16
6.800000E+03	7.226732E-15	1.397398E-16
6.810000E+03	7.003006E-15	1.362486E-16
6.820000E+03	6.801301E-15	1.332033E-16
6.830000E+03	6.615949E-15	1.305134E-16
6.840000E+03	6.443182E-15	1.281205E-16
6.850000E+03	6.281062E-15	1.259852E-16
6.860000E+03	6.129239E-15	1.240545E-16
6.870000E+03	5.988896E-15	1.222914E-16
6.880000E+03	5.861925E-15	1.206741E-16
6.890000E+03	5.750990E-15	1.191919E-16
6.900000E+03	5.658763E-15	1.178612E-16
6.910000E+03	5.587751E-15	1.167322E-16
6.920000E+03	5.539715E-15	1.158602E-16
6.930000E+03	5.515669E-15	1.153143E-16
6.940000E+03	5.515431E-15	1.151537E-16
6.950000E+03	5.537687E-15	1.154006E-16
6.960000E+03	5.580015E-15	1.160504E-16
6.970000E+03	5.638794E-15	1.170651E-16
6.980000E+03	5.709419E-15	1.183583E-16
6.990000E+03	5.786674E-15	1.198206E-16
7.000000E+03	5.864674E-15	1.213213E-16
7.010000E+03	5.937120E-15	1.226993E-16
7.020000E+03	5.998330E-15	1.238105E-16
7.030000E+03	6.043155E-15	1.245374E-16
7.040000E+03	6.067831E-15	1.247930E-16
7.050000E+03	6.070304E-15	1.245440E-16
7.060000E+03	6.050753E-15	1.238141E-16
7.070000E+03	6.011423E-15	1.226570E-16
7.080000E+03	5.956701E-15	1.211791E-16
7.090000E+03	5.892503E-15	1.195292E-16
7.100000E+03	5.825723E-15	1.178691E-16
7.110000E+03	5.763694E-15	1.163788E-16
7.120000E+03	5.713507E-15	1.152321E-16
7.130000E+03	5.681212E-15	1.145536E-16
7.140000E+03	5.671948E-15	1.144380E-16
7.150000E+03	5.688935E-15	1.149289E-16
7.160000E+03	5.733982E-15	1.160137E-16
7.170000E+03	5.807310E-15	1.176522E-16
7.180000E+03	5.907525E-15	1.197944E-16
7.190000E+03	6.032275E-15	1.223827E-16
7.200000E+03	6.178007E-15	1.253573E-16
7.210000E+03	6.340789E-15	1.286535E-16
7.220000E+03	6.516318E-15	1.321646E-16
7.230000E+03	6.700119E-15	1.357652E-16
7.240000E+03	6.887548E-15	1.393226E-16
7.250000E+03	7.073544E-15	1.426848E-16
7.260000E+03	7.252528E-15	1.457157E-16
7.270000E+03	7.417648E-15	1.482944E-16
7.280000E+03	7.560975E-15	1.503021E-16
7.290000E+03	7.673727E-15	1.516384E-16
7.300000E+03	7.747246E-15	1.522153E-16
7.310000E+03	7.774461E-15	1.519349E-16
7.320000E+03	7.751325E-15	1.507305E-16
7.330000E+03	7.677773E-15	1.485802E-16
7.340000E+03	7.558471E-15	1.455045E-16
7.350000E+03	7.402213E-15	1.416175E-16
7.360000E+03	7.220338E-15	1.371375E-16
7.370000E+03	7.025439E-15	1.323535E-16
7.380000E+03	6.829704E-15	1.275958E-16
7.390000E+03	6.643578E-15	1.231627E-16
7.400000E+03	6.474941E-15	1.192443E-16
7.410000E+03	6.328737E-15	1.159204E-16
7.420000E+03	6.206931E-15	1.131350E-16
7.430000E+03	6.108272E-15	1.106575E-16
7.440000E+03	6.029044E-15	1.081443E-16
7.450000E+03	5.963061E-15	1.051779E-16
7.460000E+03	5.902050E-15	1.013085E-16
7.470000E+03	5.836114E-15	9.618985E-17
7.480000E+03	5.754458E-15	8.978472E-17
7.490000E+03	5.645978E-15	8.266876E-17
7.500000E+03	5.500873E-15	7.643125E-17
7.510000E+03	5.311815E-15	7.348014E-17
7.520000E+03	5.085162E-15	7.412036E-17
7.530000E+03	4.842113E-15	7.602434E-17
7.540000E+03	4.602132E-15	7.779395E-17
7.550000E+03	4.380474E-15	7.916410E-17
7.560000E+03	4.188214E-15	8.043877E-17
7.570000E+03	4.032745E-15	8.199897E-17
7.580000E+03	3.918142E-15	8.403526E-17
7.590000E+03	3.846239E-15	8.654965E-17
7.600000E+03	3.816648E-15	8.944163E-17
7.610000E+03	3.827455E-15	9.258666E-17
7.620000E+03	3.875404E-15	9.587281E-17
7.630000E+03	3.956093E-15	9.921078E-17
7.640000E+03	4.064441E-15	1.025387E-16
7.650000E+03	4.194879E-15	1.058201E-16
7.660000E+03	4.342058E-15	1.090360E-16
7.670000E+03	4.501348E-15	1.121688E-16
7.680000E+03	4.668927E-15	1.152060E-16
7.690000E+03	4.841391E-15	1.181252E-16
7.700000E+03	5.016107E-15	1.208863E-16
7.710000E+03	5.190195E-15	1.234112E-16
7.720000E+03	5.360375E-15	1.255797E-16
7.730000E+03	5.522578E-15	1.272180E-16
7.740000E+03	5.671966E-15	1.281391E-16
7.750000E+03	5.803306E-15	1.281975E-16
7.760000E+03	5.911144E-15	1.273208E-16
