#wls	flux	fluxerr
1.600000E+03	1.025367E-17	1.136476E-17
1.640000E+03	1.024413E-17	1.126328E-17
1.680000E+03	1.025059E-17	1.117944E-17
1.720000E+03	1.026367E-17	1.110296E-17
1.760000E+03	1.029157E-17	1.104272E-17
1.800000E+03	1.033144E-17	1.099552E-17
1.840000E+03	1.039732E-17	1.097608E-17
1.880000E+03	1.048683E-17	1.098138E-17
1.920000E+03	1.059802E-17	1.100890E-17
1.960000E+03	1.074549E-17	1.107321E-17
2.000000E+03	1.092237E-17	1.116640E-17
2.040000E+03	1.114377E-17	1.130300E-17
2.080000E+03	1.140878E-17	1.148093E-17
2.120000E+03	1.171663E-17	1.169818E-17
2.160000E+03	1.208331E-17	1.196932E-17
2.200000E+03	1.251424E-17	1.229794E-17
2.240000E+03	1.300341E-17	1.267623E-17
2.280000E+03	1.356783E-17	1.311874E-17
2.320000E+03	1.420726E-17	1.362276E-17
2.360000E+03	1.492713E-17	1.419082E-17
2.400000E+03	1.573922E-17	1.483100E-17
2.440000E+03	1.664241E-17	1.553865E-17
2.480000E+03	1.764841E-17	1.632058E-17
2.520000E+03	1.876226E-17	1.717658E-17
2.560000E+03	1.998085E-17	1.809813E-17
2.600000E+03	2.130723E-17	1.908155E-17
2.640000E+03	2.276073E-17	2.013640E-17
2.680000E+03	2.432779E-17	2.124143E-17
2.720000E+03	2.601894E-17	2.239534E-17
2.760000E+03	2.783620E-17	2.358754E-17
2.800000E+03	2.978118E-17	2.480526E-17
2.840000E+03	3.185511E-17	2.603356E-17
2.880000E+03	3.405888E-17	2.725536E-17
2.920000E+03	3.639298E-17	2.845147E-17
2.960000E+03	3.885740E-17	2.960074E-17
3.000000E+03	4.146416E-17	3.068965E-17
3.010000E+03	4.213208E-17	3.094521E-17
3.020000E+03	4.280632E-17	3.119332E-17
3.030000E+03	4.349992E-17	3.144303E-17
3.040000E+03	4.418666E-17	3.167500E-17
3.050000E+03	4.489281E-17	3.190779E-17
3.060000E+03	4.560514E-17	3.213152E-17
3.070000E+03	4.632353E-17	3.234575E-17
3.080000E+03	4.704784E-17	3.255008E-17
3.090000E+03	4.779187E-17	3.275365E-17
3.100000E+03	4.852773E-17	3.293694E-17
3.110000E+03	4.928328E-17	3.311866E-17
3.120000E+03	5.004441E-17	3.328885E-17
3.130000E+03	5.081093E-17	3.344709E-17
3.140000E+03	5.158265E-17	3.359301E-17
3.150000E+03	5.235937E-17	3.372623E-17
3.160000E+03	5.315577E-17	3.385587E-17
3.170000E+03	5.394195E-17	3.396257E-17
3.180000E+03	5.474761E-17	3.406494E-17
3.190000E+03	5.555760E-17	3.415318E-17
3.200000E+03	5.637163E-17	3.422696E-17
3.210000E+03	5.718944E-17	3.428602E-17
3.220000E+03	5.802642E-17	3.433938E-17
3.230000E+03	5.885099E-17	3.436817E-17
3.240000E+03	5.969437E-17	3.439075E-17
3.250000E+03	6.054053E-17	3.439764E-17
3.260000E+03	6.138911E-17	3.438870E-17
3.270000E+03	6.223976E-17	3.436385E-17
3.280000E+03	6.310861E-17	3.433202E-17
3.290000E+03	6.396242E-17	3.427518E-17
3.300000E+03	6.483395E-17	3.421127E-17
3.310000E+03	6.570631E-17	3.413142E-17
3.320000E+03	6.657912E-17	3.403580E-17
3.330000E+03	6.745201E-17	3.392462E-17
3.340000E+03	6.832462E-17	3.379819E-17
3.350000E+03	6.921394E-17	3.366532E-17
3.360000E+03	7.008502E-17	3.350948E-17
3.370000E+03	7.097239E-17	3.334799E-17
3.380000E+03	7.185839E-17	3.317301E-17
3.390000E+03	7.276057E-17	3.299329E-17
3.400000E+03	7.364316E-17	3.279335E-17
3.410000E+03	7.452368E-17	3.258222E-17
3.420000E+03	7.542017E-17	3.236864E-17
3.430000E+03	7.631459E-17	3.214563E-17
3.440000E+03	7.720694E-17	3.191433E-17
3.450000E+03	7.809728E-17	3.167591E-17
3.460000E+03	7.900432E-17	3.143905E-17
3.470000E+03	7.989126E-17	3.119020E-17
3.480000E+03	8.079567E-17	3.094546E-17
3.490000E+03	8.169944E-17	3.069891E-17
3.500000E+03	8.260313E-17	3.045206E-17
3.510000E+03	8.352649E-17	3.021337E-17
3.520000E+03	8.443236E-17	2.997054E-17
3.530000E+03	8.535992E-17	2.973886E-17
3.540000E+03	8.629129E-17	2.951305E-17
3.550000E+03	8.722782E-17	2.929469E-17
3.560000E+03	8.817105E-17	2.908537E-17
3.570000E+03	8.912275E-17	2.888663E-17
3.580000E+03	9.010461E-17	2.870626E-17
3.590000E+03	9.109938E-17	2.853929E-17
3.600000E+03	9.210960E-17	2.838714E-17
3.610000E+03	9.313814E-17	2.825121E-17
3.620000E+03	9.418820E-17	2.813282E-17
3.630000E+03	9.526340E-17	2.803326E-17
3.640000E+03	9.638805E-17	2.795970E-17
3.650000E+03	9.754659E-17	2.790739E-17
3.660000E+03	9.874403E-17	2.787758E-17
3.670000E+03	9.998597E-17	2.787151E-17
3.680000E+03	1.012995E-16	2.789620E-17
3.690000E+03	1.026498E-16	2.794143E-17
3.700000E+03	1.040865E-16	2.801999E-17
3.710000E+03	1.055969E-16	2.812755E-17
3.720000E+03	1.071901E-16	2.826553E-17
3.730000E+03	1.088758E-16	2.843542E-17
3.740000E+03	1.106865E-16	2.864443E-17
3.750000E+03	1.125894E-16	2.888277E-17
3.760000E+03	1.146406E-16	2.916339E-17
3.770000E+03	1.168299E-16	2.948221E-17
3.780000E+03	1.191699E-16	2.984075E-17
3.790000E+03	1.216964E-16	3.024632E-17
3.800000E+03	1.243752E-16	3.068867E-17
3.810000E+03	1.272656E-16	3.118070E-17
3.820000E+03	1.303554E-16	3.171756E-17
3.830000E+03	1.336552E-16	3.229997E-17
3.840000E+03	1.371996E-16	3.293443E-17
3.850000E+03	1.409455E-16	3.360867E-17
3.860000E+03	1.449504E-16	3.433454E-17
3.870000E+03	1.491922E-16	3.510483E-17
3.880000E+03	1.536717E-16	3.591785E-17
3.890000E+03	1.583871E-16	3.677125E-17
3.900000E+03	1.633334E-16	3.766197E-17
3.910000E+03	1.685327E-16	3.859310E-17
3.920000E+03	1.739448E-16	3.955343E-17
3.930000E+03	1.795552E-16	4.053767E-17
3.940000E+03	1.853461E-16	4.153979E-17
3.950000E+03	1.912971E-16	4.255313E-17
3.960000E+03	1.974192E-16	4.357801E-17
3.970000E+03	2.036196E-16	4.459173E-17
3.980000E+03	2.099412E-16	4.560151E-17
3.990000E+03	2.163227E-16	4.659156E-17
4.000000E+03	2.227368E-16	4.755368E-17
4.010000E+03	2.291961E-16	4.848797E-17
4.020000E+03	2.355997E-16	4.937048E-17
4.030000E+03	2.420039E-16	5.021044E-17
4.040000E+03	2.483517E-16	5.099307E-17
4.050000E+03	2.546287E-16	5.171257E-17
4.060000E+03	2.608255E-16	5.236399E-17
4.070000E+03	2.669809E-16	5.295188E-17
4.080000E+03	2.730101E-16	5.345594E-17
4.090000E+03	2.790074E-16	5.389116E-17
4.100000E+03	2.849419E-16	5.424744E-17
4.110000E+03	2.908317E-16	5.452402E-17
4.120000E+03	2.967004E-16	5.472063E-17
4.130000E+03	3.025764E-16	5.483736E-17
4.140000E+03	3.085405E-16	5.488297E-17
4.150000E+03	3.145823E-16	5.484885E-17
4.160000E+03	3.207411E-16	5.473464E-17
4.170000E+03	3.270582E-16	5.453932E-17
4.180000E+03	3.335756E-16	5.426094E-17
4.190000E+03	3.403353E-16	5.389640E-17
4.200000E+03	3.474304E-16	5.344927E-17
4.210000E+03	3.547948E-16	5.289727E-17
4.220000E+03	3.625686E-16	5.224871E-17
4.230000E+03	3.707285E-16	5.148620E-17
4.240000E+03	3.792975E-16	5.059893E-17
4.250000E+03	3.883477E-16	4.958220E-17
4.260000E+03	3.977731E-16	4.840870E-17
4.270000E+03	4.076857E-16	4.708045E-17
4.280000E+03	4.179556E-16	4.557292E-17
4.290000E+03	4.286783E-16	4.389232E-17
4.300000E+03	4.397612E-16	4.203093E-17
4.310000E+03	4.511616E-16	3.999803E-17
4.320000E+03	4.628940E-16	3.782397E-17
4.330000E+03	4.747745E-16	3.554647E-17
4.340000E+03	4.868781E-16	3.325916E-17
4.350000E+03	4.990175E-16	3.108426E-17
4.360000E+03	5.112845E-16	2.922454E-17
4.370000E+03	5.235789E-16	2.793287E-17
4.380000E+03	5.358832E-16	2.749679E-17
4.390000E+03	5.481912E-16	2.814638E-17
4.400000E+03	5.605737E-16	2.995500E-17
4.410000E+03	5.728772E-16	3.280773E-17
4.420000E+03	5.852590E-16	3.651150E-17
4.430000E+03	5.975823E-16	4.084651E-17
4.440000E+03	6.100325E-16	4.564596E-17
4.450000E+03	6.225660E-16	5.077007E-17
4.460000E+03	6.352167E-16	5.612009E-17
4.470000E+03	6.480117E-16	6.162440E-17
4.480000E+03	6.609653E-16	6.723032E-17
4.490000E+03	6.741610E-16	7.290698E-17
4.500000E+03	6.874027E-16	7.860378E-17
4.510000E+03	7.008160E-16	8.431145E-17
4.520000E+03	7.141516E-16	8.998213E-17
4.530000E+03	7.274911E-16	9.561027E-17
4.540000E+03	7.406274E-16	1.011562E-16
4.550000E+03	7.534240E-16	1.065891E-16
4.560000E+03	7.657320E-16	1.118763E-16
4.570000E+03	7.773963E-16	1.169841E-16
4.580000E+03	7.882624E-16	1.218784E-16
4.590000E+03	7.981841E-16	1.265262E-16
4.600000E+03	8.071282E-16	1.309126E-16
4.610000E+03	8.147920E-16	1.349796E-16
4.620000E+03	8.212899E-16	1.387372E-16
4.630000E+03	8.263782E-16	1.421372E-16
4.640000E+03	8.302401E-16	1.452046E-16
4.650000E+03	8.328003E-16	1.479217E-16
4.660000E+03	8.340195E-16	1.502777E-16
4.670000E+03	8.341837E-16	1.523217E-16
4.680000E+03	8.333138E-16	1.540570E-16
4.690000E+03	8.315517E-16	1.555101E-16
4.700000E+03	8.290561E-16	1.567121E-16
4.710000E+03	8.259959E-16	1.576971E-16
4.720000E+03	8.225439E-16	1.585012E-16
4.730000E+03	8.188704E-16	1.591606E-16
4.740000E+03	8.151375E-16	1.597109E-16
4.750000E+03	8.114942E-16	1.601855E-16
4.760000E+03	8.081617E-16	1.606324E-16
4.770000E+03	8.050708E-16	1.610425E-16
4.780000E+03	8.024002E-16	1.614555E-16
4.790000E+03	8.003016E-16	1.619062E-16
4.800000E+03	7.986379E-16	1.623710E-16
4.810000E+03	7.975115E-16	1.628741E-16
4.820000E+03	7.969983E-16	1.634346E-16
4.830000E+03	7.968929E-16	1.640134E-16
4.840000E+03	7.972280E-16	1.646198E-16
4.850000E+03	7.980161E-16	1.652590E-16
4.860000E+03	7.989990E-16	1.658794E-16
4.870000E+03	8.002455E-16	1.664970E-16
4.880000E+03	8.014767E-16	1.670553E-16
4.890000E+03	8.026619E-16	1.675488E-16
4.900000E+03	8.037678E-16	1.679717E-16
4.910000E+03	8.045122E-16	1.682657E-16
4.920000E+03	8.049538E-16	1.684437E-16
4.930000E+03	8.048284E-16	1.684510E-16
4.940000E+03	8.041359E-16	1.682881E-16
4.950000E+03	8.028917E-16	1.679590E-16
4.960000E+03	8.008870E-16	1.674204E-16
4.970000E+03	7.981821E-16	1.666857E-16
4.980000E+03	7.947799E-16	1.657564E-16
4.990000E+03	7.907884E-16	1.646558E-16
5.000000E+03	7.861031E-16	1.633630E-16
5.010000E+03	7.808819E-16	1.619117E-16
5.020000E+03	7.752245E-16	1.603233E-16
5.030000E+03	7.692480E-16	1.586226E-16
5.040000E+03	7.630825E-16	1.568368E-16
5.050000E+03	7.568658E-16	1.549943E-16
5.060000E+03	7.507381E-16	1.531232E-16
5.070000E+03	7.447645E-16	1.512360E-16
5.080000E+03	7.392183E-16	1.493866E-16
5.090000E+03	7.341428E-16	1.475814E-16
5.100000E+03	7.295680E-16	1.458235E-16
5.110000E+03	7.257145E-16	1.441534E-16
5.120000E+03	7.225042E-16	1.425508E-16
5.130000E+03	7.201134E-16	1.410452E-16
5.140000E+03	7.184247E-16	1.396072E-16
5.150000E+03	7.175053E-16	1.382432E-16
5.160000E+03	7.173369E-16	1.369417E-16
5.170000E+03	7.178859E-16	1.356879E-16
5.180000E+03	7.191063E-16	1.344638E-16
5.190000E+03	7.209427E-16	1.332494E-16
5.200000E+03	7.232668E-16	1.320105E-16
5.210000E+03	7.261457E-16	1.307488E-16
5.220000E+03	7.293799E-16	1.294170E-16
5.230000E+03	7.330367E-16	1.280153E-16
5.240000E+03	7.369208E-16	1.264975E-16
5.250000E+03	7.410407E-16	1.248530E-16
5.260000E+03	7.453437E-16	1.230605E-16
5.270000E+03	7.497833E-16	1.210994E-16
5.280000E+03	7.542523E-16	1.189395E-16
5.290000E+03	7.588503E-16	1.165836E-16
5.300000E+03	7.634822E-16	1.140032E-16
5.310000E+03	7.680577E-16	1.111716E-16
5.320000E+03	7.726259E-16	1.080832E-16
5.330000E+03	7.771736E-16	1.047228E-16
5.340000E+03	7.816915E-16	1.010762E-16
5.350000E+03	7.861738E-16	9.713019E-17
5.360000E+03	7.905501E-16	9.286490E-17
5.370000E+03	7.949570E-16	8.828652E-17
5.380000E+03	7.992602E-16	8.337152E-17
5.390000E+03	8.035315E-16	7.812315E-17
5.400000E+03	8.077741E-16	7.254123E-17
5.410000E+03	8.119895E-16	6.663259E-17
5.420000E+03	8.161059E-16	6.041008E-17
5.430000E+03	8.201826E-16	5.391651E-17
5.440000E+03	8.242695E-16	4.722530E-17
5.450000E+03	8.281963E-16	4.045882E-17
5.460000E+03	8.319849E-16	3.387395E-17
5.470000E+03	8.355019E-16	2.796668E-17
5.480000E+03	8.388083E-16	2.368316E-17
5.490000E+03	8.416833E-16	2.234649E-17
5.500000E+03	8.441357E-16	2.459729E-17
5.510000E+03	8.461423E-16	2.956070E-17
5.520000E+03	8.476991E-16	3.596375E-17
5.530000E+03	8.487333E-16	4.297238E-17
5.540000E+03	8.493053E-16	5.014712E-17
5.550000E+03	8.494016E-16	5.725280E-17
5.560000E+03	8.490063E-16	6.415699E-17
5.570000E+03	8.481055E-16	7.078078E-17
5.580000E+03	8.466224E-16	7.706929E-17
5.590000E+03	8.446939E-16	8.300457E-17
5.600000E+03	8.421295E-16	8.854982E-17
5.610000E+03	8.391597E-16	9.371807E-17
5.620000E+03	8.357617E-16	9.850392E-17
5.630000E+03	8.319331E-16	1.029078E-16
5.640000E+03	8.278256E-16	1.069527E-16
5.650000E+03	8.235453E-16	1.106607E-16
5.660000E+03	8.192208E-16	1.140601E-16
5.670000E+03	8.149385E-16	1.171760E-16
5.680000E+03	8.109349E-16	1.200573E-16
5.690000E+03	8.074001E-16	1.227491E-16
5.700000E+03	8.044778E-16	1.252913E-16
5.710000E+03	8.025124E-16	1.277565E-16
5.720000E+03	8.016055E-16	1.301805E-16
5.730000E+03	8.020491E-16	1.326301E-16
5.740000E+03	8.040084E-16	1.351518E-16
5.750000E+03	8.078260E-16	1.378216E-16
5.760000E+03	8.135830E-16	1.406711E-16
5.770000E+03	8.215269E-16	1.437588E-16
5.780000E+03	8.317546E-16	1.471155E-16
5.790000E+03	8.445220E-16	1.507983E-16
5.800000E+03	8.597949E-16	1.548107E-16
5.810000E+03	8.776222E-16	1.591676E-16
5.820000E+03	8.981417E-16	1.638977E-16
5.830000E+03	9.211750E-16	1.689688E-16
5.840000E+03	9.466925E-16	1.743726E-16
5.850000E+03	9.745445E-16	1.800756E-16
5.860000E+03	1.004455E-15	1.860176E-16
5.870000E+03	1.036246E-15	1.921534E-16
5.880000E+03	1.069631E-15	1.984146E-16
5.890000E+03	1.104290E-15	2.047252E-16
5.900000E+03	1.139807E-15	2.109883E-16
5.910000E+03	1.175925E-15	2.171360E-16
5.920000E+03	1.212237E-15	2.230711E-16
5.930000E+03	1.248633E-15	2.287510E-16
5.940000E+03	1.284691E-15	2.340759E-16
5.950000E+03	1.320319E-15	2.390068E-16
5.960000E+03	1.355302E-15	2.434833E-16
5.970000E+03	1.389792E-15	2.475115E-16
5.980000E+03	1.423504E-15	2.510212E-16
5.990000E+03	1.456829E-15	2.540623E-16
6.000000E+03	1.489688E-15	2.566037E-16
6.010000E+03	1.522355E-15	2.586764E-16
6.020000E+03	1.555014E-15	2.602977E-16
6.030000E+03	1.587849E-15	2.614866E-16
6.040000E+03	1.620900E-15	2.622425E-16
6.050000E+03	1.654393E-15	2.626000E-16
6.060000E+03	1.688251E-15	2.625526E-16
6.070000E+03	1.722551E-15	2.621282E-16
6.080000E+03	1.757146E-15	2.613335E-16
6.090000E+03	1.791771E-15	2.601751E-16
6.100000E+03	1.825902E-15	2.586444E-16
6.110000E+03	1.859145E-15	2.567771E-16
6.120000E+03	1.890855E-15	2.546011E-16
6.130000E+03	1.920148E-15	2.521402E-16
6.140000E+03	1.946335E-15	2.494701E-16
6.150000E+03	1.968558E-15	2.466616E-16
6.160000E+03	1.985840E-15	2.437770E-16
6.170000E+03	1.997553E-15	2.409135E-16
6.180000E+03	2.003060E-15	2.381378E-16
6.190000E+03	2.001894E-15	2.354880E-16
6.200000E+03	1.993632E-15	2.329368E-16
6.210000E+03	1.978339E-15	2.304371E-16
6.220000E+03	1.956028E-15	2.278726E-16
6.230000E+03	1.927220E-15	2.251430E-16
6.240000E+03	1.892494E-15	2.221308E-16
6.250000E+03	1.852592E-15	2.187318E-16
6.260000E+03	1.808243E-15	2.148502E-16
6.270000E+03	1.760507E-15	2.104507E-16
6.280000E+03	1.710218E-15	2.055000E-16
6.290000E+03	1.658563E-15	2.000382E-16
6.300000E+03	1.606214E-15	1.940739E-16
6.310000E+03	1.554033E-15	1.876654E-16
6.320000E+03	1.502912E-15	1.808968E-16
6.330000E+03	1.453547E-15	1.738450E-16
6.340000E+03	1.406549E-15	1.665876E-16
6.350000E+03	1.362349E-15	1.591864E-16
6.360000E+03	1.321492E-15	1.517177E-16
6.370000E+03	1.284344E-15	1.442335E-16
6.380000E+03	1.251109E-15	1.367623E-16
6.390000E+03	1.222107E-15	1.293370E-16
6.400000E+03	1.197502E-15	1.219640E-16
6.410000E+03	1.177405E-15	1.146338E-16
6.420000E+03	1.161794E-15	1.073148E-16
6.430000E+03	1.150681E-15	9.997155E-17
6.440000E+03	1.144177E-15	9.257188E-17
6.450000E+03	1.142022E-15	8.505185E-17
6.460000E+03	1.144122E-15	7.737252E-17
6.470000E+03	1.150145E-15	6.950394E-17
6.480000E+03	1.159816E-15	6.147637E-17
6.490000E+03	1.172665E-15	5.341915E-17
6.500000E+03	1.188085E-15	4.567527E-17
6.510000E+03	1.205242E-15	3.899759E-17
6.520000E+03	1.223334E-15	3.477953E-17
6.530000E+03	1.241341E-15	3.469705E-17
6.540000E+03	1.258516E-15	3.924211E-17
6.550000E+03	1.274201E-15	4.721833E-17
6.560000E+03	1.287815E-15	5.712091E-17
6.570000E+03	1.298704E-15	6.790487E-17
6.580000E+03	1.306397E-15	7.893408E-17
6.590000E+03	1.310379E-15	8.979353E-17
6.600000E+03	1.310119E-15	1.001811E-16
6.610000E+03	1.305374E-15	1.098781E-16
6.620000E+03	1.295951E-15	1.187109E-16
6.630000E+03	1.281726E-15	1.265410E-16
6.640000E+03	1.262920E-15	1.332871E-16
6.650000E+03	1.239820E-15	1.389013E-16
6.660000E+03	1.212770E-15	1.433651E-16
6.670000E+03	1.182474E-15	1.467247E-16
6.680000E+03	1.149307E-15	1.490090E-16
6.690000E+03	1.114166E-15	1.503321E-16
6.700000E+03	1.077560E-15	1.507766E-16
6.710000E+03	1.040208E-15	1.504673E-16
6.720000E+03	1.002705E-15	1.495242E-16
6.730000E+03	9.655131E-16	1.480570E-16
6.740000E+03	9.291587E-16	1.461906E-16
6.750000E+03	8.939571E-16	1.440216E-16
6.760000E+03	8.603300E-16	1.416657E-16
6.770000E+03	8.283830E-16	1.391874E-16
6.780000E+03	7.983352E-16	1.366686E-16
6.790000E+03	7.702353E-16	1.341605E-16
6.800000E+03	7.441916E-16	1.317218E-16
6.810000E+03	7.202169E-16	1.293918E-16
6.820000E+03	6.982931E-16	1.272012E-16
6.830000E+03	6.783322E-16	1.251643E-16
6.840000E+03	6.603237E-16	1.233068E-16
6.850000E+03	6.441963E-16	1.216400E-16
6.860000E+03	6.298280E-16	1.201629E-16
6.870000E+03	6.171796E-16	1.188874E-16
6.880000E+03	6.061650E-16	1.178143E-16
6.890000E+03	5.966577E-16	1.169340E-16
6.900000E+03	5.886140E-16	1.162514E-16
6.910000E+03	5.819503E-16	1.157617E-16
6.920000E+03	5.765856E-16	1.154590E-16
6.930000E+03	5.724027E-16	1.153286E-16
6.940000E+03	5.693657E-16	1.153710E-16
6.950000E+03	5.674026E-16	1.155781E-16
6.960000E+03	5.664447E-16	1.159415E-16
6.970000E+03	5.663886E-16	1.164448E-16
6.980000E+03	5.672115E-16	1.170870E-16
6.990000E+03	5.688567E-16	1.178596E-16
7.000000E+03	5.712326E-16	1.187461E-16
7.010000E+03	5.743301E-16	1.197464E-16
7.020000E+03	5.781061E-16	1.208529E-16
7.030000E+03	5.825230E-16	1.220585E-16
7.040000E+03	5.875078E-16	1.233481E-16
7.050000E+03	5.930719E-16	1.247239E-16
7.060000E+03	5.991917E-16	1.261803E-16
7.070000E+03	6.058057E-16	1.277034E-16
7.080000E+03	6.129374E-16	1.292966E-16
7.090000E+03	6.205710E-16	1.309547E-16
7.100000E+03	6.286912E-16	1.326720E-16
7.110000E+03	6.372812E-16	1.344423E-16
7.120000E+03	6.462765E-16	1.362488E-16
7.130000E+03	6.556950E-16	1.380916E-16
7.140000E+03	6.654588E-16	1.399500E-16
7.150000E+03	6.756174E-16	1.418301E-16
7.160000E+03	6.860274E-16	1.436966E-16
7.170000E+03	6.966714E-16	1.455405E-16
7.180000E+03	7.074253E-16	1.473301E-16
7.190000E+03	7.182971E-16	1.490610E-16
7.200000E+03	7.290879E-16	1.506854E-16
7.210000E+03	7.397336E-16	1.521838E-16
7.220000E+03	7.501118E-16	1.535245E-16
7.230000E+03	7.600400E-16	1.546641E-16
7.240000E+03	7.694347E-16	1.555797E-16
7.250000E+03	7.781610E-16	1.562389E-16
7.260000E+03	7.860871E-16	1.566108E-16
7.270000E+03	7.930345E-16	1.566565E-16
7.280000E+03	7.990010E-16	1.563737E-16
7.290000E+03	8.037818E-16	1.557216E-16
7.300000E+03	8.073013E-16	1.546875E-16
7.310000E+03	8.096207E-16	1.532866E-16
7.320000E+03	8.106024E-16	1.514986E-16
7.330000E+03	8.103038E-16	1.493426E-16
7.340000E+03	8.087527E-16	1.468349E-16
7.350000E+03	8.060024E-16	1.439989E-16
7.360000E+03	8.020729E-16	1.408555E-16
7.370000E+03	7.971725E-16	1.374615E-16
7.380000E+03	7.912467E-16	1.338312E-16
7.390000E+03	7.845875E-16	1.300418E-16
7.400000E+03	7.772718E-16	1.261368E-16
7.410000E+03	7.693822E-16	1.221649E-16
7.420000E+03	7.611105E-16	1.181959E-16
7.430000E+03	7.525902E-16	1.142937E-16
7.440000E+03	7.439489E-16	1.105241E-16
7.450000E+03	7.352536E-16	1.069467E-16
7.460000E+03	7.267177E-16	1.036440E-16
7.470000E+03	7.183361E-16	1.006658E-16
7.480000E+03	7.102469E-16	9.808010E-17
7.490000E+03	7.024749E-16	9.593260E-17
7.500000E+03	6.951830E-16	9.427863E-17
7.510000E+03	6.883236E-16	9.313104E-17
7.520000E+03	6.819877E-16	9.250352E-17
7.530000E+03	6.762062E-16	9.238292E-17
7.540000E+03	6.710015E-16	9.273996E-17
7.550000E+03	6.663405E-16	9.352691E-17
7.560000E+03	6.623257E-16	9.470807E-17
7.570000E+03	6.588633E-16	9.621655E-17
7.580000E+03	6.559961E-16	9.800429E-17
7.590000E+03	6.536677E-16	1.000105E-16
7.600000E+03	6.519583E-16	1.021983E-16
7.610000E+03	6.507561E-16	1.045059E-16
7.620000E+03	6.501337E-16	1.069049E-16
7.630000E+03	6.499731E-16	1.093405E-16
7.640000E+03	6.502472E-16	1.117765E-16
7.650000E+03	6.510207E-16	1.141964E-16
7.660000E+03	6.522158E-16	1.165625E-16
7.670000E+03	6.537525E-16	1.188388E-16
7.680000E+03	6.556443E-16	1.210083E-16
7.690000E+03	6.578573E-16	1.230472E-16
7.700000E+03	6.603571E-16	1.249333E-16
7.710000E+03	6.631100E-16	1.266456E-16
7.720000E+03	6.660339E-16	1.281546E-16
7.730000E+03	6.691942E-16	1.294603E-16
7.740000E+03	6.724623E-16	1.305260E-16
7.750000E+03	6.758581E-16	1.313443E-16
7.760000E+03	6.793548E-16	1.318996E-16
