#wls	flux	fluxerr
1.600000E+03	9.189616E-18	1.039934E-17
1.640000E+03	9.193256E-18	1.033188E-17
1.680000E+03	9.207709E-18	1.027631E-17
1.720000E+03	9.229378E-18	1.022859E-17
1.760000E+03	9.265641E-18	1.019682E-17
1.800000E+03	9.318617E-18	1.018312E-17
1.840000E+03	9.385403E-18	1.018407E-17
1.880000E+03	9.473787E-18	1.020784E-17
1.920000E+03	9.581271E-18	1.025130E-17
1.960000E+03	9.721142E-18	1.032815E-17
2.000000E+03	9.886080E-18	1.042991E-17
2.040000E+03	1.007930E-17	1.055930E-17
2.080000E+03	1.031468E-17	1.073001E-17
2.120000E+03	1.058530E-17	1.093376E-17
2.160000E+03	1.090014E-17	1.117873E-17
2.200000E+03	1.126309E-17	1.146758E-17
2.240000E+03	1.167817E-17	1.180287E-17
2.280000E+03	1.214946E-17	1.218703E-17
2.320000E+03	1.267514E-17	1.261632E-17
2.360000E+03	1.327105E-17	1.310433E-17
2.400000E+03	1.392910E-17	1.364050E-17
2.440000E+03	1.466563E-17	1.423799E-17
2.480000E+03	1.547145E-17	1.488444E-17
2.520000E+03	1.636336E-17	1.559221E-17
2.560000E+03	1.733061E-17	1.634649E-17
2.600000E+03	1.839049E-17	1.715846E-17
2.640000E+03	1.953039E-17	1.801024E-17
2.680000E+03	2.076819E-17	1.891141E-17
2.720000E+03	2.209802E-17	1.984844E-17
2.760000E+03	2.352137E-17	2.081356E-17
2.800000E+03	2.503942E-17	2.179754E-17
2.840000E+03	2.666312E-17	2.279835E-17
2.880000E+03	2.837336E-17	2.378693E-17
2.920000E+03	3.019101E-17	2.476732E-17
2.960000E+03	3.210587E-17	2.571635E-17
3.000000E+03	3.412929E-17	2.662778E-17
3.010000E+03	3.464836E-17	2.684498E-17
3.020000E+03	3.517263E-17	2.705739E-17
3.030000E+03	3.570203E-17	2.726475E-17
3.040000E+03	3.624902E-17	2.747625E-17
3.050000E+03	3.678865E-17	2.767272E-17
3.060000E+03	3.734599E-17	2.787287E-17
3.070000E+03	3.789558E-17	2.805740E-17
3.080000E+03	3.846301E-17	2.824512E-17
3.090000E+03	3.903542E-17	2.842626E-17
3.100000E+03	3.959947E-17	2.859096E-17
3.110000E+03	4.018149E-17	2.875815E-17
3.120000E+03	4.076824E-17	2.891802E-17
3.130000E+03	4.135964E-17	2.907032E-17
3.140000E+03	4.196939E-17	2.922445E-17
3.150000E+03	4.256989E-17	2.936096E-17
3.160000E+03	4.317473E-17	2.948926E-17
3.170000E+03	4.379799E-17	2.961877E-17
3.180000E+03	4.441128E-17	2.973009E-17
3.190000E+03	4.504303E-17	2.984227E-17
3.200000E+03	4.567892E-17	2.994555E-17
3.210000E+03	4.630406E-17	3.003022E-17
3.220000E+03	4.694770E-17	3.011532E-17
3.230000E+03	4.759510E-17	3.019119E-17
3.240000E+03	4.824613E-17	3.025777E-17
3.250000E+03	4.890067E-17	3.031500E-17
3.260000E+03	4.957402E-17	3.037234E-17
3.270000E+03	5.023535E-17	3.041088E-17
3.280000E+03	5.089984E-17	3.044014E-17
3.290000E+03	5.158321E-17	3.046956E-17
3.300000E+03	5.225385E-17	3.048054E-17
3.310000E+03	5.294346E-17	3.049187E-17
3.320000E+03	5.363614E-17	3.049441E-17
3.330000E+03	5.433185E-17	3.048840E-17
3.340000E+03	5.503054E-17	3.047412E-17
3.350000E+03	5.573221E-17	3.045188E-17
3.360000E+03	5.643688E-17	3.042206E-17
3.370000E+03	5.714458E-17	3.038509E-17
3.380000E+03	5.785541E-17	3.034141E-17
3.390000E+03	5.858660E-17	3.030042E-17
3.400000E+03	5.930419E-17	3.024489E-17
3.410000E+03	6.004276E-17	3.019309E-17
3.420000E+03	6.076794E-17	3.012815E-17
3.430000E+03	6.151493E-17	3.006819E-17
3.440000E+03	6.226673E-17	3.000521E-17
3.450000E+03	6.302378E-17	2.994003E-17
3.460000E+03	6.378661E-17	2.987346E-17
3.470000E+03	6.455582E-17	2.980639E-17
3.480000E+03	6.533209E-17	2.973974E-17
3.490000E+03	6.613463E-17	2.968270E-17
3.500000E+03	6.692762E-17	2.961968E-17
3.510000E+03	6.774903E-17	2.956816E-17
3.520000E+03	6.856273E-17	2.951278E-17
3.530000E+03	6.940749E-17	2.947086E-17
3.540000E+03	7.026601E-17	2.943531E-17
3.550000E+03	7.113981E-17	2.940721E-17
3.560000E+03	7.203060E-17	2.938764E-17
3.570000E+03	7.294023E-17	2.937770E-17
3.580000E+03	7.387077E-17	2.937848E-17
3.590000E+03	7.482445E-17	2.939111E-17
3.600000E+03	7.580372E-17	2.941667E-17
3.610000E+03	7.683145E-17	2.946404E-17
3.620000E+03	7.787036E-17	2.951882E-17
3.630000E+03	7.896418E-17	2.959761E-17
3.640000E+03	8.009618E-17	2.969382E-17
3.650000E+03	8.124913E-17	2.980091E-17
3.660000E+03	8.246877E-17	2.993543E-17
3.670000E+03	8.373867E-17	3.009087E-17
3.680000E+03	8.506348E-17	3.026843E-17
3.690000E+03	8.644815E-17	3.046931E-17
3.700000E+03	8.792008E-17	3.070247E-17
3.710000E+03	8.944089E-17	3.095372E-17
3.720000E+03	9.103830E-17	3.123200E-17
3.730000E+03	9.274147E-17	3.154637E-17
3.740000E+03	9.453445E-17	3.189031E-17
3.750000E+03	9.640023E-17	3.225713E-17
3.760000E+03	9.839264E-17	3.266379E-17
3.770000E+03	1.004953E-16	3.310353E-17
3.780000E+03	1.027151E-16	3.357738E-17
3.790000E+03	1.050592E-16	3.408629E-17
3.800000E+03	1.075342E-16	3.463104E-17
3.810000E+03	1.101468E-16	3.521226E-17
3.820000E+03	1.129301E-16	3.583890E-17
3.830000E+03	1.158368E-16	3.649425E-17
3.840000E+03	1.189265E-16	3.719539E-17
3.850000E+03	1.221485E-16	3.792459E-17
3.860000E+03	1.255632E-16	3.869876E-17
3.870000E+03	1.291457E-16	3.950811E-17
3.880000E+03	1.328673E-16	4.034187E-17
3.890000E+03	1.367895E-16	4.121658E-17
3.900000E+03	1.408821E-16	4.212075E-17
3.910000E+03	1.451767E-16	4.306137E-17
3.920000E+03	1.496055E-16	4.401575E-17
3.930000E+03	1.541967E-16	4.498979E-17
3.940000E+03	1.589453E-16	4.597930E-17
3.950000E+03	1.638817E-16	4.699015E-17
3.960000E+03	1.689267E-16	4.799658E-17
3.970000E+03	1.741463E-16	4.901437E-17
3.980000E+03	1.794955E-16	5.002741E-17
3.990000E+03	1.849250E-16	5.101868E-17
4.000000E+03	1.905057E-16	5.200432E-17
4.010000E+03	1.961893E-16	5.296721E-17
4.020000E+03	2.019672E-16	5.390117E-17
4.030000E+03	2.078318E-16	5.480009E-17
4.040000E+03	2.137762E-16	5.565794E-17
4.050000E+03	2.198417E-16	5.648081E-17
4.060000E+03	2.259318E-16	5.723908E-17
4.070000E+03	2.320899E-16	5.793908E-17
4.080000E+03	2.383655E-16	5.858775E-17
4.090000E+03	2.446611E-16	5.915542E-17
4.100000E+03	2.510811E-16	5.966164E-17
4.110000E+03	2.575811E-16	6.008912E-17
4.120000E+03	2.641683E-16	6.043287E-17
4.130000E+03	2.707962E-16	6.067540E-17
4.140000E+03	2.775852E-16	6.083633E-17
4.150000E+03	2.844927E-16	6.089772E-17
4.160000E+03	2.915312E-16	6.085365E-17
4.170000E+03	2.987741E-16	6.070995E-17
4.180000E+03	3.061158E-16	6.043514E-17
4.190000E+03	3.136280E-16	6.003394E-17
4.200000E+03	3.213230E-16	5.949808E-17
4.210000E+03	3.292765E-16	5.883030E-17
4.220000E+03	3.373690E-16	5.799773E-17
4.230000E+03	3.457390E-16	5.701348E-17
4.240000E+03	3.542571E-16	5.584506E-17
4.250000E+03	3.630618E-16	5.450478E-17
4.260000E+03	3.720848E-16	5.297268E-17
4.270000E+03	3.813223E-16	5.124171E-17
4.280000E+03	3.907683E-16	4.930777E-17
4.290000E+03	4.003382E-16	4.716245E-17
4.300000E+03	4.101726E-16	4.483180E-17
4.310000E+03	4.202655E-16	4.233264E-17
4.320000E+03	4.304493E-16	3.968263E-17
4.330000E+03	4.407923E-16	3.694811E-17
4.340000E+03	4.512874E-16	3.422216E-17
4.350000E+03	4.619306E-16	3.164870E-17
4.360000E+03	4.728092E-16	2.944488E-17
4.370000E+03	4.837540E-16	2.788445E-17
4.380000E+03	4.948558E-16	2.729663E-17
4.390000E+03	5.062083E-16	2.794733E-17
4.400000E+03	5.176195E-16	2.990377E-17
4.410000E+03	5.292531E-16	3.305220E-17
4.420000E+03	5.409880E-16	3.715922E-17
4.430000E+03	5.526938E-16	4.198405E-17
4.440000E+03	5.645339E-16	4.734778E-17
4.450000E+03	5.763787E-16	5.309698E-17
4.460000E+03	5.881954E-16	5.912233E-17
4.470000E+03	5.998452E-16	6.533002E-17
4.480000E+03	6.115014E-16	7.167809E-17
4.490000E+03	6.230228E-16	7.810478E-17
4.500000E+03	6.343682E-16	8.456713E-17
4.510000E+03	6.454932E-16	9.102780E-17
4.520000E+03	6.563495E-16	9.745322E-17
4.530000E+03	6.668856E-16	1.038124E-16
4.540000E+03	6.770471E-16	1.100759E-16
4.550000E+03	6.868943E-16	1.162358E-16
4.560000E+03	6.961391E-16	1.222268E-16
4.570000E+03	7.048417E-16	1.280422E-16
4.580000E+03	7.129503E-16	1.336581E-16
4.590000E+03	7.205380E-16	1.390757E-16
4.600000E+03	7.273255E-16	1.442294E-16
4.610000E+03	7.334009E-16	1.491246E-16
4.620000E+03	7.388646E-16	1.537725E-16
4.630000E+03	7.434638E-16	1.581124E-16
4.640000E+03	7.473217E-16	1.621621E-16
4.650000E+03	7.505744E-16	1.659456E-16
4.660000E+03	7.530038E-16	1.694103E-16
4.670000E+03	7.548905E-16	1.726153E-16
4.680000E+03	7.560380E-16	1.755136E-16
4.690000E+03	7.566233E-16	1.781440E-16
4.700000E+03	7.568289E-16	1.805497E-16
4.710000E+03	7.564798E-16	1.826896E-16
4.720000E+03	7.558852E-16	1.846395E-16
4.730000E+03	7.549936E-16	1.863894E-16
4.740000E+03	7.537543E-16	1.879289E-16
4.750000E+03	7.524680E-16	1.893357E-16
4.760000E+03	7.509577E-16	1.905686E-16
4.770000E+03	7.495096E-16	1.917034E-16
4.780000E+03	7.479348E-16	1.926955E-16
4.790000E+03	7.465003E-16	1.936171E-16
4.800000E+03	7.450024E-16	1.944187E-16
4.810000E+03	7.436868E-16	1.951677E-16
4.820000E+03	7.423341E-16	1.958096E-16
4.830000E+03	7.411694E-16	1.964067E-16
4.840000E+03	7.400703E-16	1.969292E-16
4.850000E+03	7.389097E-16	1.973456E-16
4.860000E+03	7.378875E-16	1.977112E-16
4.870000E+03	7.367550E-16	1.979615E-16
4.880000E+03	7.357015E-16	1.981488E-16
4.890000E+03	7.344752E-16	1.982067E-16
4.900000E+03	7.332602E-16	1.981862E-16
4.910000E+03	7.318078E-16	1.980211E-16
4.920000E+03	7.301966E-16	1.977337E-16
4.930000E+03	7.285069E-16	1.973466E-16
4.940000E+03	7.265053E-16	1.967975E-16
4.950000E+03	7.243890E-16	1.961404E-16
4.960000E+03	7.219408E-16	1.953174E-16
4.970000E+03	7.192671E-16	1.943579E-16
4.980000E+03	7.164792E-16	1.932928E-16
4.990000E+03	7.133886E-16	1.920716E-16
5.000000E+03	7.101236E-16	1.907295E-16
5.010000E+03	7.067166E-16	1.892757E-16
5.020000E+03	7.032061E-16	1.877208E-16
5.030000E+03	6.997344E-16	1.861026E-16
5.040000E+03	6.961520E-16	1.843812E-16
5.050000E+03	6.926082E-16	1.825957E-16
5.060000E+03	6.891543E-16	1.807587E-16
5.070000E+03	6.858410E-16	1.788823E-16
5.080000E+03	6.827173E-16	1.769774E-16
5.090000E+03	6.798285E-16	1.750532E-16
5.100000E+03	6.771232E-16	1.730939E-16
5.110000E+03	6.748234E-16	1.711529E-16
5.120000E+03	6.728658E-16	1.692094E-16
5.130000E+03	6.712740E-16	1.672645E-16
5.140000E+03	6.699747E-16	1.652946E-16
5.150000E+03	6.691602E-16	1.633413E-16
5.160000E+03	6.686543E-16	1.613544E-16
5.170000E+03	6.686358E-16	1.593698E-16
5.180000E+03	6.689191E-16	1.573349E-16
5.190000E+03	6.696721E-16	1.552807E-16
5.200000E+03	6.707020E-16	1.531529E-16
5.210000E+03	6.720805E-16	1.509588E-16
5.220000E+03	6.737881E-16	1.486838E-16
5.230000E+03	6.758924E-16	1.463318E-16
5.240000E+03	6.781941E-16	1.438480E-16
5.250000E+03	6.807601E-16	1.412362E-16
5.260000E+03	6.834800E-16	1.384621E-16
5.270000E+03	6.865107E-16	1.355461E-16
5.280000E+03	6.897438E-16	1.324537E-16
5.290000E+03	6.931611E-16	1.291692E-16
5.300000E+03	6.966561E-16	1.256611E-16
5.310000E+03	7.003923E-16	1.219471E-16
5.320000E+03	7.041762E-16	1.179809E-16
5.330000E+03	7.081745E-16	1.137794E-16
5.340000E+03	7.121951E-16	1.092997E-16
5.350000E+03	7.163163E-16	1.045446E-16
5.360000E+03	7.205266E-16	9.950294E-17
5.370000E+03	7.248143E-16	9.416493E-17
5.380000E+03	7.291665E-16	8.852301E-17
5.390000E+03	7.335688E-16	8.257254E-17
5.400000E+03	7.380045E-16	7.631325E-17
5.410000E+03	7.424541E-16	6.975156E-17
5.420000E+03	7.468018E-16	6.289667E-17
5.430000E+03	7.512059E-16	5.579975E-17
5.440000E+03	7.554498E-16	4.851192E-17
5.450000E+03	7.595916E-16	4.116574E-17
5.460000E+03	7.636872E-16	3.401021E-17
5.470000E+03	7.675102E-16	2.753844E-17
5.480000E+03	7.711161E-16	2.277014E-17
5.490000E+03	7.744727E-16	2.126386E-17
5.500000E+03	7.774647E-16	2.381479E-17
5.510000E+03	7.802748E-16	2.936000E-17
5.520000E+03	7.828147E-16	3.643980E-17
5.530000E+03	7.850038E-16	4.417644E-17
5.540000E+03	7.869556E-16	5.213966E-17
5.550000E+03	7.887870E-16	6.011642E-17
5.560000E+03	7.903344E-16	6.797387E-17
5.570000E+03	7.917207E-16	7.564983E-17
5.580000E+03	7.929777E-16	8.310398E-17
5.590000E+03	7.940469E-16	9.030236E-17
5.600000E+03	7.951574E-16	9.725373E-17
5.610000E+03	7.962609E-16	1.039445E-16
5.620000E+03	7.973160E-16	1.103646E-16
5.630000E+03	7.984759E-16	1.165336E-16
5.640000E+03	7.998074E-16	1.224648E-16
5.650000E+03	8.014782E-16	1.281902E-16
5.660000E+03	8.032887E-16	1.336861E-16
5.670000E+03	8.056089E-16	1.390220E-16
5.680000E+03	8.084407E-16	1.442108E-16
5.690000E+03	8.117911E-16	1.492656E-16
5.700000E+03	8.159540E-16	1.542533E-16
5.710000E+03	8.208498E-16	1.591733E-16
5.720000E+03	8.266833E-16	1.640785E-16
5.730000E+03	8.335649E-16	1.690049E-16
5.740000E+03	8.416030E-16	1.739882E-16
5.750000E+03	8.509019E-16	1.790632E-16
5.760000E+03	8.615595E-16	1.842627E-16
5.770000E+03	8.735658E-16	1.895952E-16
5.780000E+03	8.870965E-16	1.951077E-16
5.790000E+03	9.023195E-16	2.008454E-16
5.800000E+03	9.190827E-16	2.067804E-16
5.810000E+03	9.375213E-16	2.129465E-16
5.820000E+03	9.575436E-16	2.193241E-16
5.830000E+03	9.793605E-16	2.259605E-16
5.840000E+03	1.002731E-15	2.327969E-16
5.850000E+03	1.027835E-15	2.398690E-16
5.860000E+03	1.054383E-15	2.471012E-16
5.870000E+03	1.082406E-15	2.544901E-16
5.880000E+03	1.111809E-15	2.620002E-16
5.890000E+03	1.142479E-15	2.695908E-16
5.900000E+03	1.174165E-15	2.771860E-16
5.910000E+03	1.206995E-15	2.847982E-16
5.920000E+03	1.240572E-15	2.923149E-16
5.930000E+03	1.274891E-15	2.997161E-16
5.940000E+03	1.309821E-15	3.069514E-16
5.950000E+03	1.345237E-15	3.139719E-16
5.960000E+03	1.381017E-15	3.207314E-16
5.970000E+03	1.416896E-15	3.271508E-16
5.980000E+03	1.453074E-15	3.332616E-16
5.990000E+03	1.489137E-15	3.389555E-16
6.000000E+03	1.525142E-15	3.442363E-16
6.010000E+03	1.560987E-15	3.490751E-16
6.020000E+03	1.596391E-15	3.534078E-16
6.030000E+03	1.631578E-15	3.572875E-16
6.040000E+03	1.666057E-15	3.606163E-16
6.050000E+03	1.700021E-15	3.634530E-16
6.060000E+03	1.732914E-15	3.657022E-16
6.070000E+03	1.764691E-15	3.673879E-16
6.080000E+03	1.794898E-15	3.684578E-16
6.090000E+03	1.823624E-15	3.689815E-16
6.100000E+03	1.850353E-15	3.689130E-16
6.110000E+03	1.874531E-15	3.682104E-16
6.120000E+03	1.895987E-15	3.669158E-16
6.130000E+03	1.914347E-15	3.650362E-16
6.140000E+03	1.929247E-15	3.625833E-16
6.150000E+03	1.940138E-15	3.595338E-16
6.160000E+03	1.947133E-15	3.559825E-16
6.170000E+03	1.949572E-15	3.518718E-16
6.180000E+03	1.947488E-15	3.472576E-16
6.190000E+03	1.940789E-15	3.421552E-16
6.200000E+03	1.929470E-15	3.365758E-16
6.210000E+03	1.913417E-15	3.304924E-16
6.220000E+03	1.893224E-15	3.239812E-16
6.230000E+03	1.868761E-15	3.169786E-16
6.240000E+03	1.840590E-15	3.095278E-16
6.250000E+03	1.809142E-15	3.016411E-16
6.260000E+03	1.774903E-15	2.933369E-16
6.270000E+03	1.738217E-15	2.846107E-16
6.280000E+03	1.700002E-15	2.755555E-16
6.290000E+03	1.660456E-15	2.661512E-16
6.300000E+03	1.620308E-15	2.564714E-16
6.310000E+03	1.580086E-15	2.465628E-16
6.320000E+03	1.540282E-15	2.364730E-16
6.330000E+03	1.501192E-15	2.262248E-16
6.340000E+03	1.463385E-15	2.158868E-16
6.350000E+03	1.427362E-15	2.055179E-16
6.360000E+03	1.393119E-15	1.951041E-16
6.370000E+03	1.360909E-15	1.846707E-16
6.380000E+03	1.331209E-15	1.742700E-16
6.390000E+03	1.304009E-15	1.638850E-16
6.400000E+03	1.279258E-15	1.534940E-16
6.410000E+03	1.257127E-15	1.431012E-16
6.420000E+03	1.237598E-15	1.326861E-16
6.430000E+03	1.220606E-15	1.222244E-16
6.440000E+03	1.205912E-15	1.116796E-16
6.450000E+03	1.193607E-15	1.010572E-16
6.460000E+03	1.183235E-15	9.033099E-17
6.470000E+03	1.174671E-15	7.953845E-17
6.480000E+03	1.167620E-15	6.876262E-17
6.490000E+03	1.161753E-15	5.819571E-17
6.500000E+03	1.156591E-15	4.823997E-17
6.510000E+03	1.151999E-15	3.973504E-17
6.520000E+03	1.147361E-15	3.417733E-17
6.530000E+03	1.142442E-15	3.336898E-17
6.540000E+03	1.136926E-15	3.762164E-17
6.550000E+03	1.130547E-15	4.531310E-17
6.560000E+03	1.122974E-15	5.469377E-17
6.570000E+03	1.114151E-15	6.469916E-17
6.580000E+03	1.104057E-15	7.475731E-17
6.590000E+03	1.092368E-15	8.452736E-17
6.600000E+03	1.079027E-15	9.380816E-17
6.610000E+03	1.064236E-15	1.024901E-16
6.620000E+03	1.047790E-15	1.104680E-16
6.630000E+03	1.029962E-15	1.177084E-16
6.640000E+03	1.010628E-15	1.241556E-16
6.650000E+03	9.900225E-16	1.298078E-16
6.660000E+03	9.682990E-16	1.346685E-16
6.670000E+03	9.455404E-16	1.387418E-16
6.680000E+03	9.221394E-16	1.420866E-16
6.690000E+03	8.981137E-16	1.447163E-16
6.700000E+03	8.737730E-16	1.466956E-16
6.710000E+03	8.493282E-16	1.480819E-16
6.720000E+03	8.248983E-16	1.489218E-16
6.730000E+03	8.008443E-16	1.493096E-16
6.740000E+03	7.771740E-16	1.492797E-16
6.750000E+03	7.542028E-16	1.489261E-16
6.760000E+03	7.319080E-16	1.482795E-16
6.770000E+03	7.104807E-16	1.474128E-16
6.780000E+03	6.899414E-16	1.463645E-16
6.790000E+03	6.705032E-16	1.452130E-16
6.800000E+03	6.520787E-16	1.439723E-16
6.810000E+03	6.347724E-16	1.426957E-16
6.820000E+03	6.186034E-16	1.414167E-16
6.830000E+03	6.035778E-16	1.401640E-16
6.840000E+03	5.896906E-16	1.389617E-16
6.850000E+03	5.769275E-16	1.378300E-16
6.860000E+03	5.652094E-16	1.367713E-16
6.870000E+03	5.545688E-16	1.358127E-16
6.880000E+03	5.449733E-16	1.349643E-16
6.890000E+03	5.363877E-16	1.342336E-16
6.900000E+03	5.287744E-16	1.336257E-16
6.910000E+03	5.220410E-16	1.331304E-16
6.920000E+03	5.162547E-16	1.327763E-16
6.930000E+03	5.112699E-16	1.325365E-16
6.940000E+03	5.070997E-16	1.324235E-16
6.950000E+03	5.037051E-16	1.324353E-16
6.960000E+03	5.009968E-16	1.325554E-16
6.970000E+03	4.990402E-16	1.328071E-16
6.980000E+03	4.976974E-16	1.331594E-16
6.990000E+03	4.970358E-16	1.336345E-16
7.000000E+03	4.969212E-16	1.342003E-16
7.010000E+03	4.973730E-16	1.348651E-16
7.020000E+03	4.983102E-16	1.356093E-16
7.030000E+03	4.998060E-16	1.364548E-16
7.040000E+03	5.017312E-16	1.373676E-16
7.050000E+03	5.041615E-16	1.383693E-16
7.060000E+03	5.069690E-16	1.394252E-16
7.070000E+03	5.101796E-16	1.405425E-16
7.080000E+03	5.137684E-16	1.417136E-16
7.090000E+03	5.176574E-16	1.429162E-16
7.100000E+03	5.219259E-16	1.441710E-16
7.110000E+03	5.264407E-16	1.454396E-16
7.120000E+03	5.312261E-16	1.467267E-16
7.130000E+03	5.362512E-16	1.480216E-16
7.140000E+03	5.414831E-16	1.493127E-16
7.150000E+03	5.468862E-16	1.505875E-16
7.160000E+03	5.524216E-16	1.518324E-16
7.170000E+03	5.579907E-16	1.530172E-16
7.180000E+03	5.636047E-16	1.541419E-16
7.190000E+03	5.692745E-16	1.552065E-16
7.200000E+03	5.748339E-16	1.561624E-16
7.210000E+03	5.802293E-16	1.569924E-16
7.220000E+03	5.855262E-16	1.577117E-16
7.230000E+03	5.906118E-16	1.582874E-16
7.240000E+03	5.953720E-16	1.586874E-16
7.250000E+03	5.998774E-16	1.589293E-16
7.260000E+03	6.039565E-16	1.589673E-16
7.270000E+03	6.076260E-16	1.588064E-16
7.280000E+03	6.108467E-16	1.584378E-16
7.290000E+03	6.135219E-16	1.578392E-16
7.300000E+03	6.157522E-16	1.570403E-16
7.310000E+03	6.173926E-16	1.560093E-16
7.320000E+03	6.185607E-16	1.547825E-16
7.330000E+03	6.191278E-16	1.533357E-16
7.340000E+03	6.191656E-16	1.516965E-16
7.350000E+03	6.186903E-16	1.498800E-16
7.360000E+03	6.176621E-16	1.478897E-16
7.370000E+03	6.162410E-16	1.457781E-16
7.380000E+03	6.144006E-16	1.435545E-16
7.390000E+03	6.121207E-16	1.412315E-16
7.400000E+03	6.095130E-16	1.388536E-16
7.410000E+03	6.066282E-16	1.364518E-16
7.420000E+03	6.035191E-16	1.340580E-16
7.430000E+03	6.002392E-16	1.317049E-16
7.440000E+03	5.968417E-16	1.294246E-16
7.450000E+03	5.933166E-16	1.272354E-16
7.460000E+03	5.898385E-16	1.251939E-16
7.470000E+03	5.863309E-16	1.233012E-16
7.480000E+03	5.829001E-16	1.215951E-16
7.490000E+03	5.795865E-16	1.200961E-16
7.500000E+03	5.764269E-16	1.188203E-16
7.510000E+03	5.734536E-16	1.177787E-16
7.520000E+03	5.706952E-16	1.169769E-16
7.530000E+03	5.681759E-16	1.164153E-16
7.540000E+03	5.658565E-16	1.160765E-16
7.550000E+03	5.638132E-16	1.159633E-16
7.560000E+03	5.621180E-16	1.160741E-16
7.570000E+03	5.606613E-16	1.163674E-16
7.580000E+03	5.595083E-16	1.168356E-16
7.590000E+03	5.586618E-16	1.174572E-16
7.600000E+03	5.580626E-16	1.181967E-16
7.610000E+03	5.578266E-16	1.190551E-16
7.620000E+03	5.578304E-16	1.199833E-16
7.630000E+03	5.581857E-16	1.209826E-16
7.640000E+03	5.587648E-16	1.220036E-16
7.650000E+03	5.596168E-16	1.230357E-16
7.660000E+03	5.607895E-16	1.240696E-16
7.670000E+03	5.620904E-16	1.250435E-16
7.680000E+03	5.636851E-16	1.259759E-16
7.690000E+03	5.654989E-16	1.268331E-16
7.700000E+03	5.675163E-16	1.275955E-16
7.710000E+03	5.696606E-16	1.282303E-16
7.720000E+03	5.720376E-16	1.287468E-16
7.730000E+03	5.745086E-16	1.291001E-16
7.740000E+03	5.771186E-16	1.292875E-16
7.750000E+03	5.798518E-16	1.292931E-16
7.760000E+03	5.827558E-16	1.291162E-16
