#wls	flux	fluxerr
1.591280E+03	2.038694E-18	0.000000E+00
1.631062E+03	2.136605E-18	0.000000E+00
1.670844E+03	2.226098E-18	0.000000E+00
1.710626E+03	2.306101E-18	0.000000E+00
1.750408E+03	2.373858E-18	0.000000E+00
1.790190E+03	2.424337E-18	0.000000E+00
1.829972E+03	2.451340E-18	0.000000E+00
1.869754E+03	2.447473E-18	0.000000E+00
1.909536E+03	2.406142E-18	0.000000E+00
1.949318E+03	2.324237E-18	0.000000E+00
1.989100E+03	2.206480E-18	0.000000E+00
2.028882E+03	2.071236E-18	0.000000E+00
2.068664E+03	1.950428E-18	0.000000E+00
2.108446E+03	1.883623E-18	0.000000E+00
2.148228E+03	1.905321E-18	0.000000E+00
2.188010E+03	2.033997E-18	0.000000E+00
2.227792E+03	2.269024E-18	0.000000E+00
2.267574E+03	2.595194E-18	0.000000E+00
2.307356E+03	2.988500E-18	0.000000E+00
2.347138E+03	3.425156E-18	0.000000E+00
2.386920E+03	3.886108E-18	0.000000E+00
2.426702E+03	4.358752E-18	0.000000E+00
2.466484E+03	4.836576E-18	0.000000E+00
2.506266E+03	5.316621E-18	0.000000E+00
2.546048E+03	5.799579E-18	0.000000E+00
2.585830E+03	6.286735E-18	0.000000E+00
2.625612E+03	6.780447E-18	0.000000E+00
2.665394E+03	7.283017E-18	0.000000E+00
2.705176E+03	7.797140E-18	0.000000E+00
2.744958E+03	8.325065E-18	0.000000E+00
2.784740E+03	8.868765E-18	0.000000E+00
2.824522E+03	9.430715E-18	0.000000E+00
2.864304E+03	1.001315E-17	0.000000E+00
2.904086E+03	1.061910E-17	0.000000E+00
2.943868E+03	1.125222E-17	0.000000E+00
2.983650E+03	1.191667E-17	0.000000E+00
2.993595E+03	1.208813E-17	0.000000E+00
3.003541E+03	1.226192E-17	0.000000E+00
3.013486E+03	1.243805E-17	0.000000E+00
3.023432E+03	1.261717E-17	0.000000E+00
3.033377E+03	1.280035E-17	0.000000E+00
3.043323E+03	1.298853E-17	0.000000E+00
3.053268E+03	1.318275E-17	0.000000E+00
3.063214E+03	1.338211E-17	0.000000E+00
3.073159E+03	1.358684E-17	0.000000E+00
3.083105E+03	1.379635E-17	0.000000E+00
3.093050E+03	1.401036E-17	0.000000E+00
3.102996E+03	1.422915E-17	0.000000E+00
3.112941E+03	1.445189E-17	0.000000E+00
3.122887E+03	1.467860E-17	0.000000E+00
3.132832E+03	1.490904E-17	0.000000E+00
3.142778E+03	1.514325E-17	0.000000E+00
3.152723E+03	1.538069E-17	0.000000E+00
3.162669E+03	1.562140E-17	0.000000E+00
3.172614E+03	1.586516E-17	0.000000E+00
3.182560E+03	1.611137E-17	0.000000E+00
3.192505E+03	1.636010E-17	0.000000E+00
3.202451E+03	1.661134E-17	0.000000E+00
3.212396E+03	1.686420E-17	0.000000E+00
3.222342E+03	1.711891E-17	0.000000E+00
3.232287E+03	1.737458E-17	0.000000E+00
3.242233E+03	1.763164E-17	0.000000E+00
3.252178E+03	1.788882E-17	0.000000E+00
3.262124E+03	1.814591E-17	0.000000E+00
3.272069E+03	1.840269E-17	0.000000E+00
3.282015E+03	1.865830E-17	0.000000E+00
3.291960E+03	1.891240E-17	0.000000E+00
3.301906E+03	1.916371E-17	0.000000E+00
3.311851E+03	1.941181E-17	0.000000E+00
3.321797E+03	1.965589E-17	0.000000E+00
3.331742E+03	1.989511E-17	0.000000E+00
3.341688E+03	2.012864E-17	0.000000E+00
3.351633E+03	2.035527E-17	0.000000E+00
3.361579E+03	2.057409E-17	0.000000E+00
3.371524E+03	2.078420E-17	0.000000E+00
3.381470E+03	2.098474E-17	0.000000E+00
3.391415E+03	2.117458E-17	0.000000E+00
3.401361E+03	2.135292E-17	0.000000E+00
3.411306E+03	2.151910E-17	0.000000E+00
3.421252E+03	2.167223E-17	0.000000E+00
3.431197E+03	2.181187E-17	0.000000E+00
3.441143E+03	2.193765E-17	0.000000E+00
3.451088E+03	2.204884E-17	0.000000E+00
3.461034E+03	2.214568E-17	0.000000E+00
3.470979E+03	2.222802E-17	0.000000E+00
3.480925E+03	2.229585E-17	0.000000E+00
3.490870E+03	2.234960E-17	0.000000E+00
3.500816E+03	2.238928E-17	0.000000E+00
3.510761E+03	2.241559E-17	0.000000E+00
3.520707E+03	2.242905E-17	0.000000E+00
3.530652E+03	2.243031E-17	0.000000E+00
3.540598E+03	2.242004E-17	0.000000E+00
3.550543E+03	2.239906E-17	0.000000E+00
3.560489E+03	2.236792E-17	0.000000E+00
3.570434E+03	2.232780E-17	0.000000E+00
3.580380E+03	2.227936E-17	0.000000E+00
3.590325E+03	2.222388E-17	0.000000E+00
3.600271E+03	2.216196E-17	0.000000E+00
3.610216E+03	2.209529E-17	0.000000E+00
3.620162E+03	2.202442E-17	0.000000E+00
3.630107E+03	2.195106E-17	0.000000E+00
3.640053E+03	2.187655E-17	0.000000E+00
3.649998E+03	2.180284E-17	0.000000E+00
3.659944E+03	2.173134E-17	0.000000E+00
3.669889E+03	2.166428E-17	0.000000E+00
3.679835E+03	2.160354E-17	0.000000E+00
3.689780E+03	2.155149E-17	0.000000E+00
3.699726E+03	2.151005E-17	0.000000E+00
3.709671E+03	2.148176E-17	0.000000E+00
3.719617E+03	2.146816E-17	0.000000E+00
3.729562E+03	2.147147E-17	0.000000E+00
3.739507E+03	2.149321E-17	0.000000E+00
3.749453E+03	2.153481E-17	0.000000E+00
3.759398E+03	2.159705E-17	0.000000E+00
3.769344E+03	2.168072E-17	0.000000E+00
3.779289E+03	2.178554E-17	0.000000E+00
3.789235E+03	2.191128E-17	0.000000E+00
3.799180E+03	2.205699E-17	0.000000E+00
3.809126E+03	2.222116E-17	0.000000E+00
3.819071E+03	2.240172E-17	0.000000E+00
3.829017E+03	2.259589E-17	0.000000E+00
3.838962E+03	2.280101E-17	0.000000E+00
3.848908E+03	2.301358E-17	0.000000E+00
3.858853E+03	2.322949E-17	0.000000E+00
3.868799E+03	2.344484E-17	0.000000E+00
3.878744E+03	2.365531E-17	0.000000E+00
3.888690E+03	2.385672E-17	0.000000E+00
3.898635E+03	2.404458E-17	0.000000E+00
3.908581E+03	2.421528E-17	0.000000E+00
3.918526E+03	2.436482E-17	0.000000E+00
3.928472E+03	2.449037E-17	0.000000E+00
3.938417E+03	2.458901E-17	0.000000E+00
3.948363E+03	2.465872E-17	0.000000E+00
3.958308E+03	2.469857E-17	0.000000E+00
3.968254E+03	2.470780E-17	0.000000E+00
3.978199E+03	2.468677E-17	0.000000E+00
3.988145E+03	2.463638E-17	0.000000E+00
3.998090E+03	2.455847E-17	0.000000E+00
4.008036E+03	2.445516E-17	0.000000E+00
4.017981E+03	2.432915E-17	0.000000E+00
4.027927E+03	2.418367E-17	0.000000E+00
4.037872E+03	2.402221E-17	0.000000E+00
4.047818E+03	2.384779E-17	0.000000E+00
4.057763E+03	2.366443E-17	0.000000E+00
4.067709E+03	2.347505E-17	0.000000E+00
4.077654E+03	2.328317E-17	0.000000E+00
4.087600E+03	2.309145E-17	0.000000E+00
4.097545E+03	2.290259E-17	0.000000E+00
4.107491E+03	2.271874E-17	0.000000E+00
4.117436E+03	2.254167E-17	0.000000E+00
4.127382E+03	2.237281E-17	0.000000E+00
4.137327E+03	2.221320E-17	0.000000E+00
4.147273E+03	2.206381E-17	0.000000E+00
4.157218E+03	2.192516E-17	0.000000E+00
4.167164E+03	2.179737E-17	0.000000E+00
4.177109E+03	2.168068E-17	0.000000E+00
4.187055E+03	2.157520E-17	0.000000E+00
4.197000E+03	2.148128E-17	0.000000E+00
4.206946E+03	2.139894E-17	0.000000E+00
4.216891E+03	2.132855E-17	0.000000E+00
4.226837E+03	2.127042E-17	0.000000E+00
4.236782E+03	2.122546E-17	0.000000E+00
4.246728E+03	2.119445E-17	0.000000E+00
4.256673E+03	2.117864E-17	0.000000E+00
4.266619E+03	2.117954E-17	0.000000E+00
4.276564E+03	2.119857E-17	0.000000E+00
4.286510E+03	2.123814E-17	0.000000E+00
4.296455E+03	2.130027E-17	0.000000E+00
4.306401E+03	2.138749E-17	0.000000E+00
4.316346E+03	2.150245E-17	0.000000E+00
4.326292E+03	2.164850E-17	0.000000E+00
4.336237E+03	2.182823E-17	0.000000E+00
4.346183E+03	2.204525E-17	0.000000E+00
4.356128E+03	2.230287E-17	0.000000E+00
4.366074E+03	2.260458E-17	0.000000E+00
4.376019E+03	2.295395E-17	0.000000E+00
4.385965E+03	2.335427E-17	0.000000E+00
4.395910E+03	2.380895E-17	0.000000E+00
4.405856E+03	2.432026E-17	0.000000E+00
4.415801E+03	2.489080E-17	0.000000E+00
4.425747E+03	2.552195E-17	0.000000E+00
4.435692E+03	2.621459E-17	0.000000E+00
4.445638E+03	2.696912E-17	0.000000E+00
4.455583E+03	2.778385E-17	0.000000E+00
4.465529E+03	2.865725E-17	0.000000E+00
4.475474E+03	2.958509E-17	0.000000E+00
4.485420E+03	3.056301E-17	0.000000E+00
4.495365E+03	3.158435E-17	0.000000E+00
4.505311E+03	3.264127E-17	0.000000E+00
4.515256E+03	3.372438E-17	0.000000E+00
4.525202E+03	3.482227E-17	0.000000E+00
4.535147E+03	3.592350E-17	0.000000E+00
4.545093E+03	3.701427E-17	0.000000E+00
4.555038E+03	3.808068E-17	0.000000E+00
4.564984E+03	3.910835E-17	0.000000E+00
4.574929E+03	4.008295E-17	0.000000E+00
4.584875E+03	4.099023E-17	0.000000E+00
4.594820E+03	4.181685E-17	0.000000E+00
4.604766E+03	4.255123E-17	0.000000E+00
4.614711E+03	4.318364E-17	0.000000E+00
4.624657E+03	4.370653E-17	0.000000E+00
4.634602E+03	4.411412E-17	0.000000E+00
4.644548E+03	4.440450E-17	0.000000E+00
4.654493E+03	4.457774E-17	0.000000E+00
4.664439E+03	4.463663E-17	0.000000E+00
4.674384E+03	4.458703E-17	0.000000E+00
4.684330E+03	4.443663E-17	0.000000E+00
4.694275E+03	4.419512E-17	0.000000E+00
4.704221E+03	4.387375E-17	0.000000E+00
4.714166E+03	4.348491E-17	0.000000E+00
4.724112E+03	4.304154E-17	0.000000E+00
4.734057E+03	4.255678E-17	0.000000E+00
4.744003E+03	4.204347E-17	0.000000E+00
4.753948E+03	4.151334E-17	0.000000E+00
4.763894E+03	4.097794E-17	0.000000E+00
4.773839E+03	4.044634E-17	0.000000E+00
4.783785E+03	3.992766E-17	0.000000E+00
4.793730E+03	3.942798E-17	0.000000E+00
4.803676E+03	3.895278E-17	0.000000E+00
4.813621E+03	3.850564E-17	0.000000E+00
4.823567E+03	3.808778E-17	0.000000E+00
4.833512E+03	3.770041E-17	0.000000E+00
4.843458E+03	3.734246E-17	0.000000E+00
4.853403E+03	3.701237E-17	0.000000E+00
4.863349E+03	3.670632E-17	0.000000E+00
4.873294E+03	3.642208E-17	0.000000E+00
4.883240E+03	3.615519E-17	0.000000E+00
4.893185E+03	3.590229E-17	0.000000E+00
4.903131E+03	3.565947E-17	0.000000E+00
4.913076E+03	3.542402E-17	0.000000E+00
4.923022E+03	3.519280E-17	0.000000E+00
4.932967E+03	3.496465E-17	0.000000E+00
4.942913E+03	3.473922E-17	0.000000E+00
4.952858E+03	3.451609E-17	0.000000E+00
4.962804E+03	3.429644E-17	0.000000E+00
4.972749E+03	3.408251E-17	0.000000E+00
4.982695E+03	3.387674E-17	0.000000E+00
4.992640E+03	3.368138E-17	0.000000E+00
5.002586E+03	3.349977E-17	0.000000E+00
5.012531E+03	3.333499E-17	0.000000E+00
5.022477E+03	3.318990E-17	0.000000E+00
5.032422E+03	3.306665E-17	0.000000E+00
5.042368E+03	3.296740E-17	0.000000E+00
5.052313E+03	3.289418E-17	0.000000E+00
5.062259E+03	3.284752E-17	0.000000E+00
5.072204E+03	3.282847E-17	0.000000E+00
5.082150E+03	3.283699E-17	0.000000E+00
5.092095E+03	3.287298E-17	0.000000E+00
5.102041E+03	3.293593E-17	0.000000E+00
5.111986E+03	3.302500E-17	0.000000E+00
5.121932E+03	3.313870E-17	0.000000E+00
5.131877E+03	3.327589E-17	0.000000E+00
5.141823E+03	3.343405E-17	0.000000E+00
5.151768E+03	3.361143E-17	0.000000E+00
5.161714E+03	3.380521E-17	0.000000E+00
5.171659E+03	3.401276E-17	0.000000E+00
5.181605E+03	3.423104E-17	0.000000E+00
5.191550E+03	3.445695E-17	0.000000E+00
5.201496E+03	3.468651E-17	0.000000E+00
5.211441E+03	3.491708E-17	0.000000E+00
5.221387E+03	3.514445E-17	0.000000E+00
5.231332E+03	3.536616E-17	0.000000E+00
5.241278E+03	3.557880E-17	0.000000E+00
5.251223E+03	3.578029E-17	0.000000E+00
5.261169E+03	3.596830E-17	0.000000E+00
5.271114E+03	3.614095E-17	0.000000E+00
5.281060E+03	3.629766E-17	0.000000E+00
5.291005E+03	3.643708E-17	0.000000E+00
5.300951E+03	3.655954E-17	0.000000E+00
5.310896E+03	3.666483E-17	0.000000E+00
5.320842E+03	3.675299E-17	0.000000E+00
5.330787E+03	3.682442E-17	0.000000E+00
5.340733E+03	3.687942E-17	0.000000E+00
5.350678E+03	3.691788E-17	0.000000E+00
5.360624E+03	3.693821E-17	0.000000E+00
5.370569E+03	3.693887E-17	0.000000E+00
5.380515E+03	3.691600E-17	0.000000E+00
5.390460E+03	3.686443E-17	0.000000E+00
5.400406E+03	3.677532E-17	0.000000E+00
5.410351E+03	3.663920E-17	0.000000E+00
5.420297E+03	3.644463E-17	0.000000E+00
5.430242E+03	3.618524E-17	0.000000E+00
5.440188E+03	3.586542E-17	0.000000E+00
5.450133E+03	3.552014E-17	0.000000E+00
5.460079E+03	3.522358E-17	0.000000E+00
5.470024E+03	3.501631E-17	0.000000E+00
5.479970E+03	3.484018E-17	0.000000E+00
5.489915E+03	3.462881E-17	0.000000E+00
5.499861E+03	3.436072E-17	0.000000E+00
5.509806E+03	3.404000E-17	0.000000E+00
5.519752E+03	3.368175E-17	0.000000E+00
5.529697E+03	3.330219E-17	0.000000E+00
5.539643E+03	3.291567E-17	0.000000E+00
5.549588E+03	3.253342E-17	0.000000E+00
5.559534E+03	3.216513E-17	0.000000E+00
5.569479E+03	3.181907E-17	0.000000E+00
5.579425E+03	3.150198E-17	0.000000E+00
5.589370E+03	3.121995E-17	0.000000E+00
5.599316E+03	3.097919E-17	0.000000E+00
5.609261E+03	3.078437E-17	0.000000E+00
5.619207E+03	3.064038E-17	0.000000E+00
5.629152E+03	3.055118E-17	0.000000E+00
5.639098E+03	3.052029E-17	0.000000E+00
5.649043E+03	3.055014E-17	0.000000E+00
5.658989E+03	3.064232E-17	0.000000E+00
5.668934E+03	3.079770E-17	0.000000E+00
5.678880E+03	3.101618E-17	0.000000E+00
5.688825E+03	3.129608E-17	0.000000E+00
5.698771E+03	3.163532E-17	0.000000E+00
5.708716E+03	3.203067E-17	0.000000E+00
5.718662E+03	3.247801E-17	0.000000E+00
5.728607E+03	3.297309E-17	0.000000E+00
5.738553E+03	3.350973E-17	0.000000E+00
5.748498E+03	3.408244E-17	0.000000E+00
5.758444E+03	3.468437E-17	0.000000E+00
5.768389E+03	3.530903E-17	0.000000E+00
5.778335E+03	3.594935E-17	0.000000E+00
5.788280E+03	3.659826E-17	0.000000E+00
5.798226E+03	3.724921E-17	0.000000E+00
5.808171E+03	3.789500E-17	0.000000E+00
5.818117E+03	3.852969E-17	0.000000E+00
5.828062E+03	3.914735E-17	0.000000E+00
5.838008E+03	3.974233E-17	0.000000E+00
5.847953E+03	4.031081E-17	0.000000E+00
5.857899E+03	4.084806E-17	0.000000E+00
5.867844E+03	4.135187E-17	0.000000E+00
5.877790E+03	4.181948E-17	0.000000E+00
5.887735E+03	4.224924E-17	0.000000E+00
5.897681E+03	4.264082E-17	0.000000E+00
5.907626E+03	4.299296E-17	0.000000E+00
5.917572E+03	4.330644E-17	0.000000E+00
5.927517E+03	4.358255E-17	0.000000E+00
5.937463E+03	4.382144E-17	0.000000E+00
5.947408E+03	4.402498E-17	0.000000E+00
5.957354E+03	4.419482E-17	0.000000E+00
5.967299E+03	4.433224E-17	0.000000E+00
5.977245E+03	4.443911E-17	0.000000E+00
5.987190E+03	4.451732E-17	0.000000E+00
5.997136E+03	4.456836E-17	0.000000E+00
6.007081E+03	4.459429E-17	0.000000E+00
6.017027E+03	4.459776E-17	0.000000E+00
6.026972E+03	4.457945E-17	0.000000E+00
6.036918E+03	4.454280E-17	0.000000E+00
6.046863E+03	4.448896E-17	0.000000E+00
6.056809E+03	4.442191E-17	0.000000E+00
6.066754E+03	4.434346E-17	0.000000E+00
6.076700E+03	4.425782E-17	0.000000E+00
6.086645E+03	4.416812E-17	0.000000E+00
6.096591E+03	4.407946E-17	0.000000E+00
6.106536E+03	4.399572E-17	0.000000E+00
6.116482E+03	4.392154E-17	0.000000E+00
6.126427E+03	4.386278E-17	0.000000E+00
6.136373E+03	4.382366E-17	0.000000E+00
6.146318E+03	4.380988E-17	0.000000E+00
6.156264E+03	4.382613E-17	0.000000E+00
6.166209E+03	4.387655E-17	0.000000E+00
6.176155E+03	4.396467E-17	0.000000E+00
6.186100E+03	4.409412E-17	0.000000E+00
6.196046E+03	4.426650E-17	0.000000E+00
6.205991E+03	4.448295E-17	0.000000E+00
6.215937E+03	4.474355E-17	0.000000E+00
6.225882E+03	4.504843E-17	0.000000E+00
6.235828E+03	4.539437E-17	0.000000E+00
6.245773E+03	4.577841E-17	0.000000E+00
6.255719E+03	4.619721E-17	0.000000E+00
6.265664E+03	4.664626E-17	0.000000E+00
6.275610E+03	4.711973E-17	0.000000E+00
6.285555E+03	4.761145E-17	0.000000E+00
6.295501E+03	4.811641E-17	0.000000E+00
6.305446E+03	4.862764E-17	0.000000E+00
6.315392E+03	4.913968E-17	0.000000E+00
6.325337E+03	4.964699E-17	0.000000E+00
6.335283E+03	5.014466E-17	0.000000E+00
6.345228E+03	5.062851E-17	0.000000E+00
6.355174E+03	5.109530E-17	0.000000E+00
6.365119E+03	5.154282E-17	0.000000E+00
6.375065E+03	5.196893E-17	0.000000E+00
6.385010E+03	5.237388E-17	0.000000E+00
6.394956E+03	5.275803E-17	0.000000E+00
6.404901E+03	5.312293E-17	0.000000E+00
6.414847E+03	5.347069E-17	0.000000E+00
6.424792E+03	5.380195E-17	0.000000E+00
6.434738E+03	5.411975E-17	0.000000E+00
6.444683E+03	5.442527E-17	0.000000E+00
6.454629E+03	5.472020E-17	0.000000E+00
6.464574E+03	5.500401E-17	0.000000E+00
6.474520E+03	5.527803E-17	0.000000E+00
6.484465E+03	5.554057E-17	0.000000E+00
6.494411E+03	5.579084E-17	0.000000E+00
6.504356E+03	5.602590E-17	0.000000E+00
6.514302E+03	5.624394E-17	0.000000E+00
6.524247E+03	5.644294E-17	0.000000E+00
6.534193E+03	5.661797E-17	0.000000E+00
6.544138E+03	5.676671E-17	0.000000E+00
6.554084E+03	5.688712E-17	0.000000E+00
6.564029E+03	5.697466E-17	0.000000E+00
6.573975E+03	5.702898E-17	0.000000E+00
6.583920E+03	5.704655E-17	0.000000E+00
6.593866E+03	5.702832E-17	0.000000E+00
6.603811E+03	5.697207E-17	0.000000E+00
6.613757E+03	5.687919E-17	0.000000E+00
6.623702E+03	5.675073E-17	0.000000E+00
6.633648E+03	5.658741E-17	0.000000E+00
6.643593E+03	5.639245E-17	0.000000E+00
6.653539E+03	5.616752E-17	0.000000E+00
6.663484E+03	5.591572E-17	0.000000E+00
6.673430E+03	5.564138E-17	0.000000E+00
6.683375E+03	5.534719E-17	0.000000E+00
6.693321E+03	5.503595E-17	0.000000E+00
6.703266E+03	5.471357E-17	0.000000E+00
6.713212E+03	5.438214E-17	0.000000E+00
6.723157E+03	5.404674E-17	0.000000E+00
6.733103E+03	5.371136E-17	0.000000E+00
6.743048E+03	5.337909E-17	0.000000E+00
6.752994E+03	5.305381E-17	0.000000E+00
6.762939E+03	5.273916E-17	0.000000E+00
6.772885E+03	5.243952E-17	0.000000E+00
6.782830E+03	5.215711E-17	0.000000E+00
6.792776E+03	5.189370E-17	0.000000E+00
6.802721E+03	5.165258E-17	0.000000E+00
6.812667E+03	5.143566E-17	0.000000E+00
6.822612E+03	5.124434E-17	0.000000E+00
6.832558E+03	5.107862E-17	0.000000E+00
6.842503E+03	5.093905E-17	0.000000E+00
6.852449E+03	5.082656E-17	0.000000E+00
6.862394E+03	5.073983E-17	0.000000E+00
6.872340E+03	5.067807E-17	0.000000E+00
6.882285E+03	5.064016E-17	0.000000E+00
6.892231E+03	5.062471E-17	0.000000E+00
6.902176E+03	5.063000E-17	0.000000E+00
6.912122E+03	5.065426E-17	0.000000E+00
6.922067E+03	5.069448E-17	0.000000E+00
6.932013E+03	5.074855E-17	0.000000E+00
6.941958E+03	5.081536E-17	0.000000E+00
6.951904E+03	5.089283E-17	0.000000E+00
6.961849E+03	5.097694E-17	0.000000E+00
6.971795E+03	5.106774E-17	0.000000E+00
6.981740E+03	5.116246E-17	0.000000E+00
6.991686E+03	5.125957E-17	0.000000E+00
7.001631E+03	5.135664E-17	0.000000E+00
7.011577E+03	5.145365E-17	0.000000E+00
7.021522E+03	5.154980E-17	0.000000E+00
7.031468E+03	5.164451E-17	0.000000E+00
7.041413E+03	5.173658E-17	0.000000E+00
7.051359E+03	5.182610E-17	0.000000E+00
7.061304E+03	5.191448E-17	0.000000E+00
7.071250E+03	5.200136E-17	0.000000E+00
7.081195E+03	5.208651E-17	0.000000E+00
7.091141E+03	5.217316E-17	0.000000E+00
7.101086E+03	5.226146E-17	0.000000E+00
7.111032E+03	5.235271E-17	0.000000E+00
7.120977E+03	5.244717E-17	0.000000E+00
7.130923E+03	5.254723E-17	0.000000E+00
7.140868E+03	5.265413E-17	0.000000E+00
7.150814E+03	5.276787E-17	0.000000E+00
7.160759E+03	5.288934E-17	0.000000E+00
7.170705E+03	5.302028E-17	0.000000E+00
7.180650E+03	5.316001E-17	0.000000E+00
7.190596E+03	5.330860E-17	0.000000E+00
7.200541E+03	5.346586E-17	0.000000E+00
7.210487E+03	5.363105E-17	0.000000E+00
7.220432E+03	5.380220E-17	0.000000E+00
7.230378E+03	5.398002E-17	0.000000E+00
7.240323E+03	5.416169E-17	0.000000E+00
7.250269E+03	5.434268E-17	0.000000E+00
7.260214E+03	5.452382E-17	0.000000E+00
7.270160E+03	5.469873E-17	0.000000E+00
7.280105E+03	5.486642E-17	0.000000E+00
7.290051E+03	5.502220E-17	0.000000E+00
7.299996E+03	5.516231E-17	0.000000E+00
7.309942E+03	5.528181E-17	0.000000E+00
7.319887E+03	5.537690E-17	0.000000E+00
7.329833E+03	5.544393E-17	0.000000E+00
7.339778E+03	5.547957E-17	0.000000E+00
7.349724E+03	5.547853E-17	0.000000E+00
7.359669E+03	5.543973E-17	0.000000E+00
7.369615E+03	5.535922E-17	0.000000E+00
7.379560E+03	5.523511E-17	0.000000E+00
7.389506E+03	5.506646E-17	0.000000E+00
7.399451E+03	5.485584E-17	0.000000E+00
7.409397E+03	5.460563E-17	0.000000E+00
7.419342E+03	5.432168E-17	0.000000E+00
7.429288E+03	5.401078E-17	0.000000E+00
7.439233E+03	5.367705E-17	0.000000E+00
7.449179E+03	5.332761E-17	0.000000E+00
7.459124E+03	5.297135E-17	0.000000E+00
7.469069E+03	5.261271E-17	0.000000E+00
7.479015E+03	5.226099E-17	0.000000E+00
7.488960E+03	5.192305E-17	0.000000E+00
7.498906E+03	5.160551E-17	0.000000E+00
7.508851E+03	5.131456E-17	0.000000E+00
7.518797E+03	5.105581E-17	0.000000E+00
7.528742E+03	5.083536E-17	0.000000E+00
7.538688E+03	5.065624E-17	0.000000E+00
7.548633E+03	5.052292E-17	0.000000E+00
7.558579E+03	5.043673E-17	0.000000E+00
7.568524E+03	5.040029E-17	0.000000E+00
7.578470E+03	5.041428E-17	0.000000E+00
7.588415E+03	5.047715E-17	0.000000E+00
7.598361E+03	5.058881E-17	0.000000E+00
7.608306E+03	5.074713E-17	0.000000E+00
7.618252E+03	5.094794E-17	0.000000E+00
7.628197E+03	5.118869E-17	0.000000E+00
7.638143E+03	5.146370E-17	0.000000E+00
7.648088E+03	5.177029E-17	0.000000E+00
7.658034E+03	5.210047E-17	0.000000E+00
7.667979E+03	5.244951E-17	0.000000E+00
7.677925E+03	5.280987E-17	0.000000E+00
7.687870E+03	5.317637E-17	0.000000E+00
7.697816E+03	5.354258E-17	0.000000E+00
7.707761E+03	5.390219E-17	0.000000E+00
7.717707E+03	5.424781E-17	0.000000E+00
