#wls	flux	fluxerr
1.591280E+03	3.046075E-17	0.000000E+00
1.631062E+03	3.171677E-17	0.000000E+00
1.670844E+03	3.283290E-17	0.000000E+00
1.710626E+03	3.378155E-17	0.000000E+00
1.750408E+03	3.453412E-17	0.000000E+00
1.790190E+03	3.501717E-17	0.000000E+00
1.829972E+03	3.515067E-17	0.000000E+00
1.869754E+03	3.483264E-17	0.000000E+00
1.909536E+03	3.398964E-17	0.000000E+00
1.949318E+03	3.258639E-17	0.000000E+00
1.989100E+03	3.070584E-17	0.000000E+00
2.028882E+03	2.861215E-17	0.000000E+00
2.068664E+03	2.675645E-17	0.000000E+00
2.108446E+03	2.567643E-17	0.000000E+00
2.148228E+03	2.582429E-17	0.000000E+00
2.188010E+03	2.744372E-17	0.000000E+00
2.227792E+03	3.052696E-17	0.000000E+00
2.267574E+03	3.489426E-17	0.000000E+00
2.307356E+03	4.024379E-17	0.000000E+00
2.347138E+03	4.626738E-17	0.000000E+00
2.386920E+03	5.272228E-17	0.000000E+00
2.426702E+03	5.944326E-17	0.000000E+00
2.466484E+03	6.635437E-17	0.000000E+00
2.506266E+03	7.342222E-17	0.000000E+00
2.546048E+03	8.065953E-17	0.000000E+00
2.585830E+03	8.808973E-17	0.000000E+00
2.625612E+03	9.575562E-17	0.000000E+00
2.665394E+03	1.036987E-16	0.000000E+00
2.705176E+03	1.119679E-16	0.000000E+00
2.744958E+03	1.206066E-16	0.000000E+00
2.784740E+03	1.296469E-16	0.000000E+00
2.824522E+03	1.391320E-16	0.000000E+00
2.864304E+03	1.490864E-16	0.000000E+00
2.904086E+03	1.595702E-16	0.000000E+00
2.943868E+03	1.707274E-16	0.000000E+00
2.983650E+03	1.827168E-16	0.000000E+00
2.993595E+03	1.858671E-16	0.000000E+00
3.003541E+03	1.890833E-16	0.000000E+00
3.013486E+03	1.923664E-16	0.000000E+00
3.023432E+03	1.957322E-16	0.000000E+00
3.033377E+03	1.991985E-16	0.000000E+00
3.043323E+03	2.027857E-16	0.000000E+00
3.053268E+03	2.065031E-16	0.000000E+00
3.063214E+03	2.103517E-16	0.000000E+00
3.073159E+03	2.143282E-16	0.000000E+00
3.083105E+03	2.184345E-16	0.000000E+00
3.093050E+03	2.226679E-16	0.000000E+00
3.102996E+03	2.270261E-16	0.000000E+00
3.112941E+03	2.315120E-16	0.000000E+00
3.122887E+03	2.361237E-16	0.000000E+00
3.132832E+03	2.408693E-16	0.000000E+00
3.142778E+03	2.457378E-16	0.000000E+00
3.152723E+03	2.507377E-16	0.000000E+00
3.162669E+03	2.558681E-16	0.000000E+00
3.172614E+03	2.611329E-16	0.000000E+00
3.182560E+03	2.665263E-16	0.000000E+00
3.192505E+03	2.720572E-16	0.000000E+00
3.202451E+03	2.777248E-16	0.000000E+00
3.212396E+03	2.835229E-16	0.000000E+00
3.222342E+03	2.894603E-16	0.000000E+00
3.232287E+03	2.955400E-16	0.000000E+00
3.242233E+03	3.017500E-16	0.000000E+00
3.252178E+03	3.080969E-16	0.000000E+00
3.262124E+03	3.145771E-16	0.000000E+00
3.272069E+03	3.211845E-16	0.000000E+00
3.282015E+03	3.279123E-16	0.000000E+00
3.291960E+03	3.347559E-16	0.000000E+00
3.301906E+03	3.417033E-16	0.000000E+00
3.311851E+03	3.487389E-16	0.000000E+00
3.321797E+03	3.558441E-16	0.000000E+00
3.331742E+03	3.629959E-16	0.000000E+00
3.341688E+03	3.701734E-16	0.000000E+00
3.351633E+03	3.773412E-16	0.000000E+00
3.361579E+03	3.844657E-16	0.000000E+00
3.371524E+03	3.915112E-16	0.000000E+00
3.381470E+03	3.984400E-16	0.000000E+00
3.391415E+03	4.052140E-16	0.000000E+00
3.401361E+03	4.117893E-16	0.000000E+00
3.411306E+03	4.181250E-16	0.000000E+00
3.421252E+03	4.241926E-16	0.000000E+00
3.431197E+03	4.299576E-16	0.000000E+00
3.441143E+03	4.353860E-16	0.000000E+00
3.451088E+03	4.404597E-16	0.000000E+00
3.461034E+03	4.451641E-16	0.000000E+00
3.470979E+03	4.494867E-16	0.000000E+00
3.480925E+03	4.534244E-16	0.000000E+00
3.490870E+03	4.569911E-16	0.000000E+00
3.500816E+03	4.601856E-16	0.000000E+00
3.510761E+03	4.630324E-16	0.000000E+00
3.520707E+03	4.655383E-16	0.000000E+00
3.530652E+03	4.677182E-16	0.000000E+00
3.540598E+03	4.695898E-16	0.000000E+00
3.550543E+03	4.711631E-16	0.000000E+00
3.560489E+03	4.724495E-16	0.000000E+00
3.570434E+03	4.734423E-16	0.000000E+00
3.580380E+03	4.741283E-16	0.000000E+00
3.590325E+03	4.744978E-16	0.000000E+00
3.600271E+03	4.745379E-16	0.000000E+00
3.610216E+03	4.742371E-16	0.000000E+00
3.620162E+03	4.735871E-16	0.000000E+00
3.630107E+03	4.725954E-16	0.000000E+00
3.640053E+03	4.712717E-16	0.000000E+00
3.649998E+03	4.696518E-16	0.000000E+00
3.659944E+03	4.677888E-16	0.000000E+00
3.669889E+03	4.657630E-16	0.000000E+00
3.679835E+03	4.636745E-16	0.000000E+00
3.689780E+03	4.616488E-16	0.000000E+00
3.699726E+03	4.598273E-16	0.000000E+00
3.709671E+03	4.583571E-16	0.000000E+00
3.719617E+03	4.573927E-16	0.000000E+00
3.729562E+03	4.570828E-16	0.000000E+00
3.739507E+03	4.575588E-16	0.000000E+00
3.749453E+03	4.589498E-16	0.000000E+00
3.759398E+03	4.613461E-16	0.000000E+00
3.769344E+03	4.648367E-16	0.000000E+00
3.779289E+03	4.694619E-16	0.000000E+00
3.789235E+03	4.752503E-16	0.000000E+00
3.799180E+03	4.821925E-16	0.000000E+00
3.809126E+03	4.902528E-16	0.000000E+00
3.819071E+03	4.993635E-16	0.000000E+00
3.829017E+03	5.094218E-16	0.000000E+00
3.838962E+03	5.202888E-16	0.000000E+00
3.848908E+03	5.317950E-16	0.000000E+00
3.858853E+03	5.437408E-16	0.000000E+00
3.868799E+03	5.559007E-16	0.000000E+00
3.878744E+03	5.680194E-16	0.000000E+00
3.888690E+03	5.798483E-16	0.000000E+00
3.898635E+03	5.911171E-16	0.000000E+00
3.908581E+03	6.015727E-16	0.000000E+00
3.918526E+03	6.109831E-16	0.000000E+00
3.928472E+03	6.191263E-16	0.000000E+00
3.938417E+03	6.258381E-16	0.000000E+00
3.948363E+03	6.309852E-16	0.000000E+00
3.958308E+03	6.344768E-16	0.000000E+00
3.968254E+03	6.362948E-16	0.000000E+00
3.978199E+03	6.364529E-16	0.000000E+00
3.988145E+03	6.350217E-16	0.000000E+00
3.998090E+03	6.321277E-16	0.000000E+00
4.008036E+03	6.279288E-16	0.000000E+00
4.017981E+03	6.226112E-16	0.000000E+00
4.027927E+03	6.164050E-16	0.000000E+00
4.037872E+03	6.095309E-16	0.000000E+00
4.047818E+03	6.022316E-16	0.000000E+00
4.057763E+03	5.947290E-16	0.000000E+00
4.067709E+03	5.872420E-16	0.000000E+00
4.077654E+03	5.799495E-16	0.000000E+00
4.087600E+03	5.730123E-16	0.000000E+00
4.097545E+03	5.665367E-16	0.000000E+00
4.107491E+03	5.606076E-16	0.000000E+00
4.117436E+03	5.552635E-16	0.000000E+00
4.127382E+03	5.505130E-16	0.000000E+00
4.137327E+03	5.463267E-16	0.000000E+00
4.147273E+03	5.426637E-16	0.000000E+00
4.157218E+03	5.394559E-16	0.000000E+00
4.167164E+03	5.366251E-16	0.000000E+00
4.177109E+03	5.340864E-16	0.000000E+00
4.187055E+03	5.317627E-16	0.000000E+00
4.197000E+03	5.295736E-16	0.000000E+00
4.206946E+03	5.274514E-16	0.000000E+00
4.216891E+03	5.253370E-16	0.000000E+00
4.226837E+03	5.231920E-16	0.000000E+00
4.236782E+03	5.209954E-16	0.000000E+00
4.246728E+03	5.187424E-16	0.000000E+00
4.256673E+03	5.164562E-16	0.000000E+00
4.266619E+03	5.141715E-16	0.000000E+00
4.276564E+03	5.119486E-16	0.000000E+00
4.286510E+03	5.098522E-16	0.000000E+00
4.296455E+03	5.079793E-16	0.000000E+00
4.306401E+03	5.064272E-16	0.000000E+00
4.316346E+03	5.053156E-16	0.000000E+00
4.326292E+03	5.047781E-16	0.000000E+00
4.336237E+03	5.049581E-16	0.000000E+00
4.346183E+03	5.060143E-16	0.000000E+00
4.356128E+03	5.081083E-16	0.000000E+00
4.366074E+03	5.114274E-16	0.000000E+00
4.376019E+03	5.161538E-16	0.000000E+00
4.385965E+03	5.224947E-16	0.000000E+00
4.395910E+03	5.306408E-16	0.000000E+00
4.405856E+03	5.407820E-16	0.000000E+00
4.415801E+03	5.530854E-16	0.000000E+00
4.425747E+03	5.677019E-16	0.000000E+00
4.435692E+03	5.847416E-16	0.000000E+00
4.445638E+03	6.042633E-16	0.000000E+00
4.455583E+03	6.262833E-16	0.000000E+00
4.465529E+03	6.507730E-16	0.000000E+00
4.475474E+03	6.776217E-16	0.000000E+00
4.485420E+03	7.066616E-16	0.000000E+00
4.495365E+03	7.376595E-16	0.000000E+00
4.505311E+03	7.702963E-16	0.000000E+00
4.515256E+03	8.041904E-16	0.000000E+00
4.525202E+03	8.388799E-16	0.000000E+00
4.535147E+03	8.738194E-16	0.000000E+00
4.545093E+03	9.084378E-16	0.000000E+00
4.555038E+03	9.420735E-16	0.000000E+00
4.564984E+03	9.740837E-16	0.000000E+00
4.574929E+03	1.003772E-15	0.000000E+00
4.584875E+03	1.030510E-15	0.000000E+00
4.594820E+03	1.053696E-15	0.000000E+00
4.604766E+03	1.072822E-15	0.000000E+00
4.614711E+03	1.087492E-15	0.000000E+00
4.624657E+03	1.097430E-15	0.000000E+00
4.634602E+03	1.102513E-15	0.000000E+00
4.644548E+03	1.102763E-15	0.000000E+00
4.654493E+03	1.098355E-15	0.000000E+00
4.664439E+03	1.089573E-15	0.000000E+00
4.674384E+03	1.076836E-15	0.000000E+00
4.684330E+03	1.060652E-15	0.000000E+00
4.694275E+03	1.041611E-15	0.000000E+00
4.704221E+03	1.020355E-15	0.000000E+00
4.714166E+03	9.975731E-16	0.000000E+00
4.724112E+03	9.739367E-16	0.000000E+00
4.734057E+03	9.501341E-16	0.000000E+00
4.744003E+03	9.267735E-16	0.000000E+00
4.753948E+03	9.044228E-16	0.000000E+00
4.763894E+03	8.835415E-16	0.000000E+00
4.773839E+03	8.645206E-16	0.000000E+00
4.783785E+03	8.476318E-16	0.000000E+00
4.793730E+03	8.330715E-16	0.000000E+00
4.803676E+03	8.209431E-16	0.000000E+00
4.813621E+03	8.112820E-16	0.000000E+00
4.823567E+03	8.040382E-16	0.000000E+00
4.833512E+03	7.990983E-16	0.000000E+00
4.843458E+03	7.962860E-16	0.000000E+00
4.853403E+03	7.953367E-16	0.000000E+00
4.863349E+03	7.959248E-16	0.000000E+00
4.873294E+03	7.976420E-16	0.000000E+00
4.883240E+03	8.000403E-16	0.000000E+00
4.893185E+03	8.026273E-16	0.000000E+00
4.903131E+03	8.049249E-16	0.000000E+00
4.913076E+03	8.065087E-16	0.000000E+00
4.923022E+03	8.070290E-16	0.000000E+00
4.932967E+03	8.062676E-16	0.000000E+00
4.942913E+03	8.041515E-16	0.000000E+00
4.952858E+03	8.007526E-16	0.000000E+00
4.962804E+03	7.963013E-16	0.000000E+00
4.972749E+03	7.910991E-16	0.000000E+00
4.982695E+03	7.855604E-16	0.000000E+00
4.992640E+03	7.800787E-16	0.000000E+00
5.002586E+03	7.750637E-16	0.000000E+00
5.012531E+03	7.708425E-16	0.000000E+00
5.022477E+03	7.676957E-16	0.000000E+00
5.032422E+03	7.657862E-16	0.000000E+00
5.042368E+03	7.652154E-16	0.000000E+00
5.052313E+03	7.659986E-16	0.000000E+00
5.062259E+03	7.681086E-16	0.000000E+00
5.072204E+03	7.714944E-16	0.000000E+00
5.082150E+03	7.760790E-16	0.000000E+00
5.092095E+03	7.818138E-16	0.000000E+00
5.102041E+03	7.886666E-16	0.000000E+00
5.111986E+03	7.966195E-16	0.000000E+00
5.121932E+03	8.056909E-16	0.000000E+00
5.131877E+03	8.158840E-16	0.000000E+00
5.141823E+03	8.272327E-16	0.000000E+00
5.151768E+03	8.397259E-16	0.000000E+00
5.161714E+03	8.533210E-16	0.000000E+00
5.171659E+03	8.679462E-16	0.000000E+00
5.181605E+03	8.834655E-16	0.000000E+00
5.191550E+03	8.997083E-16	0.000000E+00
5.201496E+03	9.164368E-16	0.000000E+00
5.211441E+03	9.334146E-16	0.000000E+00
5.221387E+03	9.503635E-16	0.000000E+00
5.231332E+03	9.670133E-16	0.000000E+00
5.241278E+03	9.831046E-16	0.000000E+00
5.251223E+03	9.984308E-16	0.000000E+00
5.261169E+03	1.012827E-15	0.000000E+00
5.271114E+03	1.026179E-15	0.000000E+00
5.281060E+03	1.038443E-15	0.000000E+00
5.291005E+03	1.049643E-15	0.000000E+00
5.300951E+03	1.059822E-15	0.000000E+00
5.310896E+03	1.069059E-15	0.000000E+00
5.320842E+03	1.077384E-15	0.000000E+00
5.330787E+03	1.084827E-15	0.000000E+00
5.340733E+03	1.091304E-15	0.000000E+00
5.350678E+03	1.096679E-15	0.000000E+00
5.360624E+03	1.100725E-15	0.000000E+00
5.370569E+03	1.103158E-15	0.000000E+00
5.380515E+03	1.103646E-15	0.000000E+00
5.390460E+03	1.101929E-15	0.000000E+00
5.400406E+03	1.097802E-15	0.000000E+00
5.410351E+03	1.091191E-15	0.000000E+00
5.420297E+03	1.082273E-15	0.000000E+00
5.430242E+03	1.071443E-15	0.000000E+00
5.440188E+03	1.059442E-15	0.000000E+00
5.450133E+03	1.047329E-15	0.000000E+00
5.460079E+03	1.036203E-15	0.000000E+00
5.470024E+03	1.026525E-15	0.000000E+00
5.479970E+03	1.017745E-15	0.000000E+00
5.489915E+03	1.008894E-15	0.000000E+00
5.499861E+03	9.990900E-16	0.000000E+00
5.509806E+03	9.877108E-16	0.000000E+00
5.519752E+03	9.743831E-16	0.000000E+00
5.529697E+03	9.588975E-16	0.000000E+00
5.539643E+03	9.412582E-16	0.000000E+00
5.549588E+03	9.216471E-16	0.000000E+00
5.559534E+03	9.004063E-16	0.000000E+00
5.569479E+03	8.780780E-16	0.000000E+00
5.579425E+03	8.552889E-16	0.000000E+00
5.589370E+03	8.327688E-16	0.000000E+00
5.599316E+03	8.112562E-16	0.000000E+00
5.609261E+03	7.914459E-16	0.000000E+00
5.619207E+03	7.739678E-16	0.000000E+00
5.629152E+03	7.593108E-16	0.000000E+00
5.639098E+03	7.478611E-16	0.000000E+00
5.649043E+03	7.398370E-16	0.000000E+00
5.658989E+03	7.353360E-16	0.000000E+00
5.668934E+03	7.343063E-16	0.000000E+00
5.678880E+03	7.366209E-16	0.000000E+00
5.688825E+03	7.420413E-16	0.000000E+00
5.698771E+03	7.502724E-16	0.000000E+00
5.708716E+03	7.609796E-16	0.000000E+00
5.718662E+03	7.737945E-16	0.000000E+00
5.728607E+03	7.883189E-16	0.000000E+00
5.738553E+03	8.041966E-16	0.000000E+00
5.748498E+03	8.210362E-16	0.000000E+00
5.758444E+03	8.384851E-16	0.000000E+00
5.768389E+03	8.562035E-16	0.000000E+00
5.778335E+03	8.738376E-16	0.000000E+00
5.788280E+03	8.910857E-16	0.000000E+00
5.798226E+03	9.076336E-16	0.000000E+00
5.808171E+03	9.232091E-16	0.000000E+00
5.818117E+03	9.375517E-16	0.000000E+00
5.828062E+03	9.504711E-16	0.000000E+00
5.838008E+03	9.617855E-16	0.000000E+00
5.847953E+03	9.714109E-16	0.000000E+00
5.857899E+03	9.792906E-16	0.000000E+00
5.867844E+03	9.854450E-16	0.000000E+00
5.877790E+03	9.899204E-16	0.000000E+00
5.887735E+03	9.928266E-16	0.000000E+00
5.897681E+03	9.942890E-16	0.000000E+00
5.907626E+03	9.944611E-16	0.000000E+00
5.917572E+03	9.934692E-16	0.000000E+00
5.927517E+03	9.914953E-16	0.000000E+00
5.937463E+03	9.886550E-16	0.000000E+00
5.947408E+03	9.850847E-16	0.000000E+00
5.957354E+03	9.808935E-16	0.000000E+00
5.967299E+03	9.761713E-16	0.000000E+00
5.977245E+03	9.710007E-16	0.000000E+00
5.987190E+03	9.654327E-16	0.000000E+00
5.997136E+03	9.595003E-16	0.000000E+00
6.007081E+03	9.532160E-16	0.000000E+00
6.017027E+03	9.465871E-16	0.000000E+00
6.026972E+03	9.395773E-16	0.000000E+00
6.036918E+03	9.321558E-16	0.000000E+00
6.046863E+03	9.242681E-16	0.000000E+00
6.056809E+03	9.158664E-16	0.000000E+00
6.066754E+03	9.068899E-16	0.000000E+00
6.076700E+03	8.973441E-16	0.000000E+00
6.086645E+03	8.872358E-16	0.000000E+00
6.096591E+03	8.766832E-16	0.000000E+00
6.106536E+03	8.658434E-16	0.000000E+00
6.116482E+03	8.549650E-16	0.000000E+00
6.126427E+03	8.443320E-16	0.000000E+00
6.136373E+03	8.342935E-16	0.000000E+00
6.146318E+03	8.251849E-16	0.000000E+00
6.156264E+03	8.173222E-16	0.000000E+00
6.166209E+03	8.109797E-16	0.000000E+00
6.176155E+03	8.063870E-16	0.000000E+00
6.186100E+03	8.036991E-16	0.000000E+00
6.196046E+03	8.029924E-16	0.000000E+00
6.205991E+03	8.043018E-16	0.000000E+00
6.215937E+03	8.075781E-16	0.000000E+00
6.225882E+03	8.127422E-16	0.000000E+00
6.235828E+03	8.196524E-16	0.000000E+00
6.245773E+03	8.281227E-16	0.000000E+00
6.255719E+03	8.379142E-16	0.000000E+00
6.265664E+03	8.487965E-16	0.000000E+00
6.275610E+03	8.604623E-16	0.000000E+00
6.285555E+03	8.726016E-16	0.000000E+00
6.295501E+03	8.848906E-16	0.000000E+00
6.305446E+03	8.970085E-16	0.000000E+00
6.315392E+03	9.086375E-16	0.000000E+00
6.325337E+03	9.195266E-16	0.000000E+00
6.335283E+03	9.294679E-16	0.000000E+00
6.345228E+03	9.383274E-16	0.000000E+00
6.355174E+03	9.460418E-16	0.000000E+00
6.365119E+03	9.526468E-16	0.000000E+00
6.375065E+03	9.582181E-16	0.000000E+00
6.385010E+03	9.629567E-16	0.000000E+00
6.394956E+03	9.670441E-16	0.000000E+00
6.404901E+03	9.707346E-16	0.000000E+00
6.414847E+03	9.742615E-16	0.000000E+00
6.424792E+03	9.778589E-16	0.000000E+00
6.434738E+03	9.817323E-16	0.000000E+00
6.444683E+03	9.860595E-16	0.000000E+00
6.454629E+03	9.909339E-16	0.000000E+00
6.464574E+03	9.964252E-16	0.000000E+00
6.474520E+03	1.002527E-15	0.000000E+00
6.484465E+03	1.009191E-15	0.000000E+00
6.494411E+03	1.016297E-15	0.000000E+00
6.504356E+03	1.023706E-15	0.000000E+00
6.514302E+03	1.031184E-15	0.000000E+00
6.524247E+03	1.038531E-15	0.000000E+00
6.534193E+03	1.045459E-15	0.000000E+00
6.544138E+03	1.051710E-15	0.000000E+00
6.554084E+03	1.057058E-15	0.000000E+00
6.564029E+03	1.061276E-15	0.000000E+00
6.573975E+03	1.064221E-15	0.000000E+00
6.583920E+03	1.065774E-15	0.000000E+00
6.593866E+03	1.065912E-15	0.000000E+00
6.603811E+03	1.064639E-15	0.000000E+00
6.613757E+03	1.062020E-15	0.000000E+00
6.623702E+03	1.058177E-15	0.000000E+00
6.633648E+03	1.053230E-15	0.000000E+00
6.643593E+03	1.047288E-15	0.000000E+00
6.653539E+03	1.040476E-15	0.000000E+00
6.663484E+03	1.032923E-15	0.000000E+00
6.673430E+03	1.024712E-15	0.000000E+00
6.683375E+03	1.015948E-15	0.000000E+00
6.693321E+03	1.006716E-15	0.000000E+00
6.703266E+03	9.970796E-16	0.000000E+00
6.713212E+03	9.871467E-16	0.000000E+00
6.723157E+03	9.770181E-16	0.000000E+00
6.733103E+03	9.667942E-16	0.000000E+00
6.743048E+03	9.566075E-16	0.000000E+00
6.752994E+03	9.466339E-16	0.000000E+00
6.762939E+03	9.369867E-16	0.000000E+00
6.772885E+03	9.278243E-16	0.000000E+00
6.782830E+03	9.192755E-16	0.000000E+00
6.792776E+03	9.114313E-16	0.000000E+00
6.802721E+03	9.043934E-16	0.000000E+00
6.812667E+03	8.982024E-16	0.000000E+00
6.822612E+03	8.929223E-16	0.000000E+00
6.832558E+03	8.885277E-16	0.000000E+00
6.842503E+03	8.850040E-16	0.000000E+00
6.852449E+03	8.823520E-16	0.000000E+00
6.862394E+03	8.804903E-16	0.000000E+00
6.872340E+03	8.793748E-16	0.000000E+00
6.882285E+03	8.789164E-16	0.000000E+00
6.892231E+03	8.790525E-16	0.000000E+00
6.902176E+03	8.796971E-16	0.000000E+00
6.912122E+03	8.807436E-16	0.000000E+00
6.922067E+03	8.821183E-16	0.000000E+00
6.932013E+03	8.837150E-16	0.000000E+00
6.941958E+03	8.854639E-16	0.000000E+00
6.951904E+03	8.872830E-16	0.000000E+00
6.961849E+03	8.890774E-16	0.000000E+00
6.971795E+03	8.907923E-16	0.000000E+00
6.981740E+03	8.923447E-16	0.000000E+00
6.991686E+03	8.936740E-16	0.000000E+00
7.001631E+03	8.947448E-16	0.000000E+00
7.011577E+03	8.955127E-16	0.000000E+00
7.021522E+03	8.959096E-16	0.000000E+00
7.031468E+03	8.959506E-16	0.000000E+00
7.041413E+03	8.956303E-16	0.000000E+00
7.051359E+03	8.949432E-16	0.000000E+00
7.061304E+03	8.939169E-16	0.000000E+00
7.071250E+03	8.925952E-16	0.000000E+00
7.081195E+03	8.910521E-16	0.000000E+00
7.091141E+03	8.893204E-16	0.000000E+00
7.101086E+03	8.875111E-16	0.000000E+00
7.111032E+03	8.857036E-16	0.000000E+00
7.120977E+03	8.839400E-16	0.000000E+00
7.130923E+03	8.823128E-16	0.000000E+00
7.140868E+03	8.808883E-16	0.000000E+00
7.150814E+03	8.797424E-16	0.000000E+00
7.160759E+03	8.788846E-16	0.000000E+00
7.170705E+03	8.783859E-16	0.000000E+00
7.180650E+03	8.782323E-16	0.000000E+00
7.190596E+03	8.784761E-16	0.000000E+00
7.200541E+03	8.790869E-16	0.000000E+00
7.210487E+03	8.800831E-16	0.000000E+00
7.220432E+03	8.814764E-16	0.000000E+00
7.230378E+03	8.832106E-16	0.000000E+00
7.240323E+03	8.852772E-16	0.000000E+00
7.250269E+03	8.876327E-16	0.000000E+00
7.260214E+03	8.902163E-16	0.000000E+00
7.270160E+03	8.929487E-16	0.000000E+00
7.280105E+03	8.957516E-16	0.000000E+00
7.290051E+03	8.984684E-16	0.000000E+00
7.299996E+03	9.010067E-16	0.000000E+00
7.309942E+03	9.032001E-16	0.000000E+00
7.319887E+03	9.049156E-16	0.000000E+00
7.329833E+03	9.059714E-16	0.000000E+00
7.339778E+03	9.062503E-16	0.000000E+00
7.349724E+03	9.055951E-16	0.000000E+00
7.359669E+03	9.038622E-16	0.000000E+00
7.369615E+03	9.009425E-16	0.000000E+00
7.379560E+03	8.967358E-16	0.000000E+00
7.389506E+03	8.912189E-16	0.000000E+00
7.399451E+03	8.843304E-16	0.000000E+00
7.409397E+03	8.761489E-16	0.000000E+00
7.419342E+03	8.667483E-16	0.000000E+00
7.429288E+03	8.562652E-16	0.000000E+00
7.439233E+03	8.449295E-16	0.000000E+00
7.449179E+03	8.329361E-16	0.000000E+00
7.459124E+03	8.206080E-16	0.000000E+00
7.469069E+03	8.082198E-16	0.000000E+00
7.479015E+03	7.960401E-16	0.000000E+00
7.488960E+03	7.843611E-16	0.000000E+00
7.498906E+03	7.734057E-16	0.000000E+00
7.508851E+03	7.633682E-16	0.000000E+00
7.518797E+03	7.544676E-16	0.000000E+00
7.528742E+03	7.468340E-16	0.000000E+00
7.538688E+03	7.405719E-16	0.000000E+00
7.548633E+03	7.357971E-16	0.000000E+00
7.558579E+03	7.325590E-16	0.000000E+00
7.568524E+03	7.309012E-16	0.000000E+00
7.578470E+03	7.308553E-16	0.000000E+00
7.588415E+03	7.324041E-16	0.000000E+00
7.598361E+03	7.354614E-16	0.000000E+00
7.608306E+03	7.399850E-16	0.000000E+00
7.618252E+03	7.458469E-16	0.000000E+00
7.628197E+03	7.529077E-16	0.000000E+00
7.638143E+03	7.610278E-16	0.000000E+00
7.648088E+03	7.700041E-16	0.000000E+00
7.658034E+03	7.796414E-16	0.000000E+00
7.667979E+03	7.897524E-16	0.000000E+00
7.677925E+03	8.001064E-16	0.000000E+00
7.687870E+03	8.105114E-16	0.000000E+00
7.697816E+03	8.207380E-16	0.000000E+00
7.707761E+03	8.306093E-16	0.000000E+00
7.717707E+03	8.399159E-16	0.000000E+00
