#wls	flux	fluxerr
1.591280E+03	2.168110E-18	8.394394E-20
1.631062E+03	2.210981E-18	8.539325E-20
1.670844E+03	2.239608E-18	8.627995E-20
1.710626E+03	2.253461E-18	8.658757E-20
1.750408E+03	2.250887E-18	8.625696E-20
1.790190E+03	2.228482E-18	8.516298E-20
1.829972E+03	2.182245E-18	8.315958E-20
1.869754E+03	2.108282E-18	8.010673E-20
1.909536E+03	2.004348E-18	7.592918E-20
1.949318E+03	1.870610E-18	7.064429E-20
1.989100E+03	1.715206E-18	6.456993E-20
2.028882E+03	1.554631E-18	5.833406E-20
2.068664E+03	1.413121E-18	5.284638E-20
2.108446E+03	1.317823E-18	4.911259E-20
2.148228E+03	1.287744E-18	4.782145E-20
2.188010E+03	1.329098E-18	4.917730E-20
2.227792E+03	1.435579E-18	5.291820E-20
2.267574E+03	1.591844E-18	5.845256E-20
2.307356E+03	1.779655E-18	6.509046E-20
2.347138E+03	1.982445E-18	7.221270E-20
2.386920E+03	2.188348E-18	7.937999E-20
2.426702E+03	2.389145E-18	8.629179E-20
2.466484E+03	2.582443E-18	9.286220E-20
2.506266E+03	2.766009E-18	9.901268E-20
2.546048E+03	2.941369E-18	1.048002E-19
2.585830E+03	3.109015E-18	1.102444E-19
2.625612E+03	3.272450E-18	1.154706E-19
2.665394E+03	3.432157E-18	1.204961E-19
2.705176E+03	3.591437E-18	1.254364E-19
2.744958E+03	3.751906E-18	1.303457E-19
2.784740E+03	3.915784E-18	1.352981E-19
2.824522E+03	4.086037E-18	1.403917E-19
2.864304E+03	4.263685E-18	1.456555E-19
2.904086E+03	4.452681E-18	1.512171E-19
2.943868E+03	4.655872E-18	1.571636E-19
2.983650E+03	4.874776E-18	1.635346E-19
2.993595E+03	4.933087E-18	1.652301E-19
3.003541E+03	4.991873E-18	1.669341E-19
3.013486E+03	5.052011E-18	1.686757E-19
3.023432E+03	5.114555E-18	1.704898E-19
3.033377E+03	5.178407E-18	1.723395E-19
3.043323E+03	5.245724E-18	1.742961E-19
3.053268E+03	5.315015E-18	1.763096E-19
3.063214E+03	5.387972E-18	1.784356E-19
3.073159E+03	5.462739E-18	1.806122E-19
3.083105E+03	5.541082E-18	1.828972E-19
3.093050E+03	5.622063E-18	1.852592E-19
3.102996E+03	5.704707E-18	1.876654E-19
3.112941E+03	5.790895E-18	1.901775E-19
3.122887E+03	5.878703E-18	1.927315E-19
3.132832E+03	5.970092E-18	1.953915E-19
3.142778E+03	6.064118E-18	1.981258E-19
3.152723E+03	6.159786E-18	2.009015E-19
3.162669E+03	6.259175E-18	2.037860E-19
3.172614E+03	6.360267E-18	2.067129E-19
3.182560E+03	6.465224E-18	2.097520E-19
3.192505E+03	6.573080E-18	2.128714E-19
3.202451E+03	6.683911E-18	2.160728E-19
3.212396E+03	6.796685E-18	2.193224E-19
3.222342E+03	6.913740E-18	2.226950E-19
3.232287E+03	7.034072E-18	2.261576E-19
3.242233E+03	7.156621E-18	2.296755E-19
3.252178E+03	7.283863E-18	2.333275E-19
3.262124E+03	7.414773E-18	2.370799E-19
3.272069E+03	7.549501E-18	2.409368E-19
3.282015E+03	7.688199E-18	2.449022E-19
3.291960E+03	7.829752E-18	2.489399E-19
3.301906E+03	7.976893E-18	2.531360E-19
3.311851E+03	8.128539E-18	2.574550E-19
3.321797E+03	8.284894E-18	2.619026E-19
3.331742E+03	8.446158E-18	2.664840E-19
3.341688E+03	8.612558E-18	2.712054E-19
3.351633E+03	8.782867E-18	2.760272E-19
3.361579E+03	8.960194E-18	2.810460E-19
3.371524E+03	9.143366E-18	2.862238E-19
3.381470E+03	9.332639E-18	2.915673E-19
3.391415E+03	9.528291E-18	2.970840E-19
3.401361E+03	9.730592E-18	3.027808E-19
3.411306E+03	9.939838E-18	3.086657E-19
3.421252E+03	1.015633E-17	3.147464E-19
3.431197E+03	1.038037E-17	3.210310E-19
3.441143E+03	1.061228E-17	3.275276E-19
3.451088E+03	1.085238E-17	3.342448E-19
3.461034E+03	1.109920E-17	3.411352E-19
3.470979E+03	1.135667E-17	3.483181E-19
3.480925E+03	1.162335E-17	3.557475E-19
3.490870E+03	1.189961E-17	3.634323E-19
3.500816E+03	1.218579E-17	3.713812E-19
3.510761E+03	1.248226E-17	3.796031E-19
3.520707E+03	1.278938E-17	3.881070E-19
3.530652E+03	1.310750E-17	3.969012E-19
3.540598E+03	1.343698E-17	4.059942E-19
3.550543E+03	1.377818E-17	4.153942E-19
3.560489E+03	1.413143E-17	4.251091E-19
3.570434E+03	1.449707E-17	4.351461E-19
3.580380E+03	1.487784E-17	4.455846E-19
3.590325E+03	1.526926E-17	4.562881E-19
3.600271E+03	1.567400E-17	4.673330E-19
3.610216E+03	1.609230E-17	4.787244E-19
3.620162E+03	1.652441E-17	4.904664E-19
3.630107E+03	1.697054E-17	5.025624E-19
3.640053E+03	1.743088E-17	5.150147E-19
3.649998E+03	1.790558E-17	5.278246E-19
3.659944E+03	1.839473E-17	5.409923E-19
3.669889E+03	1.889843E-17	5.545165E-19
3.679835E+03	1.941667E-17	5.683948E-19
3.689780E+03	1.994946E-17	5.826234E-19
3.699726E+03	2.049670E-17	5.971968E-19
3.709671E+03	2.105826E-17	6.121080E-19
3.719617E+03	2.163397E-17	6.273484E-19
3.729562E+03	2.222355E-17	6.429075E-19
3.739507E+03	2.283037E-17	6.588787E-19
3.749453E+03	2.344679E-17	6.750390E-19
3.759398E+03	2.407594E-17	6.914756E-19
3.769344E+03	2.471727E-17	7.081701E-19
3.779289E+03	2.537017E-17	7.251025E-19
3.789235E+03	2.603396E-17	7.422504E-19
3.799180E+03	2.670786E-17	7.595893E-19
3.809126E+03	2.739101E-17	7.770928E-19
3.819071E+03	2.808247E-17	7.947320E-19
3.829017E+03	2.878122E-17	8.124762E-19
3.838962E+03	2.948615E-17	8.302925E-19
3.848908E+03	3.019608E-17	8.481464E-19
3.858853E+03	3.091461E-17	8.661377E-19
3.868799E+03	3.163072E-17	8.839563E-19
3.878744E+03	3.234774E-17	9.016955E-19
3.888690E+03	3.306422E-17	9.193148E-19
3.898635E+03	3.377852E-17	9.367687E-19
3.908581E+03	3.448906E-17	9.540143E-19
3.918526E+03	3.519414E-17	9.710053E-19
3.928472E+03	3.589199E-17	9.876940E-19
3.938417E+03	3.658085E-17	1.004034E-18
3.948363E+03	3.725893E-17	1.019978E-18
3.958308E+03	3.792433E-17	1.035477E-18
3.968254E+03	3.857522E-17	1.050483E-18
3.978199E+03	3.920982E-17	1.064952E-18
3.988145E+03	3.982631E-17	1.078838E-18
3.998090E+03	4.042307E-17	1.092101E-18
4.008036E+03	4.099872E-17	1.104709E-18
4.017981E+03	4.155240E-17	1.116643E-18
4.027927E+03	4.208355E-17	1.127893E-18
4.037872E+03	4.259210E-17	1.138462E-18
4.047818E+03	4.307835E-17	1.148364E-18
4.057763E+03	4.354311E-17	1.157625E-18
4.067709E+03	4.398747E-17	1.166279E-18
4.077654E+03	4.441294E-17	1.174370E-18
4.087600E+03	4.482134E-17	1.181952E-18
4.097545E+03	4.521451E-17	1.189076E-18
4.107491E+03	4.559430E-17	1.195795E-18
4.117436E+03	4.596245E-17	1.202157E-18
4.127382E+03	4.632050E-17	1.208205E-18
4.137327E+03	4.666980E-17	1.213978E-18
4.147273E+03	4.701149E-17	1.219507E-18
4.157218E+03	4.734675E-17	1.224824E-18
4.167164E+03	4.767668E-17	1.229961E-18
4.177109E+03	4.799506E-17	1.234758E-18
4.187055E+03	4.831808E-17	1.239633E-18
4.197000E+03	4.863967E-17	1.244432E-18
4.206946E+03	4.896139E-17	1.249195E-18
4.216891E+03	4.928481E-17	1.253962E-18
4.226837E+03	4.961167E-17	1.258777E-18
4.236782E+03	4.994374E-17	1.263686E-18
4.246728E+03	5.027495E-17	1.268534E-18
4.256673E+03	5.062254E-17	1.273756E-18
4.266619E+03	5.098050E-17	1.279199E-18
4.276564E+03	5.135054E-17	1.284904E-18
4.286510E+03	5.172652E-17	1.290716E-18
4.296455E+03	5.212671E-17	1.297088E-18
4.306401E+03	5.254592E-17	1.303889E-18
4.316346E+03	5.298775E-17	1.311204E-18
4.326292E+03	5.344793E-17	1.318923E-18
4.336237E+03	5.394676E-17	1.327544E-18
4.346183E+03	5.447952E-17	1.336943E-18
4.356128E+03	5.504049E-17	1.346976E-18
4.366074E+03	5.564832E-17	1.358091E-18
4.376019E+03	5.629519E-17	1.370091E-18
4.385965E+03	5.697210E-17	1.382750E-18
4.395910E+03	5.769580E-17	1.396469E-18
4.405856E+03	5.844771E-17	1.410793E-18
4.415801E+03	5.924484E-17	1.426125E-18
4.425747E+03	6.006864E-17	1.442013E-18
4.435692E+03	6.093726E-17	1.458888E-18
4.445638E+03	6.183242E-17	1.476306E-18
4.455583E+03	6.277335E-17	1.494723E-18
4.465529E+03	6.374111E-17	1.513680E-18
4.475474E+03	6.475428E-17	1.533615E-18
4.485420E+03	6.579007E-17	1.553981E-18
4.495365E+03	6.686223E-17	1.575102E-18
4.505311E+03	6.794071E-17	1.596266E-18
4.515256E+03	6.903330E-17	1.617655E-18
4.525202E+03	7.010321E-17	1.638411E-18
4.535147E+03	7.114340E-17	1.658375E-18
4.545093E+03	7.214780E-17	1.677413E-18
4.555038E+03	7.307966E-17	1.694682E-18
4.564984E+03	7.393807E-17	1.710177E-18
4.574929E+03	7.472708E-17	1.724005E-18
4.584875E+03	7.542208E-17	1.735615E-18
4.594820E+03	7.603816E-17	1.745371E-18
4.604766E+03	7.658523E-17	1.753516E-18
4.614711E+03	7.709088E-17	1.760694E-18
4.624657E+03	7.755210E-17	1.766845E-18
4.634602E+03	7.800265E-17	1.772745E-18
4.644548E+03	7.846473E-17	1.778901E-18
4.654493E+03	7.895952E-17	1.785791E-18
4.664439E+03	7.950644E-17	1.793851E-18
4.674384E+03	8.012185E-17	1.803442E-18
4.684330E+03	8.081798E-17	1.814829E-18
4.694275E+03	8.160204E-17	1.828163E-18
4.704221E+03	8.247524E-17	1.843461E-18
4.714166E+03	8.344295E-17	1.860831E-18
4.724112E+03	8.445028E-17	1.879040E-18
4.734057E+03	8.551041E-17	1.898377E-18
4.744003E+03	8.658159E-17	1.917913E-18
4.753948E+03	8.763463E-17	1.937005E-18
4.763894E+03	8.864425E-17	1.955100E-18
4.773839E+03	8.959095E-17	1.971780E-18
4.783785E+03	9.046340E-17	1.986807E-18
4.793730E+03	9.126012E-17	2.000162E-18
4.803676E+03	9.198838E-17	2.012017E-18
4.813621E+03	9.264842E-17	2.022390E-18
4.823567E+03	9.328738E-17	2.032319E-18
4.833512E+03	9.391244E-17	2.041966E-18
4.843458E+03	9.454164E-17	2.051727E-18
4.853403E+03	9.517245E-17	2.061549E-18
4.863349E+03	9.583888E-17	2.072168E-18
4.873294E+03	9.652621E-17	2.083264E-18
4.883240E+03	9.721436E-17	2.094404E-18
4.893185E+03	9.792457E-17	2.106043E-18
4.903131E+03	9.862150E-17	2.117424E-18
4.913076E+03	9.933306E-17	2.129145E-18
4.923022E+03	1.000461E-16	2.140925E-18
4.932967E+03	1.007478E-16	2.152493E-18
4.942913E+03	1.014698E-16	2.164522E-18
4.952858E+03	1.021811E-16	2.176355E-18
4.962804E+03	1.028937E-16	2.188246E-18
4.972749E+03	1.036171E-16	2.200398E-18
4.982695E+03	1.043133E-16	2.212008E-18
4.992640E+03	1.050090E-16	2.223641E-18
5.002586E+03	1.056726E-16	2.234634E-18
5.012531E+03	1.063245E-16	2.245416E-18
5.022477E+03	1.069896E-16	2.256518E-18
5.032422E+03	1.076490E-16	2.267540E-18
5.042368E+03	1.083339E-16	2.279141E-18
5.052313E+03	1.090596E-16	2.291637E-18
5.062259E+03	1.098556E-16	2.305653E-18
5.072204E+03	1.107002E-16	2.320722E-18
5.082150E+03	1.116169E-16	2.337339E-18
5.092095E+03	1.126090E-16	2.355567E-18
5.102041E+03	1.136746E-16	2.375361E-18
5.111986E+03	1.148051E-16	2.396542E-18
5.121932E+03	1.159845E-16	2.418773E-18
5.131877E+03	1.171915E-16	2.441606E-18
5.141823E+03	1.184030E-16	2.464564E-18
5.151768E+03	1.195968E-16	2.487186E-18
5.161714E+03	1.207530E-16	2.509058E-18
5.171659E+03	1.218546E-16	2.529836E-18
5.181605E+03	1.228889E-16	2.549258E-18
5.191550E+03	1.238470E-16	2.567146E-18
5.201496E+03	1.247235E-16	2.583392E-18
5.211441E+03	1.255165E-16	2.597961E-18
5.221387E+03	1.262279E-16	2.610899E-18
5.231332E+03	1.268456E-16	2.621957E-18
5.241278E+03	1.274184E-16	2.632153E-18
5.251223E+03	1.279408E-16	2.641373E-18
5.261169E+03	1.284233E-16	2.649835E-18
5.271114E+03	1.288514E-16	2.657243E-18
5.281060E+03	1.292636E-16	2.664394E-18
5.291005E+03	1.296393E-16	2.670863E-18
5.300951E+03	1.299572E-16	2.676214E-18
5.310896E+03	1.302543E-16	2.681210E-18
5.320842E+03	1.305105E-16	2.685438E-18
5.330787E+03	1.307060E-16	2.688491E-18
5.340733E+03	1.308790E-16	2.691160E-18
5.350678E+03	1.309896E-16	2.692623E-18
5.360624E+03	1.310748E-16	2.693641E-18
5.370569E+03	1.310955E-16	2.693411E-18
5.380515E+03	1.310951E-16	2.692827E-18
5.390460E+03	1.310471E-16	2.691342E-18
5.400406E+03	1.309896E-16	2.689742E-18
5.410351E+03	1.309659E-16	2.688909E-18
5.420297E+03	1.309640E-16	2.688602E-18
5.430242E+03	1.310501E-16	2.690177E-18
5.440188E+03	1.312097E-16	2.693334E-18
5.450133E+03	1.314795E-16	2.698827E-18
5.460079E+03	1.318678E-16	2.706828E-18
5.470024E+03	1.323902E-16	2.717655E-18
5.479970E+03	1.329887E-16	2.730117E-18
5.489915E+03	1.336511E-16	2.743968E-18
5.499861E+03	1.343369E-16	2.758373E-18
5.509806E+03	1.349991E-16	2.772373E-18
5.519752E+03	1.355901E-16	2.784987E-18
5.529697E+03	1.360878E-16	2.795763E-18
5.539643E+03	1.364205E-16	2.803227E-18
5.549588E+03	1.365894E-16	2.807399E-18
5.559534E+03	1.365886E-16	2.808157E-18
5.569479E+03	1.364256E-16	2.805652E-18
5.579425E+03	1.361171E-16	2.800227E-18
5.589370E+03	1.356833E-16	2.792288E-18
5.599316E+03	1.351429E-16	2.782223E-18
5.609261E+03	1.345130E-16	2.770376E-18
5.619207E+03	1.338080E-16	2.757042E-18
5.629152E+03	1.330206E-16	2.742067E-18
5.639098E+03	1.322029E-16	2.726525E-18
5.649043E+03	1.313528E-16	2.710365E-18
5.658989E+03	1.304944E-16	2.694088E-18
5.668934E+03	1.296570E-16	2.678294E-18
5.678880E+03	1.288715E-16	2.663622E-18
5.688825E+03	1.281494E-16	2.650311E-18
5.698771E+03	1.275572E-16	2.639738E-18
5.708716E+03	1.271010E-16	2.632035E-18
5.718662E+03	1.267831E-16	2.627255E-18
5.728607E+03	1.266569E-16	2.626509E-18
5.738553E+03	1.267136E-16	2.629624E-18
5.748498E+03	1.269378E-16	2.636290E-18
5.758444E+03	1.273634E-16	2.647220E-18
5.768389E+03	1.279611E-16	2.661813E-18
5.778335E+03	1.286938E-16	2.679309E-18
5.788280E+03	1.295747E-16	2.699992E-18
5.798226E+03	1.305356E-16	2.722452E-18
5.808171E+03	1.315806E-16	2.746776E-18
5.818117E+03	1.326337E-16	2.771385E-18
5.828062E+03	1.336956E-16	2.796300E-18
5.838008E+03	1.346904E-16	2.819931E-18
5.847953E+03	1.356236E-16	2.842392E-18
5.857899E+03	1.364263E-16	2.862239E-18
5.867844E+03	1.370972E-16	2.879433E-18
5.877790E+03	1.376433E-16	2.894118E-18
5.887735E+03	1.380210E-16	2.905368E-18
5.897681E+03	1.382777E-16	2.914173E-18
5.907626E+03	1.383868E-16	2.919961E-18
5.917572E+03	1.383852E-16	2.923503E-18
5.927517E+03	1.382889E-16	2.925128E-18
5.937463E+03	1.381334E-16	2.925586E-18
5.947408E+03	1.378934E-16	2.924332E-18
5.957354E+03	1.376051E-16	2.922128E-18
5.967299E+03	1.372854E-16	2.919333E-18
5.977245E+03	1.369730E-16	2.916765E-18
5.987190E+03	1.366473E-16	2.913986E-18
5.997136E+03	1.363470E-16	2.911824E-18
6.007081E+03	1.360866E-16	2.910591E-18
6.017027E+03	1.358740E-16	2.910458E-18
6.026972E+03	1.357111E-16	2.911474E-18
6.036918E+03	1.355958E-16	2.913600E-18
6.046863E+03	1.355236E-16	2.916742E-18
6.056809E+03	1.355099E-16	2.921239E-18
6.066754E+03	1.355146E-16	2.926231E-18
6.076700E+03	1.355644E-16	2.932301E-18
6.086645E+03	1.356743E-16	2.939776E-18
6.096591E+03	1.358684E-16	2.949192E-18
6.106536E+03	1.361827E-16	2.961342E-18
6.116482E+03	1.366674E-16	2.977333E-18
6.126427E+03	1.373719E-16	2.998265E-18
6.136373E+03	1.384295E-16	3.027087E-18
6.146318E+03	1.399330E-16	3.065878E-18
6.156264E+03	1.420072E-16	3.117436E-18
6.166209E+03	1.447812E-16	3.184686E-18
6.176155E+03	1.483772E-16	3.270417E-18
6.186100E+03	1.528840E-16	3.376710E-18
6.196046E+03	1.583298E-16	3.504327E-18
6.205991E+03	1.646451E-16	3.651869E-18
6.215937E+03	1.717439E-16	3.817558E-18
6.225882E+03	1.793657E-16	3.995718E-18
6.235828E+03	1.871848E-16	4.179167E-18
6.245773E+03	1.948041E-16	4.359069E-18
6.255719E+03	2.019154E-16	4.528492E-18
6.265664E+03	2.081555E-16	4.679205E-18
6.275610E+03	2.132388E-16	4.804653E-18
6.285555E+03	2.169221E-16	4.899163E-18
6.295501E+03	2.191396E-16	4.961033E-18
6.305446E+03	2.198147E-16	4.988285E-18
6.315392E+03	2.189522E-16	4.980777E-18
6.325337E+03	2.167277E-16	4.942252E-18
6.335283E+03	2.132811E-16	4.875673E-18
6.345228E+03	2.088010E-16	4.785151E-18
6.355174E+03	2.035980E-16	4.677627E-18
6.365119E+03	1.978691E-16	4.557507E-18
6.375065E+03	1.919251E-16	4.431864E-18
6.385010E+03	1.859365E-16	4.304590E-18
6.394956E+03	1.801455E-16	4.181292E-18
6.404901E+03	1.746369E-16	4.063963E-18
6.414847E+03	1.695581E-16	3.956082E-18
6.424792E+03	1.649165E-16	3.857893E-18
6.434738E+03	1.607883E-16	3.771254E-18
6.444683E+03	1.571290E-16	3.695204E-18
6.454629E+03	1.539723E-16	3.630621E-18
6.464574E+03	1.512465E-16	3.575895E-18
6.474520E+03	1.489623E-16	3.531359E-18
6.484465E+03	1.470357E-16	3.495093E-18
6.494411E+03	1.454663E-16	3.467150E-18
6.504356E+03	1.441618E-16	3.445394E-18
6.514302E+03	1.430885E-16	3.429062E-18
6.524247E+03	1.422045E-16	3.417194E-18
6.534193E+03	1.414026E-16	3.407236E-18
6.544138E+03	1.406414E-16	3.398203E-18
6.554084E+03	1.398877E-16	3.389297E-18
6.564029E+03	1.390583E-16	3.378496E-18
6.573975E+03	1.381489E-16	3.365677E-18
6.583920E+03	1.371532E-16	3.350669E-18
6.593866E+03	1.360992E-16	3.334138E-18
6.603811E+03	1.349617E-16	3.315448E-18
6.613757E+03	1.337782E-16	3.295504E-18
6.623702E+03	1.325661E-16	3.274725E-18
6.633648E+03	1.313610E-16	3.253987E-18
6.643593E+03	1.301385E-16	3.232678E-18
6.653539E+03	1.289300E-16	3.211579E-18
6.663484E+03	1.277457E-16	3.190943E-18
6.673430E+03	1.265935E-16	3.170974E-18
6.683375E+03	1.254979E-16	3.152287E-18
6.693321E+03	1.244252E-16	3.134048E-18
6.703266E+03	1.233959E-16	3.116774E-18
6.713212E+03	1.224106E-16	3.100490E-18
6.723157E+03	1.214700E-16	3.085222E-18
6.733103E+03	1.205760E-16	3.071025E-18
6.743048E+03	1.197316E-16	3.057983E-18
6.752994E+03	1.189406E-16	3.046205E-18
6.762939E+03	1.182074E-16	3.035814E-18
6.772885E+03	1.175366E-16	3.026937E-18
6.782830E+03	1.169488E-16	3.020120E-18
6.792776E+03	1.164113E-16	3.014532E-18
6.802721E+03	1.159420E-16	3.010646E-18
6.812667E+03	1.155405E-16	3.008470E-18
6.822612E+03	1.152063E-16	3.007999E-18
6.832558E+03	1.149382E-16	3.009218E-18
6.842503E+03	1.147175E-16	3.011648E-18
6.852449E+03	1.145759E-16	3.016134E-18
6.862394E+03	1.144933E-16	3.022163E-18
6.872340E+03	1.144660E-16	3.029644E-18
6.882285E+03	1.144889E-16	3.038458E-18
6.892231E+03	1.145566E-16	3.048467E-18
6.902176E+03	1.146626E-16	3.059509E-18
6.912122E+03	1.148000E-16	3.071406E-18
6.922067E+03	1.149616E-16	3.083973E-18
6.932013E+03	1.151402E-16	3.097018E-18
6.941958E+03	1.153290E-16	3.110362E-18
6.951904E+03	1.155048E-16	3.123378E-18
6.961849E+03	1.156971E-16	3.136862E-18
6.971795E+03	1.158855E-16	3.150264E-18
6.981740E+03	1.160686E-16	3.163543E-18
6.991686E+03	1.162465E-16	3.176702E-18
7.001631E+03	1.164041E-16	3.189321E-18
7.011577E+03	1.165795E-16	3.202447E-18
7.021522E+03	1.167601E-16	3.215734E-18
7.031468E+03	1.169519E-16	3.229346E-18
7.041413E+03	1.171441E-16	3.242989E-18
7.051359E+03	1.173792E-16	3.257841E-18
7.061304E+03	1.176483E-16	3.273661E-18
7.071250E+03	1.179607E-16	3.290717E-18
7.081195E+03	1.183084E-16	3.308792E-18
7.091141E+03	1.187362E-16	3.329152E-18
7.101086E+03	1.192364E-16	3.351596E-18
7.111032E+03	1.198009E-16	3.375907E-18
7.120977E+03	1.204741E-16	3.403356E-18
7.130923E+03	1.212283E-16	3.433179E-18
7.140868E+03	1.221057E-16	3.466592E-18
7.150814E+03	1.230926E-16	3.503230E-18
7.160759E+03	1.241721E-16	3.542628E-18
7.170705E+03	1.253793E-16	3.585817E-18
7.180650E+03	1.266724E-16	3.631618E-18
7.190596E+03	1.280804E-16	3.680882E-18
7.200541E+03	1.295719E-16	3.732730E-18
7.210487E+03	1.311105E-16	3.786124E-18
7.220432E+03	1.327134E-16	3.841574E-18
7.230378E+03	1.343160E-16	3.897214E-18
7.240323E+03	1.359288E-16	3.953352E-18
7.250269E+03	1.374799E-16	4.007892E-18
7.260214E+03	1.389786E-16	4.061087E-18
7.270160E+03	1.403533E-16	4.110834E-18
7.280105E+03	1.416183E-16	4.157523E-18
7.290051E+03	1.427078E-16	4.199196E-18
7.299996E+03	1.436240E-16	4.235880E-18
7.309942E+03	1.443746E-16	4.267768E-18
7.319887E+03	1.449078E-16	4.293289E-18
7.329833E+03	1.452632E-16	4.313577E-18
7.339778E+03	1.453983E-16	4.327330E-18
7.349724E+03	1.453400E-16	4.335303E-18
7.359669E+03	1.451186E-16	4.338364E-18
7.369615E+03	1.447015E-16	4.335505E-18
7.379560E+03	1.441439E-16	4.328344E-18
7.389506E+03	1.434141E-16	4.315896E-18
7.399451E+03	1.425446E-16	4.299114E-18
7.409397E+03	1.415678E-16	4.278942E-18
7.419342E+03	1.404514E-16	4.254386E-18
7.429288E+03	1.392271E-16	4.226381E-18
7.439233E+03	1.379051E-16	4.195213E-18
7.449179E+03	1.365151E-16	4.161774E-18
7.459124E+03	1.350253E-16	4.125078E-18
7.469069E+03	1.334651E-16	4.086004E-18
7.479015E+03	1.318426E-16	4.044791E-18
7.488960E+03	1.301849E-16	4.002257E-18
7.498906E+03	1.284598E-16	3.957407E-18
7.508851E+03	1.266937E-16	3.911045E-18
7.518797E+03	1.248927E-16	3.863354E-18
7.528742E+03	1.230627E-16	3.814504E-18
7.538688E+03	1.212088E-16	3.764658E-18
7.548633E+03	1.193541E-16	3.714523E-18
7.558579E+03	1.174668E-16	3.663116E-18
7.568524E+03	1.155695E-16	3.611133E-18
7.578470E+03	1.136660E-16	3.558694E-18
7.588415E+03	1.117600E-16	3.505918E-18
7.598361E+03	1.098549E-16	3.452906E-18
7.608306E+03	1.079536E-16	3.399759E-18
7.618252E+03	1.060592E-16	3.346568E-18
7.628197E+03	1.041741E-16	3.293418E-18
7.638143E+03	1.023010E-16	3.240393E-18
7.648088E+03	1.004418E-16	3.187561E-18
7.658034E+03	9.859879E-17	3.134993E-18
7.667979E+03	9.677361E-17	3.082751E-18
7.677925E+03	9.496804E-17	3.030893E-18
7.687870E+03	9.318367E-17	2.979475E-18
7.697816E+03	9.142175E-17	2.928543E-18
7.707761E+03	8.968354E-17	2.878143E-18
7.717707E+03	8.797016E-17	2.828314E-18
