#wls	flux	fluxerr
1.600000E+03	3.025797E-14	5.636141E-16
1.640000E+03	3.229177E-14	5.995252E-16
1.680000E+03	3.441741E-14	6.368366E-16
1.720000E+03	3.662805E-14	6.753940E-16
1.760000E+03	3.891387E-14	7.149899E-16
1.800000E+03	4.126116E-14	7.553466E-16
1.840000E+03	4.365170E-14	7.961075E-16
1.880000E+03	4.606173E-14	8.368194E-16
1.920000E+03	4.846066E-14	8.769113E-16
1.960000E+03	5.080962E-14	9.156724E-16
2.000000E+03	5.305977E-14	9.522236E-16
2.040000E+03	5.514972E-14	9.854778E-16
2.080000E+03	5.700601E-14	1.014152E-15
2.120000E+03	5.855306E-14	1.036954E-15
2.160000E+03	5.971099E-14	1.052538E-15
2.200000E+03	6.038920E-14	1.059404E-15
2.240000E+03	6.049718E-14	1.056089E-15
2.280000E+03	5.999845E-14	1.042104E-15
2.320000E+03	5.896901E-14	1.018924E-15
2.360000E+03	5.753707E-14	9.889005E-16
2.400000E+03	5.582908E-14	9.543122E-16
2.440000E+03	5.395782E-14	9.171626E-16
2.480000E+03	5.202011E-14	8.791450E-16
2.520000E+03	5.009586E-14	8.416323E-16
2.560000E+03	4.824401E-14	8.056150E-16
2.600000E+03	4.648519E-14	7.714240E-16
2.640000E+03	4.482163E-14	7.390771E-16
2.680000E+03	4.324852E-14	7.084750E-16
2.720000E+03	4.175755E-14	6.794625E-16
2.760000E+03	4.033939E-14	6.518706E-16
2.800000E+03	3.898508E-14	6.255399E-16
2.840000E+03	3.768678E-14	6.003314E-16
2.880000E+03	3.643800E-14	5.761314E-16
2.920000E+03	3.523367E-14	5.528507E-16
2.960000E+03	3.407044E-14	5.304286E-16
3.000000E+03	3.294677E-14	5.088336E-16
3.010000E+03	3.267202E-14	5.035632E-16
3.020000E+03	3.239972E-14	4.983433E-16
3.030000E+03	3.213002E-14	4.931766E-16
3.040000E+03	3.186298E-14	4.880635E-16
3.050000E+03	3.159853E-14	4.830028E-16
3.060000E+03	3.133681E-14	4.779968E-16
3.070000E+03	3.107808E-14	4.730491E-16
3.080000E+03	3.082231E-14	4.681591E-16
3.090000E+03	3.056983E-14	4.633315E-16
3.100000E+03	3.032096E-14	4.585711E-16
3.110000E+03	3.007586E-14	4.538800E-16
3.120000E+03	2.983500E-14	4.492650E-16
3.130000E+03	2.959864E-14	4.447297E-16
3.140000E+03	2.936712E-14	4.402789E-16
3.150000E+03	2.914067E-14	4.359156E-16
3.160000E+03	2.891948E-14	4.316422E-16
3.170000E+03	2.870352E-14	4.274578E-16
3.180000E+03	2.849265E-14	4.233600E-16
3.190000E+03	2.828673E-14	4.193464E-16
3.200000E+03	2.808551E-14	4.154124E-16
3.210000E+03	2.788878E-14	4.115551E-16
3.220000E+03	2.769662E-14	4.077750E-16
3.230000E+03	2.750917E-14	4.040739E-16
3.240000E+03	2.732698E-14	4.004594E-16
3.250000E+03	2.715088E-14	3.969430E-16
3.260000E+03	2.698208E-14	3.935421E-16
3.270000E+03	2.682192E-14	3.902753E-16
3.280000E+03	2.667170E-14	3.871608E-16
3.290000E+03	2.653294E-14	3.842196E-16
3.300000E+03	2.640654E-14	3.814635E-16
3.310000E+03	2.629332E-14	3.789031E-16
3.320000E+03	2.619328E-14	3.765371E-16
3.330000E+03	2.610585E-14	3.743560E-16
3.340000E+03	2.602998E-14	3.723434E-16
3.350000E+03	2.596391E-14	3.704731E-16
3.360000E+03	2.590535E-14	3.687115E-16
3.370000E+03	2.585175E-14	3.670216E-16
3.380000E+03	2.580046E-14	3.653653E-16
3.390000E+03	2.574917E-14	3.637099E-16
3.400000E+03	2.569581E-14	3.620262E-16
3.410000E+03	2.563915E-14	3.602973E-16
3.420000E+03	2.557854E-14	3.585142E-16
3.430000E+03	2.551362E-14	3.566727E-16
3.440000E+03	2.544446E-14	3.547739E-16
3.450000E+03	2.537066E-14	3.528132E-16
3.460000E+03	2.529160E-14	3.507823E-16
3.470000E+03	2.520561E-14	3.486588E-16
3.480000E+03	2.511030E-14	3.464104E-16
3.490000E+03	2.500243E-14	3.439938E-16
3.500000E+03	2.487815E-14	3.413576E-16
3.510000E+03	2.473330E-14	3.384468E-16
3.520000E+03	2.456403E-14	3.352111E-16
3.530000E+03	2.436753E-14	3.316153E-16
3.540000E+03	2.414218E-14	3.276403E-16
3.550000E+03	2.388862E-14	3.232983E-16
3.560000E+03	2.360946E-14	3.186278E-16
3.570000E+03	2.330940E-14	3.136951E-16
3.580000E+03	2.299447E-14	3.085835E-16
3.590000E+03	2.267154E-14	3.033866E-16
3.600000E+03	2.234695E-14	2.981904E-16
3.610000E+03	2.202646E-14	2.930717E-16
3.620000E+03	2.171456E-14	2.880897E-16
3.630000E+03	2.141465E-14	2.832883E-16
3.640000E+03	2.112929E-14	2.787003E-16
3.650000E+03	2.086023E-14	2.743471E-16
3.660000E+03	2.060807E-14	2.702346E-16
3.670000E+03	2.037233E-14	2.663548E-16
3.680000E+03	2.015103E-14	2.626800E-16
3.690000E+03	1.994079E-14	2.591647E-16
3.700000E+03	1.973708E-14	2.557489E-16
3.710000E+03	1.953490E-14	2.523676E-16
3.720000E+03	1.932902E-14	2.489531E-16
3.730000E+03	1.911538E-14	2.454538E-16
3.740000E+03	1.889115E-14	2.418345E-16
3.750000E+03	1.865552E-14	2.380862E-16
3.760000E+03	1.840945E-14	2.342225E-16
3.770000E+03	1.815554E-14	2.302777E-16
3.780000E+03	1.789705E-14	2.262941E-16
3.790000E+03	1.763760E-14	2.223179E-16
3.800000E+03	1.737986E-14	2.183828E-16
3.810000E+03	1.712578E-14	2.145130E-16
3.820000E+03	1.687610E-14	2.107176E-16
3.830000E+03	1.663079E-14	2.069957E-16
3.840000E+03	1.638962E-14	2.033439E-16
3.850000E+03	1.615262E-14	1.997623E-16
3.860000E+03	1.592067E-14	1.962613E-16
3.870000E+03	1.569550E-14	1.928614E-16
3.880000E+03	1.547993E-14	1.895967E-16
3.890000E+03	1.527702E-14	1.865032E-16
3.900000E+03	1.508979E-14	1.836164E-16
3.910000E+03	1.492006E-14	1.809565E-16
3.920000E+03	1.476805E-14	1.785240E-16
3.930000E+03	1.463167E-14	1.762918E-16
3.940000E+03	1.450650E-14	1.742050E-16
3.950000E+03	1.438578E-14	1.721812E-16
3.960000E+03	1.426139E-14	1.701232E-16
3.970000E+03	1.412454E-14	1.679270E-16
3.980000E+03	1.396734E-14	1.655006E-16
3.990000E+03	1.378377E-14	1.627754E-16
4.000000E+03	1.357092E-14	1.597204E-16
4.010000E+03	1.332968E-14	1.563494E-16
4.020000E+03	1.306501E-14	1.527241E-16
4.030000E+03	1.278565E-14	1.489489E-16
4.040000E+03	1.250305E-14	1.451586E-16
4.050000E+03	1.222988E-14	1.415002E-16
4.060000E+03	1.197847E-14	1.381149E-16
4.070000E+03	1.175907E-14	1.351177E-16
4.080000E+03	1.157916E-14	1.325905E-16
4.090000E+03	1.144256E-14	1.305724E-16
4.100000E+03	1.134957E-14	1.290613E-16
4.110000E+03	1.129683E-14	1.280143E-16
4.120000E+03	1.127829E-14	1.273582E-16
4.130000E+03	1.128567E-14	1.269959E-16
4.140000E+03	1.130908E-14	1.268135E-16
4.150000E+03	1.133822E-14	1.266938E-16
4.160000E+03	1.136304E-14	1.265245E-16
4.170000E+03	1.137454E-14	1.262063E-16
4.180000E+03	1.136552E-14	1.256611E-16
4.190000E+03	1.133093E-14	1.248358E-16
4.200000E+03	1.126778E-14	1.237006E-16
4.210000E+03	1.117513E-14	1.222485E-16
4.220000E+03	1.105389E-14	1.204930E-16
4.230000E+03	1.090664E-14	1.184655E-16
4.240000E+03	1.073786E-14	1.162174E-16
4.250000E+03	1.055343E-14	1.138146E-16
4.260000E+03	1.036028E-14	1.113335E-16
4.270000E+03	1.016539E-14	1.088497E-16
4.280000E+03	9.975038E-15	1.064304E-16
4.290000E+03	9.794770E-15	1.041340E-16
4.300000E+03	9.628610E-15	1.020020E-16
4.310000E+03	9.479369E-15	1.000624E-16
4.320000E+03	9.348451E-15	9.832779E-17
4.330000E+03	9.235888E-15	9.679651E-17
4.340000E+03	9.140487E-15	9.545393E-17
4.350000E+03	9.059906E-15	9.427371E-17
4.360000E+03	8.990760E-15	9.321904E-17
4.370000E+03	8.928773E-15	9.224442E-17
4.380000E+03	8.868517E-15	9.129314E-17
4.390000E+03	8.804543E-15	9.030908E-17
4.400000E+03	8.734214E-15	8.926567E-17
4.410000E+03	8.658554E-15	8.817400E-17
4.420000E+03	8.580151E-15	8.706086E-17
4.430000E+03	8.503381E-15	8.597079E-17
4.440000E+03	8.434572E-15	8.496731E-17
4.450000E+03	8.380945E-15	8.412199E-17
4.460000E+03	8.349376E-15	8.350191E-17
4.470000E+03	8.344966E-15	8.315547E-17
4.480000E+03	8.370064E-15	8.310305E-17
4.490000E+03	8.423557E-15	8.333041E-17
4.500000E+03	8.500899E-15	8.378969E-17
4.510000E+03	8.594529E-15	8.440407E-17
4.520000E+03	8.694863E-15	8.507803E-17
4.530000E+03	8.791272E-15	8.570724E-17
4.540000E+03	8.873465E-15	8.619218E-17
4.550000E+03	8.932897E-15	8.645167E-17
4.560000E+03	8.963338E-15	8.642810E-17
4.570000E+03	8.961596E-15	8.609387E-17
4.580000E+03	8.927307E-15	8.544893E-17
4.590000E+03	8.862594E-15	8.451696E-17
4.600000E+03	8.771417E-15	8.333880E-17
4.610000E+03	8.658567E-15	8.196255E-17
4.620000E+03	8.529140E-15	8.043855E-17
4.630000E+03	8.388208E-15	7.881616E-17
4.640000E+03	8.240524E-15	7.714105E-17
4.650000E+03	8.090086E-15	7.545119E-17
4.660000E+03	7.940076E-15	7.377640E-17
4.670000E+03	7.792714E-15	7.213715E-17
4.680000E+03	7.649170E-15	7.054395E-17
4.690000E+03	7.509936E-15	6.900087E-17
4.700000E+03	7.375033E-15	6.750765E-17
4.710000E+03	7.243874E-15	6.605846E-17
4.720000E+03	7.115944E-15	6.464823E-17
4.730000E+03	6.990644E-15	6.327116E-17
4.740000E+03	6.867489E-15	6.192259E-17
4.750000E+03	6.746186E-15	6.059967E-17
4.760000E+03	6.626688E-15	5.930176E-17
4.770000E+03	6.509183E-15	5.803033E-17
4.780000E+03	6.394030E-15	5.678836E-17
4.790000E+03	6.281861E-15	5.558118E-17
4.800000E+03	6.173489E-15	5.441564E-17
4.810000E+03	6.069866E-15	5.329971E-17
4.820000E+03	5.971943E-15	5.224122E-17
4.830000E+03	5.880877E-15	5.124965E-17
4.840000E+03	5.797722E-15	5.033349E-17
4.850000E+03	5.723495E-15	4.950073E-17
4.860000E+03	5.659012E-15	4.875752E-17
4.870000E+03	5.604892E-15	4.810820E-17
4.880000E+03	5.561413E-15	4.755415E-17
4.890000E+03	5.528407E-15	4.709291E-17
4.900000E+03	5.505285E-15	4.671846E-17
4.910000E+03	5.491119E-15	4.642204E-17
4.920000E+03	5.484510E-15	4.619102E-17
4.930000E+03	5.483966E-15	4.601218E-17
4.940000E+03	5.487754E-15	4.587049E-17
4.950000E+03	5.494299E-15	4.575245E-17
4.960000E+03	5.502137E-15	4.564571E-17
4.970000E+03	5.509954E-15	4.553931E-17
4.980000E+03	5.516799E-15	4.542548E-17
4.990000E+03	5.522006E-15	4.529887E-17
5.000000E+03	5.525161E-15	4.515630E-17
5.010000E+03	5.526002E-15	4.499586E-17
5.020000E+03	5.524426E-15	4.481699E-17
5.030000E+03	5.520342E-15	4.461918E-17
5.040000E+03	5.513701E-15	4.440232E-17
5.050000E+03	5.504480E-15	4.416648E-17
5.060000E+03	5.492452E-15	4.391013E-17
5.070000E+03	5.477668E-15	4.363394E-17
5.080000E+03	5.460105E-15	4.333803E-17
5.090000E+03	5.440087E-15	4.302521E-17
5.100000E+03	5.418117E-15	4.269969E-17
5.110000E+03	5.395052E-15	4.236840E-17
5.120000E+03	5.372232E-15	4.204197E-17
5.130000E+03	5.351284E-15	4.173307E-17
5.140000E+03	5.334200E-15	4.145706E-17
5.150000E+03	5.323113E-15	4.123022E-17
5.160000E+03	5.320191E-15	4.106885E-17
5.170000E+03	5.327369E-15	4.098723E-17
5.180000E+03	5.345827E-15	4.099371E-17
5.190000E+03	5.376201E-15	4.109237E-17
5.200000E+03	5.417981E-15	4.127853E-17
5.210000E+03	5.469594E-15	4.153951E-17
5.220000E+03	5.528352E-15	4.185439E-17
5.230000E+03	5.590748E-15	4.219630E-17
5.240000E+03	5.652697E-15	4.253443E-17
5.250000E+03	5.709965E-15	4.283717E-17
5.260000E+03	5.758632E-15	4.307568E-17
5.270000E+03	5.795697E-15	4.322826E-17
5.280000E+03	5.819085E-15	4.328037E-17
5.290000E+03	5.828107E-15	4.322786E-17
5.300000E+03	5.823231E-15	4.307518E-17
5.310000E+03	5.805688E-15	4.283230E-17
5.320000E+03	5.777430E-15	4.251437E-17
5.330000E+03	5.740509E-15	4.213708E-17
5.340000E+03	5.697037E-15	4.171641E-17
5.350000E+03	5.648716E-15	4.126512E-17
5.360000E+03	5.596839E-15	4.079289E-17
5.370000E+03	5.542635E-15	4.030881E-17
5.380000E+03	5.487239E-15	3.982120E-17
5.390000E+03	5.431690E-15	3.933761E-17
5.400000E+03	5.376955E-15	3.886500E-17
5.410000E+03	5.323582E-15	3.840725E-17
5.420000E+03	5.271417E-15	3.796315E-17
5.430000E+03	5.219644E-15	3.752677E-17
5.440000E+03	5.167718E-15	3.709411E-17
5.450000E+03	5.115875E-15	3.666685E-17
5.460000E+03	5.064952E-15	3.625092E-17
5.470000E+03	5.016879E-15	3.586002E-17
5.480000E+03	4.974502E-15	3.551429E-17
5.490000E+03	4.942294E-15	3.524533E-17
5.500000E+03	4.925899E-15	3.509298E-17
5.510000E+03	4.916477E-15	3.499391E-17
5.520000E+03	4.909269E-15	3.491405E-17
5.530000E+03	4.901186E-15	3.483135E-17
5.540000E+03	4.890521E-15	3.473363E-17
5.550000E+03	4.877228E-15	3.462052E-17
5.560000E+03	4.862721E-15	3.450200E-17
5.570000E+03	4.849242E-15	3.439391E-17
5.580000E+03	4.839662E-15	3.431650E-17
5.590000E+03	4.837466E-15	3.429440E-17
5.600000E+03	4.846415E-15	3.435418E-17
5.610000E+03	4.870060E-15	3.452095E-17
5.620000E+03	4.911446E-15	3.481625E-17
5.630000E+03	4.972510E-15	3.525386E-17
5.640000E+03	5.053896E-15	3.583846E-17
5.650000E+03	5.154635E-15	3.656333E-17
5.660000E+03	5.272105E-15	3.741009E-17
5.670000E+03	5.402174E-15	3.834965E-17
5.680000E+03	5.539669E-15	3.934554E-17
5.690000E+03	5.678523E-15	4.035486E-17
5.700000E+03	5.812545E-15	4.133375E-17
5.710000E+03	5.936021E-15	4.224159E-17
5.720000E+03	6.044010E-15	4.304317E-17
5.730000E+03	6.132618E-15	4.371056E-17
5.740000E+03	6.198706E-15	4.422107E-17
5.750000E+03	6.240006E-15	4.455809E-17
5.760000E+03	6.254847E-15	4.470918E-17
5.770000E+03	6.241956E-15	4.466460E-17
5.780000E+03	6.200794E-15	4.441978E-17
5.790000E+03	6.131870E-15	4.397759E-17
5.800000E+03	6.036676E-15	4.334791E-17
5.810000E+03	5.918249E-15	4.255172E-17
5.820000E+03	5.780825E-15	4.161868E-17
5.830000E+03	5.629910E-15	4.058777E-17
5.840000E+03	5.471346E-15	3.950053E-17
5.850000E+03	5.311261E-15	3.840085E-17
5.860000E+03	5.155013E-15	3.732727E-17
5.870000E+03	5.006811E-15	3.631024E-17
5.880000E+03	4.869394E-15	3.536976E-17
5.890000E+03	4.743914E-15	3.451440E-17
5.900000E+03	4.630188E-15	3.374311E-17
5.910000E+03	4.527455E-15	3.305064E-17
5.920000E+03	4.434755E-15	3.243025E-17
5.930000E+03	4.351755E-15	3.187979E-17
5.940000E+03	4.278560E-15	3.140029E-17
5.950000E+03	4.215264E-15	3.099276E-17
5.960000E+03	4.162155E-15	3.065965E-17
5.970000E+03	4.119074E-15	3.040013E-17
5.980000E+03	4.085877E-15	3.021353E-17
5.990000E+03	4.062181E-15	3.009736E-17
6.000000E+03	4.047617E-15	3.004929E-17
6.010000E+03	4.041437E-15	3.006411E-17
6.020000E+03	4.042640E-15	3.013472E-17
6.030000E+03	4.049571E-15	3.024909E-17
6.040000E+03	4.060280E-15	3.039288E-17
6.050000E+03	4.072140E-15	3.054653E-17
6.060000E+03	4.082776E-15	3.069227E-17
6.070000E+03	4.090476E-15	3.081712E-17
6.080000E+03	4.094552E-15	3.091574E-17
6.090000E+03	4.095134E-15	3.098891E-17
6.100000E+03	4.092703E-15	3.104012E-17
6.110000E+03	4.087573E-15	3.107157E-17
6.120000E+03	4.079824E-15	3.108373E-17
6.130000E+03	4.069588E-15	3.107747E-17
6.140000E+03	4.057120E-15	3.105458E-17
6.150000E+03	4.042961E-15	3.101908E-17
6.160000E+03	4.027705E-15	3.097545E-17
6.170000E+03	4.012135E-15	3.092964E-17
6.180000E+03	3.996952E-15	3.088703E-17
6.190000E+03	3.982810E-15	3.085273E-17
6.200000E+03	3.970187E-15	3.083046E-17
6.210000E+03	3.959561E-15	3.082405E-17
6.220000E+03	3.951374E-15	3.083705E-17
6.230000E+03	3.946187E-15	3.087397E-17
6.240000E+03	3.944582E-15	3.093958E-17
6.250000E+03	3.946996E-15	3.103751E-17
6.260000E+03	3.953756E-15	3.117058E-17
6.270000E+03	3.964701E-15	3.133781E-17
6.280000E+03	3.979307E-15	3.153529E-17
6.290000E+03	3.996346E-15	3.175352E-17
6.300000E+03	4.014408E-15	3.198142E-17
6.310000E+03	4.031635E-15	3.220424E-17
6.320000E+03	4.046443E-15	3.240925E-17
6.330000E+03	4.057636E-15	3.258670E-17
6.340000E+03	4.064729E-15	3.273248E-17
6.350000E+03	4.068293E-15	3.285092E-17
6.360000E+03	4.069571E-15	3.295186E-17
6.370000E+03	4.070431E-15	3.305030E-17
6.380000E+03	4.072792E-15	3.316178E-17
6.390000E+03	4.078315E-15	3.329993E-17
6.400000E+03	4.088039E-15	3.347346E-17
6.410000E+03	4.102506E-15	3.368706E-17
6.420000E+03	4.121096E-15	3.393595E-17
6.430000E+03	4.142606E-15	3.421044E-17
6.440000E+03	4.165212E-15	3.449561E-17
6.450000E+03	4.186693E-15	3.477308E-17
6.460000E+03	4.204812E-15	3.502409E-17
6.470000E+03	4.217570E-15	3.523170E-17
6.480000E+03	4.223372E-15	3.538211E-17
6.490000E+03	4.220809E-15	3.546295E-17
6.500000E+03	4.208021E-15	3.545793E-17
6.510000E+03	4.182594E-15	3.534585E-17
6.520000E+03	4.140601E-15	3.509246E-17
6.530000E+03	4.079201E-15	3.467238E-17
6.540000E+03	4.000313E-15	3.410047E-17
6.550000E+03	3.909672E-15	3.342444E-17
6.560000E+03	3.814857E-15	3.270833E-17
6.570000E+03	3.721253E-15	3.199814E-17
6.580000E+03	3.632269E-15	3.132328E-17
6.590000E+03	3.549930E-15	3.070160E-17
6.600000E+03	3.475161E-15	3.014158E-17
6.610000E+03	3.408315E-15	2.964683E-17
6.620000E+03	3.349390E-15	2.921790E-17
6.630000E+03	3.298037E-15	2.885231E-17
6.640000E+03	3.253947E-15	2.854789E-17
6.650000E+03	3.216678E-15	2.830129E-17
6.660000E+03	3.185862E-15	2.810975E-17
6.670000E+03	3.161118E-15	2.797036E-17
6.680000E+03	3.142089E-15	2.788040E-17
6.690000E+03	3.128252E-15	2.783563E-17
6.700000E+03	3.119088E-15	2.783179E-17
6.710000E+03	3.114078E-15	2.786458E-17
6.720000E+03	3.112532E-15	2.792810E-17
6.730000E+03	3.113766E-15	2.801643E-17
6.740000E+03	3.117028E-15	2.812300E-17
6.750000E+03	3.121486E-15	2.824041E-17
6.760000E+03	3.126230E-15	2.836046E-17
6.770000E+03	3.130286E-15	2.847433E-17
6.780000E+03	3.132757E-15	2.857376E-17
6.790000E+03	3.132667E-15	2.864970E-17
6.800000E+03	3.129445E-15	2.869671E-17
6.810000E+03	3.122698E-15	2.871095E-17
6.820000E+03	3.112582E-15	2.869357E-17
6.830000E+03	3.099367E-15	2.864683E-17
6.840000E+03	3.083809E-15	2.857750E-17
6.850000E+03	3.066722E-15	2.849297E-17
6.860000E+03	3.049094E-15	2.840233E-17
6.870000E+03	3.031715E-15	2.831290E-17
6.880000E+03	3.015300E-15	2.823142E-17
6.890000E+03	3.000180E-15	2.816103E-17
6.900000E+03	2.986502E-15	2.810322E-17
6.910000E+03	2.973937E-15	2.805498E-17
6.920000E+03	2.962165E-15	2.801337E-17
6.930000E+03	2.950516E-15	2.797210E-17
6.940000E+03	2.938329E-15	2.792486E-17
6.950000E+03	2.925039E-15	2.786626E-17
6.960000E+03	2.909993E-15	2.778997E-17
6.970000E+03	2.892854E-15	2.769266E-17
6.980000E+03	2.873359E-15	2.757165E-17
6.990000E+03	2.851301E-15	2.742480E-17
7.000000E+03	2.826755E-15	2.725265E-17
7.010000E+03	2.799627E-15	2.705414E-17
7.020000E+03	2.770036E-15	2.683025E-17
7.030000E+03	2.738266E-15	2.658358E-17
7.040000E+03	2.704661E-15	2.631734E-17
7.050000E+03	2.669627E-15	2.603539E-17
7.060000E+03	2.633786E-15	2.574370E-17
7.070000E+03	2.597706E-15	2.544781E-17
7.080000E+03	2.562025E-15	2.515398E-17
7.090000E+03	2.527336E-15	2.486807E-17
7.100000E+03	2.494139E-15	2.459511E-17
7.110000E+03	2.462869E-15	2.433949E-17
7.120000E+03	2.433709E-15	2.410315E-17
7.130000E+03	2.406721E-15	2.388686E-17
7.140000E+03	2.382032E-15	2.369204E-17
7.150000E+03	2.359502E-15	2.351744E-17
7.160000E+03	2.339139E-15	2.336329E-17
7.170000E+03	2.320903E-15	2.322933E-17
7.180000E+03	2.304767E-15	2.311543E-17
7.190000E+03	2.290667E-15	2.302108E-17
7.200000E+03	2.278641E-15	2.294681E-17
7.210000E+03	2.268660E-15	2.289243E-17
7.220000E+03	2.260598E-15	2.285684E-17
7.230000E+03	2.254375E-15	2.283932E-17
7.240000E+03	2.249674E-15	2.283678E-17
7.250000E+03	2.246352E-15	2.284786E-17
7.260000E+03	2.243918E-15	2.286765E-17
7.270000E+03	2.241913E-15	2.289151E-17
7.280000E+03	2.239824E-15	2.291423E-17
7.290000E+03	2.237096E-15	2.293011E-17
7.300000E+03	2.233209E-15	2.293379E-17
7.310000E+03	2.227544E-15	2.291884E-17
7.320000E+03	2.219540E-15	2.287937E-17
7.330000E+03	2.208902E-15	2.281221E-17
7.340000E+03	2.195317E-15	2.271399E-17
7.350000E+03	2.178685E-15	2.258350E-17
7.360000E+03	2.159057E-15	2.242109E-17
7.370000E+03	2.136624E-15	2.222862E-17
7.380000E+03	2.111651E-15	2.200867E-17
7.390000E+03	2.084659E-15	2.176657E-17
7.400000E+03	2.056086E-15	2.150679E-17
7.410000E+03	2.026407E-15	2.123423E-17
7.420000E+03	1.996242E-15	2.095536E-17
7.430000E+03	1.966017E-15	2.067462E-17
7.440000E+03	1.936090E-15	2.039581E-17
7.450000E+03	1.906877E-15	2.012333E-17
7.460000E+03	1.878586E-15	1.985945E-17
7.470000E+03	1.851204E-15	1.960407E-17
7.480000E+03	1.824822E-15	1.935824E-17
7.490000E+03	1.799117E-15	1.911858E-17
7.500000E+03	1.773908E-15	1.888320E-17
7.510000E+03	1.748781E-15	1.864774E-17
7.520000E+03	1.723569E-15	1.841041E-17
7.530000E+03	1.697899E-15	1.816724E-17
7.540000E+03	1.671745E-15	1.791793E-17
7.550000E+03	1.645102E-15	1.766240E-17
7.560000E+03	1.618182E-15	1.740291E-17
7.570000E+03	1.591377E-15	1.714368E-17
7.580000E+03	1.565260E-15	1.689092E-17
7.590000E+03	1.540433E-15	1.665116E-17
7.600000E+03	1.517584E-15	1.643192E-17
7.610000E+03	1.497424E-15	1.624105E-17
7.620000E+03	1.480505E-15	1.608469E-17
7.630000E+03	1.467282E-15	1.596798E-17
7.640000E+03	1.458023E-15	1.589404E-17
7.650000E+03	1.452827E-15	1.586419E-17
7.660000E+03	1.451493E-15	1.587645E-17
7.670000E+03	1.453696E-15	1.592748E-17
7.680000E+03	1.458831E-15	1.601086E-17
7.690000E+03	1.466354E-15	1.612076E-17
7.700000E+03	1.475619E-15	1.625022E-17
7.710000E+03	1.485940E-15	1.639179E-17
7.720000E+03	1.496915E-15	1.654108E-17
7.730000E+03	1.508207E-15	1.669442E-17
7.740000E+03	1.519563E-15	1.684902E-17
7.750000E+03	1.531056E-15	1.700571E-17
7.760000E+03	1.542759E-15	1.716532E-17
