#wls	flux	fluxerr
1.600000E+03	1.236214E-15	1.089002E-17
1.640000E+03	1.232222E-15	1.085486E-17
1.680000E+03	1.228242E-15	1.081979E-17
1.720000E+03	1.224272E-15	1.078482E-17
1.760000E+03	1.220618E-15	1.075262E-17
1.800000E+03	1.217482E-15	1.072500E-17
1.840000E+03	1.215071E-15	1.070375E-17
1.880000E+03	1.213594E-15	1.069074E-17
1.920000E+03	1.213362E-15	1.068870E-17
1.960000E+03	1.214590E-15	1.069951E-17
2.000000E+03	1.217595E-15	1.072599E-17
2.040000E+03	1.222493E-15	1.076913E-17
2.080000E+03	1.229817E-15	1.083364E-17
2.120000E+03	1.239791E-15	1.092150E-17
2.160000E+03	1.252643E-15	1.103472E-17
2.200000E+03	1.268813E-15	1.117716E-17
2.240000E+03	1.288641E-15	1.135182E-17
2.280000E+03	1.312361E-15	1.156077E-17
2.320000E+03	1.340525E-15	1.180887E-17
2.360000E+03	1.373160E-15	1.209636E-17
2.400000E+03	1.410495E-15	1.242525E-17
2.440000E+03	1.452757E-15	1.279754E-17
2.480000E+03	1.500056E-15	1.321419E-17
2.520000E+03	1.552704E-15	1.367798E-17
2.560000E+03	1.610676E-15	1.418866E-17
2.600000E+03	1.674359E-15	1.474965E-17
2.640000E+03	1.743901E-15	1.536225E-17
2.680000E+03	1.819634E-15	1.602939E-17
2.720000E+03	1.901857E-15	1.675369E-17
2.760000E+03	1.990929E-15	1.753834E-17
2.800000E+03	2.087372E-15	1.838792E-17
2.840000E+03	2.191420E-15	1.930449E-17
2.880000E+03	2.303545E-15	2.029221E-17
2.920000E+03	2.423996E-15	2.135327E-17
2.960000E+03	2.553103E-15	2.249059E-17
3.000000E+03	2.690799E-15	2.370356E-17
3.010000E+03	2.726536E-15	2.401837E-17
3.020000E+03	2.762851E-15	2.433827E-17
3.030000E+03	2.799613E-15	2.466212E-17
3.040000E+03	2.836913E-15	2.499070E-17
3.050000E+03	2.874728E-15	2.532381E-17
3.060000E+03	2.912928E-15	2.566032E-17
3.070000E+03	2.951598E-15	2.600097E-17
3.080000E+03	2.990713E-15	2.634553E-17
3.090000E+03	3.030248E-15	2.669379E-17
3.100000E+03	3.070174E-15	2.704551E-17
3.110000E+03	3.110462E-15	2.740041E-17
3.120000E+03	3.150971E-15	2.775726E-17
3.130000E+03	3.191776E-15	2.811671E-17
3.140000E+03	3.232837E-15	2.847843E-17
3.150000E+03	3.274115E-15	2.884204E-17
3.160000E+03	3.315562E-15	2.920716E-17
3.170000E+03	3.357026E-15	2.957241E-17
3.180000E+03	3.398561E-15	2.993830E-17
3.190000E+03	3.440115E-15	3.030435E-17
3.200000E+03	3.481531E-15	3.066919E-17
3.210000E+03	3.522860E-15	3.103326E-17
3.220000E+03	3.563947E-15	3.139520E-17
3.230000E+03	3.604851E-15	3.175553E-17
3.240000E+03	3.645426E-15	3.211295E-17
3.250000E+03	3.685631E-15	3.246713E-17
3.260000E+03	3.725440E-15	3.281780E-17
3.270000E+03	3.764827E-15	3.316477E-17
3.280000E+03	3.803784E-15	3.350794E-17
3.290000E+03	3.842217E-15	3.384650E-17
3.300000E+03	3.880369E-15	3.418259E-17
3.310000E+03	3.918112E-15	3.451507E-17
3.320000E+03	3.955552E-15	3.484488E-17
3.330000E+03	3.992905E-15	3.517392E-17
3.340000E+03	4.030158E-15	3.550209E-17
3.350000E+03	4.067335E-15	3.582959E-17
3.360000E+03	4.104359E-15	3.615573E-17
3.370000E+03	4.141028E-15	3.647875E-17
3.380000E+03	4.177019E-15	3.679580E-17
3.390000E+03	4.211815E-15	3.710232E-17
3.400000E+03	4.245133E-15	3.739582E-17
3.410000E+03	4.276187E-15	3.766938E-17
3.420000E+03	4.304655E-15	3.792015E-17
3.430000E+03	4.329995E-15	3.814338E-17
3.440000E+03	4.351527E-15	3.833306E-17
3.450000E+03	4.368619E-15	3.848361E-17
3.460000E+03	4.380627E-15	3.858939E-17
3.470000E+03	4.386991E-15	3.864545E-17
3.480000E+03	4.387487E-15	3.864982E-17
3.490000E+03	4.382048E-15	3.860191E-17
3.500000E+03	4.371504E-15	3.850902E-17
3.510000E+03	4.356850E-15	3.837993E-17
3.520000E+03	4.339802E-15	3.822976E-17
3.530000E+03	4.322034E-15	3.807324E-17
3.540000E+03	4.305378E-15	3.792651E-17
3.550000E+03	4.291639E-15	3.780548E-17
3.560000E+03	4.282556E-15	3.772547E-17
3.570000E+03	4.279842E-15	3.770156E-17
3.571160E+03	2.446158E-15	2.154845E-17
3.575990E+03	2.576138E-15	2.269346E-17
3.580830E+03	2.698743E-15	2.377349E-17
3.585670E+03	2.687838E-15	2.367744E-17
3.590510E+03	2.778943E-15	2.447999E-17
3.595350E+03	2.853006E-15	2.513242E-17
3.600190E+03	2.961832E-15	2.609107E-17
3.605030E+03	3.037126E-15	2.675435E-17
3.609870E+03	3.063925E-15	2.699042E-17
3.614710E+03	3.142192E-15	2.767988E-17
3.619540E+03	3.076250E-15	2.709899E-17
3.624380E+03	3.065902E-15	2.700783E-17
3.629220E+03	3.033437E-15	2.672185E-17
3.634060E+03	3.049278E-15	2.686139E-17
3.638900E+03	3.018714E-15	2.659215E-17
3.643740E+03	2.927498E-15	2.578862E-17
3.648580E+03	2.793886E-15	2.461162E-17
3.653420E+03	2.767421E-15	2.437849E-17
3.658260E+03	2.818199E-15	2.482579E-17
3.663090E+03	2.759537E-15	2.430903E-17
3.667930E+03	2.736496E-15	2.410606E-17
3.672770E+03	2.818052E-15	2.482450E-17
3.677610E+03	2.903725E-15	2.557919E-17
3.682450E+03	3.061384E-15	2.696803E-17
3.687290E+03	3.242556E-15	2.856399E-17
3.692130E+03	3.489452E-15	3.073892E-17
3.696970E+03	3.688500E-15	3.249235E-17
3.701810E+03	3.809183E-15	3.355546E-17
3.706640E+03	3.996802E-15	3.520822E-17
3.711480E+03	4.192669E-15	3.693362E-17
3.716320E+03	4.354872E-15	3.836249E-17
3.721160E+03	4.607495E-15	4.058787E-17
3.726000E+03	4.833554E-15	4.257924E-17
3.730840E+03	5.036349E-15	4.436569E-17
3.735680E+03	5.184010E-15	4.566644E-17
3.740520E+03	5.340412E-15	4.704421E-17
3.745360E+03	5.579393E-15	4.914941E-17
3.750190E+03	5.751336E-15	5.066408E-17
3.755030E+03	5.896087E-15	5.193919E-17
3.759870E+03	5.999194E-15	5.284747E-17
3.764710E+03	6.034718E-15	5.316041E-17
3.769550E+03	6.040939E-15	5.321521E-17
3.774390E+03	6.012320E-15	5.296310E-17
3.779230E+03	5.972899E-15	5.261584E-17
3.784070E+03	5.863223E-15	5.164969E-17
3.788910E+03	5.774559E-15	5.086864E-17
3.793740E+03	5.642196E-15	4.970264E-17
3.798580E+03	5.521451E-15	4.863899E-17
3.803420E+03	5.398812E-15	4.755865E-17
3.808260E+03	5.324814E-15	4.690679E-17
3.813100E+03	5.194242E-15	4.575657E-17
3.817940E+03	5.049614E-15	4.448253E-17
3.822780E+03	4.897918E-15	4.314623E-17
3.827620E+03	4.709618E-15	4.148747E-17
3.832460E+03	4.463408E-15	3.931858E-17
3.837290E+03	4.187168E-15	3.688516E-17
3.842130E+03	3.920463E-15	3.453573E-17
3.846970E+03	3.663646E-15	3.227341E-17
3.851810E+03	3.404077E-15	2.998683E-17
3.856650E+03	3.186378E-15	2.806910E-17
3.861490E+03	3.014044E-15	2.655100E-17
3.866330E+03	2.915802E-15	2.568557E-17
3.871170E+03	2.894990E-15	2.550224E-17
3.876010E+03	2.979000E-15	2.624229E-17
3.880840E+03	3.137135E-15	2.763532E-17
3.885680E+03	3.355020E-15	2.955468E-17
3.890520E+03	3.649201E-15	3.214615E-17
3.895360E+03	4.032689E-15	3.552434E-17
3.900200E+03	4.462471E-15	3.931032E-17
3.905040E+03	4.884345E-15	4.302664E-17
3.909880E+03	5.378536E-15	4.738002E-17
3.914720E+03	5.945032E-15	5.237033E-17
3.919560E+03	6.484219E-15	5.712008E-17
3.924390E+03	6.967685E-15	6.137898E-17
3.929230E+03	7.423965E-15	6.539839E-17
3.934070E+03	7.880711E-15	6.942191E-17
3.938910E+03	8.307626E-15	7.318264E-17
3.943750E+03	8.691983E-15	7.656848E-17
3.948590E+03	9.030284E-15	7.954860E-17
3.953430E+03	9.295974E-15	8.188909E-17
3.958270E+03	9.486754E-15	8.356968E-17
3.963110E+03	9.582395E-15	8.441220E-17
3.967940E+03	9.569787E-15	8.430113E-17
3.972780E+03	9.481187E-15	8.352065E-17
3.977620E+03	9.267936E-15	8.164210E-17
3.982460E+03	9.008050E-15	7.935274E-17
3.987300E+03	8.698469E-15	7.662561E-17
3.992140E+03	8.340313E-15	7.347058E-17
3.996980E+03	7.991581E-15	7.039857E-17
4.001820E+03	7.680286E-15	6.765634E-17
4.006660E+03	7.410000E-15	6.527537E-17
4.011490E+03	7.203842E-15	6.345929E-17
4.016330E+03	7.068521E-15	6.226724E-17
4.021170E+03	7.018307E-15	6.182490E-17
4.026010E+03	7.016299E-15	6.180722E-17
4.030850E+03	7.090209E-15	6.245829E-17
4.035690E+03	7.202620E-15	6.344853E-17
4.040530E+03	7.365737E-15	6.488544E-17
4.045370E+03	7.576040E-15	6.673802E-17
4.050210E+03	7.823786E-15	6.892043E-17
4.055050E+03	8.076219E-15	7.114414E-17
4.059880E+03	8.322476E-15	7.331344E-17
4.064720E+03	8.584471E-15	7.562138E-17
4.069560E+03	8.835676E-15	7.783426E-17
4.074400E+03	9.093731E-15	8.010749E-17
4.079240E+03	9.325558E-15	8.214967E-17
4.084080E+03	9.539115E-15	8.403092E-17
4.088920E+03	9.698599E-15	8.543583E-17
4.093760E+03	9.802027E-15	8.634693E-17
4.098600E+03	9.887755E-15	8.710212E-17
4.103430E+03	9.957637E-15	8.771771E-17
4.108270E+03	9.981172E-15	8.792504E-17
4.113110E+03	9.930235E-15	8.747633E-17
4.117950E+03	9.827944E-15	8.657523E-17
4.122790E+03	9.700566E-15	8.545315E-17
4.127630E+03	9.581325E-15	8.440275E-17
4.132470E+03	9.492111E-15	8.361685E-17
4.137310E+03	9.426507E-15	8.303893E-17
4.142150E+03	9.373205E-15	8.256939E-17
4.146980E+03	9.348830E-15	8.235467E-17
4.151820E+03	9.347176E-15	8.234010E-17
4.156660E+03	9.342183E-15	8.229612E-17
4.161500E+03	9.344124E-15	8.231321E-17
4.166340E+03	9.327177E-15	8.216393E-17
4.171180E+03	9.268592E-15	8.164784E-17
4.176020E+03	9.189524E-15	8.095132E-17
4.180860E+03	9.052685E-15	7.974590E-17
4.185700E+03	8.869483E-15	7.813206E-17
4.190530E+03	8.653308E-15	7.622775E-17
4.195370E+03	8.377873E-15	7.380142E-17
4.200210E+03	8.054866E-15	7.095602E-17
4.205050E+03	7.703546E-15	6.786121E-17
4.209890E+03	7.317832E-15	6.446342E-17
4.214730E+03	6.915165E-15	6.091629E-17
4.219570E+03	6.512634E-15	5.737036E-17
4.224410E+03	6.148912E-15	5.416630E-17
4.229250E+03	5.806679E-15	5.115154E-17
4.234080E+03	5.499913E-15	4.844921E-17
4.238920E+03	5.241591E-15	4.617363E-17
4.243760E+03	5.051900E-15	4.450263E-17
4.248600E+03	4.936333E-15	4.348458E-17
4.253440E+03	4.900801E-15	4.317158E-17
4.258280E+03	4.954118E-15	4.364125E-17
4.263120E+03	5.081777E-15	4.476582E-17
4.267960E+03	5.285221E-15	4.655797E-17
4.272800E+03	5.545844E-15	4.885382E-17
4.277630E+03	5.863171E-15	5.164918E-17
4.282470E+03	6.248571E-15	5.504420E-17
4.287310E+03	6.682090E-15	5.886311E-17
4.292150E+03	7.131853E-15	6.282510E-17
4.296990E+03	7.579895E-15	6.677195E-17
4.301830E+03	8.000830E-15	7.048000E-17
4.306670E+03	8.390224E-15	7.391021E-17
4.311510E+03	8.736393E-15	7.695964E-17
4.316350E+03	9.024342E-15	7.949620E-17
4.321180E+03	9.261867E-15	8.158858E-17
4.326020E+03	9.451499E-15	8.325906E-17
4.330860E+03	9.575777E-15	8.435384E-17
4.335700E+03	9.624789E-15	8.478559E-17
4.340540E+03	9.632432E-15	8.485291E-17
4.345380E+03	9.601499E-15	8.458042E-17
4.350220E+03	9.531612E-15	8.396479E-17
4.355060E+03	9.460091E-15	8.333475E-17
4.359900E+03	9.360390E-15	8.245648E-17
4.364730E+03	9.264574E-15	8.161242E-17
4.369570E+03	9.187420E-15	8.093276E-17
4.374410E+03	9.134835E-15	8.046954E-17
4.379250E+03	9.117874E-15	8.032013E-17
4.384090E+03	9.121932E-15	8.035587E-17
4.388930E+03	9.123086E-15	8.036604E-17
4.393770E+03	9.134965E-15	8.047068E-17
4.398610E+03	9.154339E-15	8.064135E-17
4.403450E+03	9.158347E-15	8.067665E-17
4.408280E+03	9.126979E-15	8.040033E-17
4.413120E+03	9.090602E-15	8.007988E-17
4.417960E+03	9.036700E-15	7.960505E-17
4.422800E+03	8.958428E-15	7.891555E-17
4.427640E+03	8.848284E-15	7.794528E-17
4.432480E+03	8.722375E-15	7.683614E-17
4.437320E+03	8.589191E-15	7.566291E-17
4.442160E+03	8.451906E-15	7.445355E-17
4.447000E+03	8.301914E-15	7.313226E-17
4.451830E+03	8.137521E-15	7.168410E-17
4.456670E+03	7.969605E-15	7.020491E-17
4.461510E+03	7.795928E-15	6.867498E-17
4.466350E+03	7.601352E-15	6.696094E-17
4.471190E+03	7.429283E-15	6.544517E-17
4.476030E+03	7.299339E-15	6.430049E-17
4.480870E+03	7.208538E-15	6.350062E-17
4.485710E+03	7.165458E-15	6.312111E-17
4.490550E+03	7.187683E-15	6.331690E-17
4.495380E+03	7.261862E-15	6.397035E-17
4.500220E+03	7.394030E-15	6.513463E-17
4.505060E+03	7.581775E-15	6.678849E-17
4.509900E+03	7.822478E-15	6.890886E-17
4.514740E+03	8.126014E-15	7.158273E-17
4.519580E+03	8.467958E-15	7.459494E-17
4.524420E+03	8.833613E-15	7.781603E-17
4.529260E+03	9.209226E-15	8.112484E-17
4.534100E+03	9.577450E-15	8.436855E-17
4.538930E+03	9.939019E-15	8.755364E-17
4.543770E+03	1.029392E-14	9.068003E-17
4.548610E+03	1.061222E-14	9.348395E-17
4.553450E+03	1.088358E-14	9.587433E-17
4.558290E+03	1.112131E-14	9.796852E-17
4.563130E+03	1.133276E-14	9.983119E-17
4.567970E+03	1.150366E-14	1.013367E-16
4.572810E+03	1.164681E-14	1.025977E-16
4.577650E+03	1.174769E-14	1.034864E-16
4.582480E+03	1.181535E-14	1.040824E-16
4.587320E+03	1.185203E-14	1.044055E-16
4.592160E+03	1.187165E-14	1.045783E-16
4.597000E+03	1.188317E-14	1.046798E-16
4.601840E+03	1.188386E-14	1.046859E-16
4.606680E+03	1.189511E-14	1.047850E-16
4.611520E+03	1.192281E-14	1.050290E-16
4.616360E+03	1.195674E-14	1.053279E-16
4.621200E+03	1.200909E-14	1.057891E-16
4.626030E+03	1.206896E-14	1.063164E-16
4.630870E+03	1.213196E-14	1.068714E-16
4.635710E+03	1.219241E-14	1.074040E-16
4.640550E+03	1.225978E-14	1.079974E-16
4.645390E+03	1.231931E-14	1.085218E-16
4.650230E+03	1.237141E-14	1.089808E-16
4.655070E+03	1.240612E-14	1.092866E-16
4.659910E+03	1.240546E-14	1.092807E-16
4.664750E+03	1.239708E-14	1.092069E-16
4.669580E+03	1.236487E-14	1.089232E-16
4.674420E+03	1.229273E-14	1.082877E-16
4.679260E+03	1.219077E-14	1.073895E-16
4.684100E+03	1.205346E-14	1.061799E-16
4.688940E+03	1.187162E-14	1.045781E-16
4.693780E+03	1.165393E-14	1.026604E-16
4.698620E+03	1.141120E-14	1.005222E-16
4.703460E+03	1.113299E-14	9.807140E-17
4.708300E+03	1.080826E-14	9.521086E-17
4.713130E+03	1.043783E-14	9.194769E-17
4.717970E+03	1.001595E-14	8.823131E-17
4.722810E+03	9.540471E-15	8.404278E-17
4.727650E+03	9.026274E-15	7.951318E-17
4.732490E+03	8.512077E-15	7.498357E-17
4.737330E+03	7.995573E-15	7.043365E-17
4.742170E+03	7.489135E-15	6.597240E-17
4.747010E+03	7.034733E-15	6.196953E-17
4.751850E+03	6.645620E-15	5.854180E-17
4.756680E+03	6.354637E-15	5.597851E-17
4.761520E+03	6.181436E-15	5.445277E-17
4.766360E+03	6.128839E-15	5.398943E-17
4.771200E+03	6.197313E-15	5.459262E-17
4.776040E+03	6.386674E-15	5.626073E-17
4.780880E+03	6.697794E-15	5.900140E-17
4.785720E+03	7.122157E-15	6.273966E-17
4.790560E+03	7.646337E-15	6.735720E-17
4.795400E+03	8.255406E-15	7.272254E-17
4.800230E+03	8.940394E-15	7.875665E-17
4.805070E+03	9.671658E-15	8.519841E-17
4.809910E+03	1.042190E-14	9.180736E-17
4.814750E+03	1.117895E-14	9.847630E-17
4.819590E+03	1.191125E-14	1.049271E-16
4.824430E+03	1.259535E-14	1.109534E-16
4.829270E+03	1.323571E-14	1.165944E-16
4.834110E+03	1.382040E-14	1.217451E-16
4.838950E+03	1.433070E-14	1.262402E-16
4.843780E+03	1.477105E-14	1.301193E-16
4.848620E+03	1.512341E-14	1.332233E-16
4.853460E+03	1.538501E-14	1.355278E-16
4.858300E+03	1.559463E-14	1.373744E-16
4.863140E+03	1.573827E-14	1.386396E-16
4.867980E+03	1.580105E-14	1.391927E-16
4.872820E+03	1.580046E-14	1.391875E-16
4.877660E+03	1.573082E-14	1.385741E-16
4.882500E+03	1.560407E-14	1.374575E-16
4.887330E+03	1.543811E-14	1.359956E-16
4.892170E+03	1.524573E-14	1.343008E-16
4.897010E+03	1.503204E-14	1.324184E-16
4.901850E+03	1.481003E-14	1.304627E-16
4.906690E+03	1.458990E-14	1.285236E-16
4.911530E+03	1.432838E-14	1.262198E-16
4.916370E+03	1.402806E-14	1.235743E-16
4.921210E+03	1.370530E-14	1.207311E-16
4.926050E+03	1.337457E-14	1.178176E-16
4.930880E+03	1.302000E-14	1.146942E-16
4.935720E+03	1.266999E-14	1.116110E-16
4.940560E+03	1.237178E-14	1.089840E-16
4.945400E+03	1.212724E-14	1.068298E-16
4.950240E+03	1.196846E-14	1.054311E-16
4.955080E+03	1.187952E-14	1.046476E-16
4.959920E+03	1.183897E-14	1.042904E-16
4.964760E+03	1.186113E-14	1.044856E-16
4.969600E+03	1.193620E-14	1.051469E-16
4.974430E+03	1.205654E-14	1.062070E-16
4.979270E+03	1.221278E-14	1.075833E-16
4.984110E+03	1.238546E-14	1.091045E-16
4.988950E+03	1.257797E-14	1.108003E-16
4.993790E+03	1.277885E-14	1.125699E-16
4.998630E+03	1.295797E-14	1.141478E-16
5.003470E+03	1.311768E-14	1.155547E-16
5.008310E+03	1.324623E-14	1.166870E-16
5.013150E+03	1.332764E-14	1.174042E-16
5.017980E+03	1.334285E-14	1.175382E-16
5.022820E+03	1.329637E-14	1.171288E-16
5.027660E+03	1.317799E-14	1.160859E-16
5.032500E+03	1.298529E-14	1.143884E-16
5.037340E+03	1.271357E-14	1.119949E-16
5.042180E+03	1.238728E-14	1.091205E-16
5.047020E+03	1.202813E-14	1.059568E-16
5.051860E+03	1.165545E-14	1.026737E-16
5.056700E+03	1.125313E-14	9.912966E-17
5.061530E+03	1.083590E-14	9.545425E-17
5.066370E+03	1.043222E-14	9.189820E-17
5.071210E+03	1.003833E-14	8.842844E-17
5.076050E+03	9.669283E-15	8.517748E-17
5.080890E+03	9.349282E-15	8.235856E-17
5.085730E+03	9.094544E-15	8.011455E-17
5.090570E+03	8.915828E-15	7.854023E-17
5.095410E+03	8.813014E-15	7.763453E-17
5.100250E+03	8.767636E-15	7.723479E-17
5.105080E+03	8.752307E-15	7.709976E-17
5.109920E+03	8.766962E-15	7.722885E-17
5.114760E+03	8.816146E-15	7.766212E-17
5.119600E+03	8.890229E-15	7.831472E-17
5.124440E+03	8.972952E-15	7.904344E-17
5.129280E+03	9.093820E-15	8.010817E-17
5.134120E+03	9.250691E-15	8.149006E-17
5.138960E+03	9.430015E-15	8.306974E-17
5.143800E+03	9.625114E-15	8.478838E-17
5.148630E+03	9.819382E-15	8.649970E-17
5.153470E+03	1.001094E-14	8.818712E-17
5.158310E+03	1.020124E-14	8.986353E-17
5.163150E+03	1.037478E-14	9.139220E-17
5.167990E+03	1.052391E-14	9.270596E-17
5.172830E+03	1.064848E-14	9.380326E-17
5.177670E+03	1.073487E-14	9.456434E-17
5.182510E+03	1.079702E-14	9.511175E-17
5.187350E+03	1.083412E-14	9.543864E-17
5.192180E+03	1.084169E-14	9.550531E-17
5.197020E+03	1.083070E-14	9.540850E-17
5.201860E+03	1.080386E-14	9.517205E-17
5.206700E+03	1.077542E-14	9.492153E-17
5.211540E+03	1.074024E-14	9.461159E-17
5.216380E+03	1.070018E-14	9.425874E-17
5.221220E+03	1.066410E-14	9.394089E-17
5.226060E+03	1.064002E-14	9.372876E-17
5.230900E+03	1.061003E-14	9.346457E-17
5.235730E+03	1.058156E-14	9.321375E-17
5.240570E+03	1.055560E-14	9.298513E-17
5.245410E+03	1.053978E-14	9.284577E-17
5.250250E+03	1.053796E-14	9.282968E-17
5.255090E+03	1.054930E-14	9.292958E-17
5.259930E+03	1.058711E-14	9.326269E-17
5.264770E+03	1.062288E-14	9.357777E-17
5.269610E+03	1.065295E-14	9.384263E-17
5.274450E+03	1.068713E-14	9.414376E-17
5.279280E+03	1.072094E-14	9.444155E-17
5.284120E+03	1.075681E-14	9.475756E-17
5.288960E+03	1.078864E-14	9.503793E-17
5.293800E+03	1.080783E-14	9.520697E-17
5.298640E+03	1.083096E-14	9.541075E-17
5.303480E+03	1.085373E-14	9.561131E-17
5.308320E+03	1.086473E-14	9.570821E-17
5.313160E+03	1.087274E-14	9.577881E-17
5.318000E+03	1.088592E-14	9.589496E-17
5.322830E+03	1.089430E-14	9.596876E-17
5.327670E+03	1.088688E-14	9.590335E-17
5.332510E+03	1.087181E-14	9.577061E-17
5.337350E+03	1.086092E-14	9.567469E-17
5.342190E+03	1.084241E-14	9.551166E-17
5.347030E+03	1.081507E-14	9.527077E-17
5.351870E+03	1.080269E-14	9.516169E-17
5.356710E+03	1.079976E-14	9.513593E-17
5.361550E+03	1.079898E-14	9.512908E-17
5.366380E+03	1.080340E-14	9.516801E-17
5.371220E+03	1.080670E-14	9.519709E-17
5.376060E+03	1.080749E-14	9.520402E-17
5.380900E+03	1.078650E-14	9.501910E-17
5.385740E+03	1.075063E-14	9.470314E-17
5.390580E+03	1.070458E-14	9.429744E-17
5.395420E+03	1.064914E-14	9.380914E-17
5.400260E+03	1.058699E-14	9.326162E-17
5.405100E+03	1.049928E-14	9.248898E-17
5.409930E+03	1.040628E-14	9.166971E-17
5.414770E+03	1.032703E-14	9.097158E-17
5.419610E+03	1.025018E-14	9.029459E-17
5.424450E+03	1.015386E-14	8.944617E-17
5.429290E+03	1.005267E-14	8.855476E-17
5.434130E+03	9.967245E-15	8.780224E-17
5.438970E+03	9.902835E-15	8.723484E-17
5.443810E+03	9.856806E-15	8.682936E-17
5.448650E+03	9.831175E-15	8.660358E-17
5.453480E+03	9.831200E-15	8.660380E-17
5.458320E+03	9.832399E-15	8.661436E-17
5.463160E+03	9.845499E-15	8.672976E-17
5.468000E+03	9.888095E-15	8.710499E-17
5.472840E+03	9.946634E-15	8.762067E-17
5.477680E+03	1.001566E-14	8.822869E-17
5.482520E+03	1.008990E-14	8.888274E-17
5.487360E+03	1.016391E-14	8.953470E-17
5.492200E+03	1.024133E-14	9.021668E-17
5.497030E+03	1.030799E-14	9.080393E-17
5.501870E+03	1.035723E-14	9.123762E-17
5.506710E+03	1.039793E-14	9.159615E-17
5.511550E+03	1.042767E-14	9.185819E-17
5.516390E+03	1.042984E-14	9.187730E-17
5.521230E+03	1.040525E-14	9.166065E-17
5.526070E+03	1.035691E-14	9.123485E-17
5.530910E+03	1.028561E-14	9.060678E-17
5.535750E+03	1.018649E-14	8.973359E-17
5.540580E+03	1.007024E-14	8.870957E-17
5.545420E+03	9.961788E-15	8.775416E-17
5.550260E+03	9.849157E-15	8.676199E-17
5.555100E+03	9.738020E-15	8.578298E-17
5.559940E+03	9.625735E-15	8.479384E-17
5.564780E+03	9.519391E-15	8.385705E-17
5.569620E+03	9.423452E-15	8.301192E-17
5.574460E+03	9.326759E-15	8.216015E-17
5.579300E+03	9.252446E-15	8.150551E-17
5.584140E+03	9.212913E-15	8.115727E-17
5.588970E+03	9.189905E-15	8.095459E-17
5.593810E+03	9.175320E-15	8.082611E-17
