#wls	flux	fluxerr
1.600000E+03	1.152499E-16	8.433993E-19
1.640000E+03	1.170141E-16	8.559499E-19
1.680000E+03	1.188584E-16	8.690775E-19
1.720000E+03	1.208783E-16	8.834785E-19
1.760000E+03	1.229376E-16	8.981582E-19
1.800000E+03	1.251789E-16	9.141569E-19
1.840000E+03	1.275126E-16	9.308183E-19
1.880000E+03	1.299886E-16	9.485073E-19
1.920000E+03	1.326108E-16	9.672504E-19
1.960000E+03	1.353830E-16	9.870736E-19
2.000000E+03	1.382609E-16	1.007654E-18
2.040000E+03	1.413440E-16	1.029715E-18
2.080000E+03	1.445880E-16	1.052933E-18
2.120000E+03	1.479964E-16	1.077331E-18
2.160000E+03	1.516210E-16	1.103287E-18
2.200000E+03	1.553663E-16	1.130102E-18
2.240000E+03	1.593323E-16	1.158505E-18
2.280000E+03	1.634702E-16	1.188138E-18
2.320000E+03	1.678295E-16	1.219360E-18
2.360000E+03	1.723574E-16	1.251785E-18
2.400000E+03	1.770486E-16	1.285375E-18
2.440000E+03	1.819464E-16	1.320442E-18
2.480000E+03	1.869877E-16	1.356527E-18
2.520000E+03	1.922082E-16	1.393889E-18
2.560000E+03	1.975342E-16	1.431992E-18
2.600000E+03	2.029899E-16	1.471010E-18
2.640000E+03	2.084861E-16	1.510298E-18
2.680000E+03	2.139775E-16	1.549527E-18
2.720000E+03	2.195150E-16	1.589065E-18
2.760000E+03	2.249251E-16	1.627658E-18
2.800000E+03	2.302353E-16	1.665505E-18
2.840000E+03	2.352998E-16	1.701554E-18
2.880000E+03	2.400140E-16	1.735049E-18
2.920000E+03	2.444218E-16	1.766313E-18
2.960000E+03	2.482909E-16	1.793668E-18
3.000000E+03	2.515980E-16	1.816951E-18
3.010000E+03	2.523120E-16	1.821956E-18
3.020000E+03	2.530134E-16	1.826869E-18
3.030000E+03	2.536484E-16	1.831303E-18
3.040000E+03	2.542669E-16	1.835616E-18
3.050000E+03	2.548155E-16	1.839425E-18
3.060000E+03	2.553439E-16	1.843087E-18
3.070000E+03	2.557994E-16	1.846224E-18
3.080000E+03	2.562315E-16	1.849191E-18
3.090000E+03	2.565884E-16	1.851615E-18
3.100000E+03	2.569691E-16	1.854211E-18
3.110000E+03	2.572225E-16	1.855889E-18
3.120000E+03	2.574973E-16	1.857721E-18
3.130000E+03	2.576935E-16	1.858985E-18
3.140000E+03	2.578598E-16	1.860034E-18
3.150000E+03	2.579474E-16	1.860516E-18
3.160000E+03	2.580532E-16	1.861129E-18
3.170000E+03	2.580805E-16	1.861176E-18
3.180000E+03	2.580782E-16	1.861010E-18
3.190000E+03	2.580468E-16	1.860635E-18
3.200000E+03	2.579872E-16	1.860057E-18
3.210000E+03	2.579006E-16	1.859285E-18
3.220000E+03	2.577887E-16	1.858330E-18
3.230000E+03	2.576534E-16	1.857207E-18
3.240000E+03	2.574970E-16	1.855933E-18
3.250000E+03	2.573225E-16	1.854529E-18
3.260000E+03	2.571330E-16	1.853017E-18
3.270000E+03	2.569757E-16	1.851738E-18
3.280000E+03	2.567670E-16	1.850089E-18
3.290000E+03	2.565983E-16	1.848729E-18
3.300000E+03	2.564734E-16	1.847685E-18
3.310000E+03	2.563541E-16	1.846681E-18
3.320000E+03	2.562464E-16	1.845762E-18
3.330000E+03	2.561977E-16	1.845268E-18
3.340000E+03	2.561723E-16	1.844943E-18
3.350000E+03	2.562180E-16	1.845129E-18
3.360000E+03	2.563407E-16	1.845871E-18
3.370000E+03	2.565070E-16	1.846927E-18
3.380000E+03	2.567643E-16	1.848638E-18
3.390000E+03	2.571194E-16	1.851052E-18
3.400000E+03	2.575792E-16	1.854221E-18
3.410000E+03	2.581510E-16	1.858196E-18
3.420000E+03	2.588417E-16	1.863026E-18
3.430000E+03	2.596583E-16	1.868762E-18
3.440000E+03	2.606448E-16	1.875720E-18
3.450000E+03	2.617321E-16	1.883403E-18
3.460000E+03	2.630007E-16	1.892390E-18
3.470000E+03	2.644182E-16	1.902447E-18
3.480000E+03	2.660253E-16	1.913866E-18
3.490000E+03	2.678244E-16	1.926666E-18
3.500000E+03	2.697813E-16	1.940599E-18
3.510000E+03	2.718971E-16	1.955672E-18
3.520000E+03	2.742427E-16	1.972398E-18
3.530000E+03	2.767803E-16	1.990502E-18
3.540000E+03	2.794717E-16	2.009709E-18
3.550000E+03	2.823844E-16	2.030505E-18
3.560000E+03	2.854452E-16	2.052364E-18
3.570000E+03	2.887230E-16	2.075779E-18
3.580000E+03	2.922185E-16	2.100757E-18
3.590000E+03	2.959019E-16	2.127082E-18
3.600000E+03	2.998009E-16	2.154953E-18
3.610000E+03	3.040871E-16	2.185603E-18
3.620000E+03	3.089469E-16	2.220373E-18
3.630000E+03	3.145709E-16	2.260629E-18
3.640000E+03	3.211455E-16	2.307710E-18
3.650000E+03	3.288101E-16	2.362618E-18
3.660000E+03	3.377895E-16	2.426964E-18
3.670000E+03	3.481702E-16	2.501370E-18
3.680000E+03	3.600639E-16	2.586634E-18
3.690000E+03	3.734443E-16	2.682566E-18
3.697700E+03	6.035114E-16	4.334973E-18
3.700000E+03	6.051873E-16	4.346940E-18
3.702300E+03	6.076277E-16	4.364398E-18
3.704600E+03	6.115990E-16	4.392852E-18
3.706900E+03	6.206774E-16	4.457985E-18
3.709210E+03	6.295358E-16	4.521537E-18
3.711510E+03	6.354689E-16	4.564076E-18
3.713810E+03	6.438994E-16	4.624551E-18
3.716110E+03	6.532600E-16	4.691704E-18
3.718410E+03	6.607207E-16	4.745210E-18
3.720710E+03	6.694281E-16	4.807668E-18
3.723010E+03	6.798446E-16	4.882397E-18
3.725320E+03	6.869930E-16	4.933655E-18
3.727620E+03	6.943101E-16	4.986122E-18
3.729920E+03	7.049468E-16	5.062427E-18
3.732220E+03	7.118241E-16	5.111732E-18
3.734520E+03	7.181555E-16	5.157116E-18
3.736820E+03	7.253229E-16	5.208502E-18
3.739130E+03	7.283383E-16	5.230070E-18
3.741430E+03	7.326555E-16	5.260987E-18
3.743730E+03	7.403567E-16	5.316202E-18
3.746030E+03	7.464789E-16	5.360077E-18
3.748330E+03	7.511663E-16	5.393648E-18
3.750630E+03	7.541962E-16	5.415317E-18
3.752930E+03	7.565200E-16	5.431915E-18
3.755240E+03	7.592395E-16	5.451354E-18
3.757540E+03	7.602926E-16	5.458828E-18
3.759840E+03	7.582061E-16	5.443759E-18
3.762140E+03	7.569482E-16	5.434641E-18
3.764440E+03	7.573311E-16	5.437303E-18
3.766740E+03	7.580301E-16	5.442235E-18
3.769040E+03	7.578649E-16	5.440962E-18
3.771350E+03	7.606030E-16	5.460532E-18
3.773650E+03	7.654337E-16	5.495125E-18
3.775950E+03	7.719939E-16	5.542133E-18
3.778250E+03	7.807342E-16	5.604790E-18
3.780550E+03	7.860238E-16	5.642674E-18
3.782850E+03	7.827313E-16	5.618949E-18
3.785150E+03	7.710513E-16	5.535015E-18
3.787460E+03	7.604835E-16	5.459066E-18
3.789760E+03	7.515442E-16	5.394810E-18
3.792060E+03	7.435995E-16	5.337696E-18
3.794360E+03	7.407721E-16	5.317316E-18
3.796660E+03	7.376232E-16	5.294629E-18
3.798960E+03	7.320802E-16	5.254759E-18
3.801260E+03	7.267396E-16	5.216342E-18
3.803570E+03	7.218594E-16	5.181231E-18
3.805870E+03	7.139963E-16	5.124712E-18
3.808170E+03	7.084180E-16	5.084594E-18
3.810470E+03	6.990284E-16	5.017121E-18
3.812770E+03	6.893178E-16	4.947347E-18
3.815070E+03	6.893176E-16	4.947268E-18
3.817380E+03	6.959572E-16	4.994842E-18
3.819680E+03	7.034142E-16	5.048280E-18
3.821980E+03	7.106044E-16	5.099803E-18
3.824280E+03	7.155026E-16	5.134876E-18
3.826580E+03	7.221996E-16	5.182856E-18
3.828880E+03	7.247627E-16	5.201168E-18
3.831180E+03	7.318503E-16	5.251949E-18
3.833490E+03	7.391228E-16	5.304055E-18
3.835790E+03	7.464729E-16	5.356716E-18
3.838090E+03	7.521753E-16	5.397552E-18
3.840390E+03	7.561018E-16	5.425643E-18
3.842690E+03	7.597091E-16	5.451443E-18
3.844990E+03	7.621737E-16	5.469043E-18
3.847290E+03	7.663902E-16	5.499214E-18
3.849600E+03	7.705148E-16	5.528722E-18
3.851900E+03	7.780627E-16	5.582794E-18
3.854200E+03	7.875700E-16	5.650924E-18
3.856500E+03	7.978084E-16	5.724296E-18
3.858800E+03	7.961474E-16	5.712289E-18
3.861100E+03	7.931657E-16	5.690808E-18
3.863400E+03	7.951556E-16	5.704996E-18
3.865710E+03	7.913209E-16	5.677395E-18
3.868010E+03	7.828732E-16	5.616699E-18
3.870310E+03	7.763159E-16	5.569567E-18
3.872610E+03	7.707817E-16	5.529777E-18
3.874910E+03	7.662444E-16	5.497140E-18
3.877210E+03	7.704301E-16	5.527083E-18
3.879510E+03	7.799914E-16	5.595589E-18
3.881820E+03	7.746421E-16	5.557128E-18
3.884120E+03	7.617666E-16	5.464677E-18
3.886420E+03	7.484261E-16	5.368893E-18
3.888720E+03	7.353999E-16	5.275367E-18
3.891020E+03	7.236572E-16	5.191052E-18
3.893320E+03	7.156155E-16	5.133286E-18
3.895630E+03	7.087460E-16	5.083931E-18
3.897930E+03	6.993666E-16	5.016574E-18
3.900230E+03	6.952042E-16	4.986640E-18
3.902530E+03	7.062592E-16	5.065859E-18
3.904830E+03	7.221184E-16	5.179534E-18
3.907130E+03	7.308662E-16	5.242199E-18
3.909430E+03	7.408626E-16	5.313817E-18
3.911740E+03	7.547875E-16	5.413610E-18
3.914040E+03	7.757097E-16	5.563586E-18
3.916340E+03	7.975070E-16	5.719834E-18
3.918640E+03	8.227027E-16	5.900451E-18
3.920940E+03	8.481671E-16	6.082989E-18
3.923240E+03	8.737958E-16	6.266701E-18
3.925540E+03	9.064072E-16	6.500485E-18
3.927850E+03	9.431169E-16	6.763651E-18
3.930150E+03	9.792877E-16	7.022947E-18
3.932450E+03	1.019493E-15	7.311164E-18
3.934750E+03	1.062933E-15	7.622578E-18
3.937050E+03	1.105942E-15	7.930883E-18
3.939350E+03	1.144417E-15	8.206670E-18
3.941650E+03	1.183262E-15	8.485102E-18
3.943960E+03	1.230468E-15	8.823477E-18
3.946260E+03	1.273863E-15	9.134518E-18
3.948560E+03	1.303450E-15	9.346532E-18
3.950860E+03	1.336685E-15	9.584704E-18
3.953160E+03	1.379218E-15	9.889534E-18
3.955460E+03	1.422632E-15	1.020068E-17
3.957760E+03	1.462280E-15	1.048481E-17
3.960070E+03	1.508889E-15	1.081883E-17
3.962370E+03	1.557385E-15	1.116639E-17
3.964670E+03	1.607873E-15	1.152821E-17
3.966970E+03	1.662535E-15	1.191994E-17
3.969270E+03	1.722228E-15	1.234774E-17
3.971570E+03	1.782362E-15	1.277869E-17
3.973880E+03	1.838666E-15	1.318216E-17
3.976180E+03	1.890166E-15	1.355119E-17
3.978480E+03	1.930024E-15	1.383673E-17
3.980780E+03	1.963922E-15	1.407954E-17
3.983080E+03	1.994961E-15	1.430185E-17
3.985380E+03	2.024144E-15	1.451084E-17
3.987680E+03	2.045774E-15	1.466568E-17
3.989990E+03	2.066969E-15	1.481741E-17
3.992290E+03	2.082674E-15	1.492976E-17
3.994590E+03	2.084091E-15	1.493970E-17
3.996890E+03	2.071751E-15	1.485102E-17
3.999190E+03	2.057819E-15	1.475093E-17
4.001490E+03	2.036717E-15	1.459945E-17
4.003790E+03	2.013221E-15	1.443081E-17
4.006100E+03	1.981053E-15	1.420001E-17
4.008400E+03	1.941524E-15	1.391647E-17
4.010700E+03	1.908671E-15	1.368078E-17
4.013000E+03	1.880021E-15	1.347523E-17
4.015300E+03	1.836560E-15	1.316351E-17
4.017600E+03	1.782116E-15	1.277310E-17
4.019900E+03	1.732436E-15	1.241684E-17
4.022210E+03	1.687381E-15	1.209374E-17
4.024510E+03	1.643555E-15	1.177945E-17
4.026810E+03	1.604116E-15	1.149662E-17
4.029110E+03	1.569609E-15	1.124915E-17
4.031410E+03	1.535859E-15	1.100710E-17
4.033710E+03	1.508566E-15	1.081134E-17
4.036010E+03	1.483812E-15	1.063378E-17
4.038320E+03	1.464518E-15	1.049535E-17
4.040620E+03	1.452893E-15	1.041189E-17
4.042920E+03	1.444839E-15	1.035402E-17
4.045220E+03	1.442049E-15	1.033387E-17
4.047520E+03	1.446230E-15	1.036368E-17
4.049820E+03	1.456970E-15	1.044049E-17
4.052130E+03	1.475021E-15	1.056969E-17
4.054430E+03	1.498884E-15	1.074053E-17
4.056730E+03	1.529308E-15	1.095837E-17
4.059030E+03	1.571672E-15	1.126177E-17
4.061330E+03	1.617637E-15	1.159096E-17
4.063630E+03	1.666235E-15	1.193901E-17
4.065930E+03	1.723925E-15	1.235219E-17
4.068240E+03	1.792373E-15	1.284244E-17
4.070540E+03	1.865228E-15	1.336426E-17
4.072840E+03	1.938740E-15	1.389076E-17
4.075140E+03	2.014082E-15	1.443037E-17
4.077440E+03	2.081699E-15	1.491460E-17
4.079740E+03	2.136402E-15	1.530631E-17
4.082040E+03	2.191888E-15	1.570361E-17
4.084350E+03	2.243553E-15	1.607353E-17
4.086650E+03	2.292983E-15	1.642741E-17
4.088950E+03	2.345544E-15	1.680373E-17
4.091250E+03	2.400793E-15	1.719929E-17
4.093550E+03	2.450720E-15	1.755671E-17
4.095850E+03	2.504064E-15	1.793860E-17
4.098150E+03	2.566051E-15	1.838240E-17
4.100460E+03	2.628767E-15	1.883140E-17
4.102760E+03	2.681547E-15	1.920922E-17
4.105060E+03	2.732350E-15	1.957286E-17
4.107360E+03	2.788616E-15	1.997562E-17
4.109660E+03	2.843184E-15	2.036621E-17
4.111960E+03	2.890973E-15	2.070824E-17
4.114260E+03	2.925212E-15	2.095319E-17
4.116570E+03	2.960195E-15	2.120346E-17
4.118870E+03	2.992832E-15	2.143693E-17
4.121170E+03	3.017010E-15	2.160980E-17
4.123470E+03	3.032133E-15	2.171781E-17
4.125770E+03	3.040212E-15	2.177536E-17
4.128070E+03	3.046429E-15	2.181957E-17
4.130380E+03	3.042496E-15	2.179109E-17
4.132680E+03	3.025998E-15	2.167262E-17
4.134980E+03	2.998772E-15	2.147731E-17
4.137280E+03	2.954123E-15	2.115723E-17
4.139580E+03	2.911770E-15	2.085360E-17
4.141880E+03	2.868625E-15	2.054431E-17
4.144180E+03	2.804181E-15	2.008249E-17
4.146490E+03	2.734379E-15	1.958231E-17
4.148790E+03	2.682459E-15	1.921022E-17
4.151090E+03	2.626604E-15	1.880995E-17
4.153390E+03	2.558098E-15	1.831909E-17
4.155690E+03	2.487686E-15	1.781460E-17
4.157990E+03	2.425982E-15	1.737248E-17
4.160290E+03	2.364191E-15	1.692976E-17
4.162600E+03	2.304325E-15	1.650083E-17
4.164900E+03	2.251697E-15	1.612374E-17
4.167200E+03	2.205205E-15	1.579060E-17
4.169500E+03	2.166881E-15	1.551596E-17
4.171800E+03	2.131118E-15	1.525966E-17
4.174100E+03	2.093526E-15	1.499027E-17
4.176400E+03	2.063008E-15	1.477155E-17
4.178710E+03	2.044979E-15	1.464224E-17
4.181010E+03	2.028127E-15	1.452138E-17
4.183310E+03	2.011506E-15	1.440217E-17
4.185610E+03	2.003693E-15	1.434602E-17
4.187910E+03	2.010506E-15	1.439460E-17
4.190210E+03	2.011820E-15	1.440381E-17
4.192510E+03	2.012931E-15	1.441156E-17
4.194820E+03	2.019368E-15	1.445744E-17
4.197120E+03	2.031129E-15	1.454144E-17
4.199420E+03	2.044364E-15	1.463598E-17
4.201720E+03	2.052079E-15	1.469101E-17
4.204020E+03	2.057563E-15	1.473006E-17
4.206320E+03	2.072985E-15	1.484026E-17
4.208630E+03	2.091760E-15	1.497446E-17
4.210930E+03	2.102550E-15	1.505149E-17
4.213230E+03	2.099662E-15	1.503060E-17
4.215530E+03	2.106643E-15	1.508037E-17
4.217830E+03	2.125293E-15	1.521366E-17
4.220130E+03	2.138774E-15	1.530995E-17
4.222430E+03	2.143038E-15	1.534026E-17
4.224740E+03	2.145047E-15	1.535442E-17
4.227040E+03	2.137481E-15	1.530006E-17
4.229340E+03	2.121601E-15	1.518618E-17
4.231640E+03	2.105669E-15	1.507193E-17
4.233940E+03	2.085931E-15	1.493043E-17
4.236240E+03	2.055839E-15	1.471484E-17
4.238540E+03	2.022394E-15	1.447526E-17
4.240850E+03	1.987875E-15	1.422799E-17
4.243150E+03	1.952857E-15	1.397715E-17
4.245450E+03	1.920031E-15	1.374202E-17
4.247750E+03	1.890800E-15	1.353263E-17
4.250050E+03	1.866773E-15	1.336048E-17
4.252350E+03	1.845672E-15	1.320927E-17
4.254650E+03	1.820915E-15	1.303191E-17
4.256960E+03	1.787698E-15	1.279401E-17
4.259260E+03	1.715738E-15	1.227884E-17
4.261560E+03	1.649518E-15	1.180477E-17
4.263860E+03	1.599195E-15	1.144447E-17
4.266160E+03	1.559396E-15	1.115951E-17
4.268460E+03	1.528552E-15	1.093862E-17
4.270760E+03	1.498435E-15	1.072295E-17
4.273070E+03	1.468250E-15	1.050680E-17
4.275370E+03	1.443733E-15	1.033121E-17
4.277670E+03	1.419961E-15	1.016097E-17
4.279970E+03	1.400174E-15	1.001924E-17
4.282270E+03	1.380132E-15	9.875688E-18
4.284570E+03	1.371289E-15	9.812278E-18
4.286880E+03	1.377543E-15	9.856887E-18
4.289180E+03	1.382982E-15	9.895677E-18
4.291480E+03	1.392797E-15	9.965768E-18
4.293780E+03	1.417281E-15	1.014082E-17
4.296080E+03	1.438650E-15	1.029358E-17
4.298380E+03	1.462708E-15	1.046557E-17
4.300680E+03	1.499264E-15	1.072698E-17
4.302990E+03	1.538961E-15	1.101085E-17
4.305290E+03	1.579645E-15	1.130179E-17
4.307590E+03	1.619790E-15	1.158885E-17
4.309890E+03	1.654469E-15	1.183680E-17
4.312190E+03	1.696600E-15	1.213806E-17
4.314490E+03	1.749800E-15	1.251850E-17
4.316790E+03	1.795075E-15	1.284224E-17
4.319100E+03	1.831379E-15	1.310178E-17
4.321400E+03	1.877732E-15	1.343321E-17
4.323700E+03	1.933863E-15	1.383458E-17
4.326000E+03	1.991745E-15	1.424847E-17
4.328300E+03	2.045079E-15	1.462981E-17
4.330600E+03	2.096228E-15	1.499551E-17
4.332900E+03	2.151917E-15	1.539368E-17
4.335210E+03	2.206881E-15	1.578665E-17
4.337510E+03	2.268465E-15	1.622696E-17
4.339810E+03	2.332958E-15	1.668808E-17
4.342110E+03	2.388721E-15	1.708673E-17
4.344410E+03	2.436043E-15	1.742500E-17
4.346710E+03	2.480210E-15	1.774068E-17
4.349020E+03	2.514550E-15	1.798607E-17
4.351320E+03	2.545170E-15	1.820485E-17
4.353620E+03	2.574160E-15	1.841196E-17
4.355920E+03	2.596599E-15	1.857221E-17
4.358220E+03	2.612261E-15	1.868399E-17
4.360520E+03	2.622070E-15	1.875389E-17
4.362820E+03	2.631250E-15	1.881930E-17
4.365130E+03	2.639390E-15	1.887726E-17
4.367430E+03	2.638483E-15	1.887053E-17
4.369730E+03	2.622739E-15	1.875767E-17
4.372030E+03	2.603265E-15	1.861816E-17
4.374330E+03	2.588794E-15	1.851442E-17
4.376630E+03	2.571119E-15	1.838777E-17
4.378930E+03	2.544535E-15	1.819740E-17
4.381240E+03	2.518321E-15	1.800969E-17
4.383540E+03	2.499113E-15	1.787209E-17
4.385840E+03	2.481864E-15	1.774850E-17
4.388140E+03	2.461288E-15	1.760112E-17
4.390440E+03	2.447229E-15	1.750035E-17
4.392740E+03	2.440336E-15	1.745083E-17
4.395040E+03	2.434158E-15	1.740642E-17
4.397350E+03	2.435392E-15	1.741502E-17
4.399650E+03	2.431184E-15	1.738470E-17
4.401950E+03	2.438118E-15	1.743405E-17
4.404250E+03	2.456753E-15	1.756707E-17
4.406550E+03	2.479020E-15	1.772606E-17
4.408850E+03	2.503009E-15	1.789736E-17
4.411150E+03	2.528191E-15	1.807718E-17
4.413460E+03	2.563329E-15	1.832819E-17
4.415760E+03	2.599774E-15	1.858853E-17
4.418060E+03	2.633902E-15	1.883230E-17
4.420360E+03	2.673090E-15	1.911224E-17
4.422660E+03	2.714670E-15	1.940928E-17
4.424960E+03	2.756075E-15	1.970506E-17
4.427270E+03	2.800423E-15	2.002187E-17
4.429570E+03	2.848987E-15	2.036882E-17
4.431870E+03	2.892121E-15	2.067694E-17
4.434170E+03	2.928092E-15	2.093384E-17
4.436470E+03	2.969572E-15	2.123011E-17
4.438770E+03	3.011838E-15	2.153201E-17
4.441070E+03	3.054782E-15	2.183873E-17
4.443380E+03	3.095504E-15	2.212957E-17
4.445680E+03	3.124384E-15	2.233574E-17
4.447980E+03	3.142484E-15	2.246484E-17
4.450280E+03	3.146113E-15	2.249049E-17
4.452580E+03	3.136755E-15	2.242331E-17
4.454880E+03	3.105305E-15	2.219820E-17
4.457180E+03	3.058213E-15	2.186129E-17
4.459490E+03	3.048708E-15	2.179306E-17
4.461790E+03	3.044030E-15	2.175934E-17
4.464090E+03	3.036175E-15	2.170291E-17
4.466390E+03	3.027199E-15	2.163847E-17
4.468690E+03	3.009180E-15	2.150939E-17
4.470990E+03	2.986227E-15	2.134505E-17
4.473290E+03	2.964740E-15	2.119120E-17
4.475600E+03	2.937667E-15	2.099741E-17
4.477900E+03	2.908788E-15	2.079073E-17
4.480200E+03	2.878110E-15	2.057119E-17
4.482500E+03	2.849657E-15	2.036757E-17
4.484800E+03	2.822779E-15	2.017520E-17
4.487100E+03	2.785823E-15	1.991081E-17
4.489400E+03	2.742589E-15	1.960157E-17
4.491710E+03	2.692420E-15	1.924276E-17
4.494010E+03	2.625369E-15	1.876330E-17
4.496310E+03	2.564231E-15	1.832612E-17
4.498610E+03	2.509672E-15	1.793597E-17
4.500910E+03	2.441930E-15	1.745161E-17
4.503210E+03	2.369074E-15	1.693072E-17
4.505520E+03	2.299744E-15	1.643504E-17
4.507820E+03	2.230983E-15	1.594344E-17
4.510120E+03	2.175601E-15	1.554747E-17
4.512420E+03	2.128800E-15	1.521282E-17
4.514720E+03	2.083911E-15	1.489185E-17
4.517020E+03	2.051123E-15	1.465736E-17
4.519320E+03	2.044042E-15	1.460657E-17
4.521630E+03	2.050088E-15	1.464959E-17
4.523930E+03	2.073766E-15	1.481860E-17
4.526230E+03	2.110817E-15	1.508317E-17
4.528530E+03	2.160267E-15	1.543633E-17
4.530830E+03	2.224320E-15	1.589383E-17
4.533130E+03	2.301339E-15	1.644395E-17
4.535430E+03	2.388919E-15	1.706954E-17
4.537740E+03	2.478501E-15	1.770940E-17
4.540040E+03	2.566343E-15	1.833683E-17
4.542340E+03	2.663874E-15	1.903346E-17
4.544640E+03	2.778902E-15	1.985509E-17
4.546940E+03	2.906160E-15	2.076407E-17
4.549240E+03	3.033776E-15	2.167560E-17
4.551540E+03	3.160869E-15	2.258337E-17
4.553850E+03	3.290187E-15	2.350701E-17
4.556150E+03	3.421394E-15	2.444412E-17
4.558450E+03	3.549870E-15	2.536171E-17
4.560750E+03	3.683533E-15	2.631632E-17
4.563050E+03	3.814680E-15	2.725294E-17
4.565350E+03	3.935158E-15	2.811332E-17
4.567650E+03	4.049367E-15	2.892888E-17
4.569960E+03	4.161046E-15	2.972636E-17
4.572260E+03	4.265013E-15	3.046871E-17
4.574560E+03	4.372389E-15	3.123541E-17
4.576860E+03	4.478328E-15	3.199182E-17
4.579160E+03	4.584811E-15	3.275210E-17
4.581460E+03	4.690843E-15	3.350914E-17
4.583770E+03	4.788493E-15	3.420628E-17
4.586070E+03	4.877970E-15	3.484502E-17
4.588370E+03	4.960377E-15	3.543325E-17
4.590670E+03	5.034831E-15	3.596465E-17
4.592970E+03	5.092617E-15	3.637698E-17
4.595270E+03	5.146632E-15	3.676237E-17
4.597570E+03	5.193456E-15	3.709638E-17
4.599880E+03	5.234854E-15	3.739162E-17
4.602180E+03	5.270712E-15	3.764729E-17
4.604480E+03	5.294083E-15	3.781376E-17
4.606780E+03	5.308164E-15	3.791387E-17
4.609080E+03	5.320673E-15	3.800276E-17
4.611380E+03	5.327641E-15	3.805206E-17
4.613680E+03	5.328186E-15	3.805549E-17
4.615990E+03	5.325285E-15	3.803431E-17
4.618290E+03	5.320041E-15	3.799640E-17
4.620590E+03	5.309479E-15	3.792049E-17
4.622890E+03	5.298669E-15	3.784283E-17
4.625190E+03	5.283865E-15	3.773665E-17
4.627490E+03	5.263854E-15	3.759327E-17
4.629790E+03	5.245253E-15	3.745998E-17
4.632100E+03	5.229608E-15	3.734779E-17
