#wls	flux	fluxerr
1.600000E+03	9.002257E-17	4.721571E-18
1.640000E+03	9.163189E-17	4.785815E-18
1.680000E+03	9.330807E-17	4.852355E-18
1.720000E+03	9.508719E-17	4.922981E-18
1.760000E+03	9.697268E-17	4.997765E-18
1.800000E+03	9.896829E-17	5.076785E-18
1.840000E+03	1.010444E-16	5.158414E-18
1.880000E+03	1.032385E-16	5.244450E-18
1.920000E+03	1.055550E-16	5.334988E-18
1.960000E+03	1.080327E-16	5.431833E-18
2.000000E+03	1.106084E-16	5.531658E-18
2.040000E+03	1.133212E-16	5.636266E-18
2.080000E+03	1.161763E-16	5.745754E-18
2.120000E+03	1.191790E-16	5.860203E-18
2.160000E+03	1.222993E-16	5.977962E-18
2.200000E+03	1.256127E-16	6.102535E-18
2.240000E+03	1.290893E-16	6.232236E-18
2.280000E+03	1.326974E-16	6.365328E-18
2.320000E+03	1.364768E-16	6.503509E-18
2.360000E+03	1.403935E-16	6.644936E-18
2.400000E+03	1.444855E-16	6.791189E-18
2.440000E+03	1.487533E-16	6.942027E-18
2.480000E+03	1.531569E-16	7.095348E-18
2.520000E+03	1.576909E-16	7.250667E-18
2.560000E+03	1.623850E-16	7.409125E-18
2.600000E+03	1.671884E-16	7.568157E-18
2.640000E+03	1.721228E-16	7.728530E-18
2.680000E+03	1.770861E-16	7.885461E-18
2.720000E+03	1.821278E-16	8.041011E-18
2.760000E+03	1.872112E-16	8.193399E-18
2.800000E+03	1.922103E-16	8.337014E-18
2.840000E+03	1.971520E-16	8.473029E-18
2.880000E+03	2.019738E-16	8.598774E-18
2.920000E+03	2.066046E-16	8.711320E-18
2.960000E+03	2.110073E-16	8.809282E-18
3.000000E+03	2.151391E-16	8.891114E-18
3.010000E+03	2.160934E-16	8.907592E-18
3.020000E+03	2.170552E-16	8.924092E-18
3.030000E+03	2.179813E-16	8.938849E-18
3.040000E+03	2.189121E-16	8.953520E-18
3.050000E+03	2.198046E-16	8.966350E-18
3.060000E+03	2.206575E-16	8.977298E-18
3.070000E+03	2.215109E-16	8.988005E-18
3.080000E+03	2.223222E-16	8.996745E-18
3.090000E+03	2.231313E-16	9.005146E-18
3.100000E+03	2.238959E-16	9.011497E-18
3.110000E+03	2.246559E-16	9.017422E-18
3.120000E+03	2.253691E-16	9.021230E-18
3.130000E+03	2.260756E-16	9.024535E-18
3.140000E+03	2.267334E-16	9.025671E-18
3.150000E+03	2.273825E-16	9.026240E-18
3.160000E+03	2.280219E-16	9.026206E-18
3.170000E+03	2.286507E-16	9.025535E-18
3.180000E+03	2.292281E-16	9.022626E-18
3.190000E+03	2.297938E-16	9.019053E-18
3.200000E+03	2.303473E-16	9.014805E-18
3.210000E+03	2.308883E-16	9.009868E-18
3.220000E+03	2.314164E-16	9.004237E-18
3.230000E+03	2.318923E-16	8.996388E-18
3.240000E+03	2.323950E-16	8.989397E-18
3.250000E+03	2.328853E-16	8.981740E-18
3.260000E+03	2.333247E-16	8.971945E-18
3.270000E+03	2.337917E-16	8.963041E-18
3.280000E+03	2.342484E-16	8.953565E-18
3.290000E+03	2.347341E-16	8.945020E-18
3.300000E+03	2.352115E-16	8.935979E-18
3.310000E+03	2.356822E-16	8.926510E-18
3.320000E+03	2.361483E-16	8.916690E-18
3.330000E+03	2.366492E-16	8.908008E-18
3.340000E+03	2.371496E-16	8.899127E-18
3.350000E+03	2.376893E-16	8.891535E-18
3.360000E+03	2.382706E-16	8.885308E-18
3.370000E+03	2.388601E-16	8.879182E-18
3.380000E+03	2.394975E-16	8.874635E-18
3.390000E+03	2.401862E-16	8.871774E-18
3.400000E+03	2.408941E-16	8.869398E-18
3.410000E+03	2.416971E-16	8.870285E-18
3.420000E+03	2.425281E-16	8.871948E-18
3.430000E+03	2.434624E-16	8.877123E-18
3.440000E+03	2.444690E-16	8.884652E-18
3.450000E+03	2.455529E-16	8.894683E-18
3.460000E+03	2.467532E-16	8.908607E-18
3.470000E+03	2.480053E-16	8.924053E-18
3.480000E+03	2.494163E-16	8.944845E-18
3.490000E+03	2.509206E-16	8.968582E-18
3.500000E+03	2.525206E-16	8.995319E-18
3.510000E+03	2.542506E-16	9.026235E-18
3.520000E+03	2.561085E-16	9.061213E-18
3.530000E+03	2.580895E-16	9.100036E-18
3.540000E+03	2.601856E-16	9.142380E-18
3.550000E+03	2.623851E-16	9.187790E-18
3.560000E+03	2.646730E-16	9.235707E-18
3.570000E+03	2.670318E-16	9.285493E-18
3.580000E+03	2.694780E-16	9.337693E-18
3.590000E+03	2.719732E-16	9.390950E-18
3.600000E+03	2.745396E-16	9.446012E-18
3.610000E+03	2.772744E-16	9.506182E-18
3.620000E+03	2.802769E-16	9.574792E-18
3.630000E+03	2.836620E-16	9.655660E-18
3.640000E+03	2.875146E-16	9.751523E-18
3.650000E+03	2.919775E-16	9.867033E-18
3.660000E+03	2.971826E-16	1.000641E-17
3.670000E+03	3.031828E-16	1.017116E-17
3.680000E+03	3.100106E-16	1.036206E-17
3.690000E+03	3.178048E-16	1.058345E-17
3.700000E+03	3.264837E-16	1.083224E-17
3.710000E+03	3.361369E-16	1.111109E-17
3.720000E+03	3.466697E-16	1.141650E-17
3.730000E+03	3.580420E-16	1.174684E-17
3.740000E+03	3.702843E-16	1.210279E-17
3.750000E+03	3.833021E-16	1.248095E-17
3.760000E+03	3.971645E-16	1.288327E-17
3.770000E+03	4.118684E-16	1.330934E-17
3.780000E+03	4.274862E-16	1.376117E-17
3.790000E+03	4.441744E-16	1.424344E-17
3.800000E+03	4.620622E-16	1.475988E-17
3.810000E+03	4.814049E-16	1.531817E-17
3.820000E+03	5.024681E-16	1.592618E-17
3.830000E+03	5.255636E-16	1.659311E-17
3.840000E+03	5.510470E-16	1.732939E-17
3.850000E+03	5.792694E-16	1.814513E-17
3.860000E+03	6.107967E-16	1.905696E-17
3.870000E+03	6.459489E-16	2.007359E-17
3.880000E+03	6.852839E-16	2.121095E-17
3.890000E+03	7.292511E-16	2.248132E-17
3.900000E+03	7.782397E-16	2.389492E-17
3.910000E+03	8.324621E-16	2.545639E-17
3.920000E+03	8.921032E-16	2.716939E-17
3.930000E+03	9.568727E-16	2.902310E-17
3.940000E+03	1.026099E-15	3.099531E-17
3.950000E+03	1.098564E-15	3.304773E-17
3.960000E+03	1.172612E-15	3.512957E-17
3.970000E+03	1.246218E-15	3.717978E-17
3.980000E+03	1.317264E-15	3.913560E-17
3.990000E+03	1.384219E-15	4.095274E-17
4.000000E+03	1.446086E-15	4.260331E-17
4.010000E+03	1.503396E-15	4.410480E-17
4.020000E+03	1.557324E-15	4.549326E-17
4.030000E+03	1.609361E-15	4.681331E-17
4.040000E+03	1.660362E-15	4.809043E-17
4.050000E+03	1.710600E-15	4.933290E-17
4.060000E+03	1.759824E-15	5.053383E-17
4.070000E+03	1.806706E-15	5.165559E-17
4.080000E+03	1.849627E-15	5.265300E-17
4.090000E+03	1.886108E-15	5.345728E-17
4.100000E+03	1.913753E-15	5.400327E-17
4.110000E+03	1.929961E-15	5.422117E-17
4.120000E+03	1.932846E-15	5.406249E-17
4.130000E+03	1.921293E-15	5.350118E-17
4.140000E+03	1.895471E-15	5.254726E-17
4.150000E+03	1.857047E-15	5.125210E-17
4.160000E+03	1.808598E-15	4.969116E-17
4.170000E+03	1.753693E-15	4.796581E-17
4.180000E+03	1.695591E-15	4.616711E-17
4.190000E+03	1.637330E-15	4.437867E-17
4.200000E+03	1.581396E-15	4.266755E-17
4.210000E+03	1.529567E-15	4.108068E-17
4.220000E+03	1.483467E-15	3.965990E-17
4.230000E+03	1.444058E-15	3.842875E-17
4.240000E+03	1.412420E-15	3.741332E-17
4.250000E+03	1.389392E-15	3.663291E-17
4.260000E+03	1.375846E-15	3.610721E-17
4.270000E+03	1.372495E-15	3.585135E-17
4.280000E+03	1.379832E-15	3.587445E-17
4.290000E+03	1.398228E-15	3.618219E-17
4.300000E+03	1.427436E-15	3.676420E-17
4.310000E+03	1.466752E-15	3.759852E-17
4.320000E+03	1.514798E-15	3.864632E-17
4.330000E+03	1.569594E-15	3.985425E-17
4.340000E+03	1.628567E-15	4.115483E-17
4.350000E+03	1.688647E-15	4.246947E-17
4.360000E+03	1.746260E-15	4.370830E-17
4.370000E+03	1.797718E-15	4.478047E-17
4.380000E+03	1.839421E-15	4.559900E-17
4.390000E+03	1.868732E-15	4.610239E-17
4.400000E+03	1.884328E-15	4.626266E-17
4.410000E+03	1.886730E-15	4.609749E-17
4.420000E+03	1.877365E-15	4.564630E-17
4.430000E+03	1.858308E-15	4.496346E-17
4.440000E+03	1.831903E-15	4.410891E-17
4.450000E+03	1.801260E-15	4.315969E-17
4.460000E+03	1.770009E-15	4.220388E-17
4.470000E+03	1.742391E-15	4.134232E-17
4.480000E+03	1.723111E-15	4.068476E-17
4.490000E+03	1.717224E-15	4.034714E-17
4.500000E+03	1.729801E-15	4.044333E-17
4.510000E+03	1.765096E-15	4.106600E-17
4.520000E+03	1.826155E-15	4.227793E-17
4.530000E+03	1.914967E-15	4.411619E-17
4.540000E+03	2.032227E-15	4.658746E-17
4.550000E+03	2.176946E-15	4.965968E-17
4.560000E+03	2.346276E-15	5.325917E-17
4.570000E+03	2.535453E-15	5.727029E-17
4.580000E+03	2.738054E-15	6.154227E-17
4.590000E+03	2.946163E-15	6.589385E-17
4.600000E+03	3.151354E-15	7.013597E-17
4.610000E+03	3.345365E-15	7.408687E-17
4.620000E+03	3.521030E-15	7.759255E-17
4.630000E+03	3.672959E-15	8.054104E-17
4.640000E+03	3.797584E-15	8.286238E-17
4.650000E+03	3.892974E-15	8.452364E-17
4.660000E+03	3.957774E-15	8.550513E-17
4.670000E+03	3.990624E-15	8.578750E-17
4.680000E+03	3.990272E-15	8.535423E-17
4.690000E+03	3.956261E-15	8.420618E-17
4.700000E+03	3.889607E-15	8.237556E-17
4.710000E+03	3.793507E-15	7.993997E-17
4.720000E+03	3.674515E-15	7.704604E-17
4.730000E+03	3.542053E-15	7.389740E-17
4.740000E+03	3.407249E-15	7.072913E-17
4.750000E+03	3.280987E-15	6.776657E-17
4.760000E+03	3.172850E-15	6.520388E-17
4.770000E+03	3.090315E-15	6.318814E-17
4.780000E+03	3.038207E-15	6.180948E-17
4.790000E+03	3.018588E-15	6.110017E-17
4.800000E+03	3.031542E-15	6.105187E-17
4.810000E+03	3.075957E-15	6.163228E-17
4.820000E+03	3.149751E-15	6.279028E-17
4.830000E+03	3.250074E-15	6.446046E-17
4.840000E+03	3.372964E-15	6.655667E-17
4.850000E+03	3.513406E-15	6.897370E-17
4.860000E+03	3.665329E-15	7.158782E-17
4.870000E+03	3.822338E-15	7.427147E-17
4.880000E+03	3.978214E-15	7.690303E-17
4.890000E+03	4.127391E-15	7.937598E-17
4.900000E+03	4.265424E-15	8.160745E-17
4.910000E+03	4.389143E-15	8.354057E-17
4.920000E+03	4.496900E-15	8.514850E-17
4.930000E+03	4.588477E-15	8.643205E-17
4.940000E+03	4.664872E-15	8.741474E-17
4.950000E+03	4.727776E-15	8.813271E-17
4.960000E+03	4.778872E-15	8.862122E-17
4.970000E+03	4.819075E-15	8.890068E-17
4.980000E+03	4.848219E-15	8.897130E-17
4.990000E+03	4.865120E-15	8.881477E-17
5.000000E+03	4.867278E-15	8.838927E-17
5.010000E+03	4.851485E-15	8.764115E-17
5.020000E+03	4.814075E-15	8.650968E-17
5.030000E+03	4.751888E-15	8.494455E-17
5.040000E+03	4.663078E-15	8.291994E-17
5.050000E+03	4.547769E-15	8.044544E-17
5.060000E+03	4.409140E-15	7.758436E-17
5.070000E+03	4.253064E-15	7.444581E-17
5.080000E+03	4.088518E-15	7.119080E-17
5.090000E+03	3.926480E-15	6.801161E-17
5.100000E+03	3.778085E-15	6.509921E-17
5.110000E+03	3.652254E-15	6.260268E-17
5.120000E+03	3.555191E-15	6.062154E-17
5.130000E+03	3.490383E-15	5.920715E-17
5.140000E+03	3.459066E-15	5.837173E-17
5.150000E+03	3.460719E-15	5.809775E-17
5.160000E+03	3.493096E-15	5.833919E-17
5.170000E+03	3.552236E-15	5.902239E-17
5.180000E+03	3.632609E-15	6.004936E-17
5.190000E+03	3.727323E-15	6.130161E-17
5.200000E+03	3.828996E-15	6.265508E-17
5.210000E+03	3.930757E-15	6.399657E-17
5.220000E+03	4.026788E-15	6.523224E-17
5.230000E+03	4.113287E-15	6.630259E-17
5.240000E+03	4.188915E-15	6.718886E-17
5.250000E+03	4.254405E-15	6.790571E-17
5.260000E+03	4.311786E-15	6.848814E-17
5.270000E+03	4.363501E-15	6.897698E-17
5.280000E+03	4.411952E-15	6.941168E-17
5.290000E+03	4.458865E-15	6.982033E-17
5.300000E+03	4.505270E-15	7.021971E-17
5.310000E+03	4.551303E-15	7.061236E-17
5.320000E+03	4.596308E-15	7.098862E-17
5.330000E+03	4.639173E-15	7.133200E-17
5.340000E+03	4.678347E-15	7.161956E-17
5.350000E+03	4.712407E-15	7.183070E-17
5.360000E+03	4.740443E-15	7.195303E-17
5.370000E+03	4.761870E-15	7.197916E-17
5.380000E+03	4.776287E-15	7.190464E-17
5.390000E+03	4.783421E-15	7.172694E-17
5.400000E+03	4.782707E-15	7.143916E-17
5.410000E+03	4.773097E-15	7.102730E-17
5.420000E+03	4.753096E-15	7.047085E-17
5.430000E+03	4.722133E-15	6.976318E-17
5.440000E+03	4.681419E-15	6.892389E-17
5.450000E+03	4.635262E-15	6.801767E-17
5.460000E+03	4.590025E-15	6.713831E-17
5.470000E+03	4.552956E-15	6.639131E-17
5.480000E+03	4.530803E-15	6.587364E-17
5.490000E+03	4.528121E-15	6.564950E-17
5.500000E+03	4.544870E-15	6.571595E-17
5.510000E+03	4.575633E-15	6.599254E-17
5.520000E+03	4.610598E-15	6.633648E-17
5.530000E+03	4.638206E-15	6.658140E-17
5.540000E+03	4.647278E-15	6.656779E-17
5.550000E+03	4.629538E-15	6.617887E-17
5.560000E+03	4.581568E-15	6.536788E-17
5.570000E+03	4.506531E-15	6.418184E-17
5.580000E+03	4.412983E-15	6.274384E-17
5.590000E+03	4.313458E-15	6.123245E-17
5.600000E+03	4.222418E-15	5.985235E-17
5.610000E+03	4.153153E-15	5.879048E-17
5.620000E+03	4.114811E-15	5.817439E-17
5.630000E+03	4.110874E-15	5.805119E-17
5.640000E+03	4.139922E-15	5.839891E-17
5.650000E+03	4.196601E-15	5.914052E-17
5.660000E+03	4.272302E-15	6.015362E-17
5.670000E+03	4.355873E-15	6.128068E-17
5.680000E+03	4.435362E-15	6.235345E-17
5.690000E+03	4.499423E-15	6.321271E-17
5.700000E+03	4.538129E-15	6.371945E-17
5.710000E+03	4.544122E-15	6.377095E-17
5.720000E+03	4.513189E-15	6.330860E-17
5.730000E+03	4.444532E-15	6.232162E-17
5.740000E+03	4.340235E-15	6.083944E-17
5.750000E+03	4.205584E-15	5.893617E-17
5.760000E+03	4.048640E-15	5.672461E-17
5.770000E+03	3.880739E-15	5.436323E-17
5.780000E+03	3.715730E-15	5.204558E-17
5.790000E+03	3.567650E-15	4.996778E-17
5.800000E+03	3.448654E-15	4.829960E-17
5.810000E+03	3.368124E-15	4.717208E-17
5.820000E+03	3.333100E-15	4.668357E-17
5.830000E+03	3.348579E-15	4.690398E-17
5.840000E+03	3.417788E-15	4.787860E-17
5.850000E+03	3.541591E-15	4.961975E-17
5.860000E+03	3.716886E-15	5.208432E-17
5.870000E+03	3.934596E-15	5.514554E-17
5.880000E+03	4.179043E-15	5.858407E-17
5.890000E+03	4.429175E-15	6.210511E-17
5.900000E+03	4.660923E-15	6.537124E-17
5.910000E+03	4.850559E-15	6.804947E-17
5.920000E+03	4.980065E-15	6.988653E-17
5.930000E+03	5.041724E-15	7.077333E-17
5.940000E+03	5.038613E-15	7.075218E-17
5.950000E+03	4.981909E-15	6.997911E-17
5.960000E+03	4.887987E-15	6.868340E-17
5.970000E+03	4.774029E-15	6.710591E-17
5.980000E+03	4.654504E-15	6.544969E-17
5.990000E+03	4.538970E-15	6.384902E-17
6.000000E+03	4.432595E-15	6.237659E-17
6.010000E+03	4.337220E-15	6.105844E-17
6.020000E+03	4.252326E-15	5.988736E-17
6.030000E+03	4.176465E-15	5.884308E-17
6.040000E+03	4.108539E-15	5.791027E-17
6.050000E+03	4.048752E-15	5.709192E-17
6.060000E+03	3.998282E-15	5.640477E-17
6.070000E+03	3.958956E-15	5.587479E-17
6.080000E+03	3.932535E-15	5.552705E-17
6.090000E+03	3.920209E-15	5.537863E-17
6.100000E+03	3.922010E-15	5.543029E-17
6.110000E+03	3.936223E-15	5.565809E-17
6.120000E+03	3.959668E-15	5.601736E-17
6.130000E+03	3.988179E-15	5.644938E-17
6.140000E+03	4.017324E-15	5.689157E-17
6.150000E+03	4.042862E-15	5.728395E-17
6.160000E+03	4.061636E-15	5.758173E-17
6.170000E+03	4.072335E-15	5.776626E-17
6.180000E+03	4.075447E-15	5.784435E-17
6.190000E+03	4.073275E-15	5.784862E-17
6.200000E+03	4.069372E-15	5.782948E-17
6.210000E+03	4.067543E-15	5.784111E-17
6.220000E+03	4.070687E-15	5.792489E-17
6.230000E+03	4.079619E-15	5.809270E-17
6.240000E+03	4.093531E-15	5.833328E-17
6.250000E+03	4.110088E-15	5.861364E-17
6.260000E+03	4.126234E-15	5.889037E-17
6.270000E+03	4.138500E-15	5.911404E-17
6.280000E+03	4.143813E-15	5.924074E-17
6.290000E+03	4.139939E-15	5.923837E-17
6.300000E+03	4.124969E-15	5.907936E-17
6.310000E+03	4.096834E-15	5.873369E-17
6.320000E+03	4.052345E-15	5.815513E-17
6.330000E+03	3.987065E-15	5.727926E-17
6.340000E+03	3.894751E-15	5.601536E-17
6.350000E+03	3.768355E-15	5.426053E-17
6.360000E+03	3.602541E-15	5.193603E-17
6.370000E+03	3.397096E-15	4.903641E-17
6.380000E+03	3.158783E-15	4.565687E-17
6.390000E+03	2.900887E-15	4.198730E-17
6.400000E+03	2.641659E-15	3.829050E-17
6.410000E+03	2.401187E-15	3.485736E-17
6.420000E+03	2.197717E-15	3.195382E-17
6.430000E+03	2.045644E-15	2.979149E-17
6.440000E+03	1.956284E-15	2.853877E-17
6.450000E+03	1.939381E-15	2.834251E-17
6.460000E+03	2.004782E-15	2.935251E-17
6.470000E+03	2.164215E-15	3.174771E-17
6.480000E+03	2.433520E-15	3.576928E-17
6.490000E+03	2.833462E-15	4.173336E-17
6.500000E+03	3.387425E-15	4.999799E-17
6.510000E+03	4.117109E-15	6.089987E-17
6.520000E+03	5.036164E-15	7.465995E-17
6.530000E+03	6.138329E-15	9.120588E-17
6.540000E+03	7.376701E-15	1.098599E-16
6.550000E+03	8.646922E-15	1.290805E-16
6.560000E+03	9.797244E-15	1.466024E-16
6.570000E+03	1.066388E-14	1.599577E-16
6.580000E+03	1.112188E-14	1.672376E-16
6.590000E+03	1.112876E-14	1.677568E-16
6.600000E+03	1.073053E-14	1.621592E-16
6.610000E+03	1.003499E-14	1.520314E-16
6.620000E+03	9.172245E-15	1.393141E-16
6.630000E+03	8.262030E-15	1.258098E-16
6.640000E+03	7.392485E-15	1.128576E-16
6.650000E+03	6.617040E-15	1.012790E-16
6.660000E+03	5.959224E-15	9.144550E-17
6.670000E+03	5.421560E-15	8.340918E-17
6.680000E+03	4.993011E-15	7.701370E-17
6.690000E+03	4.656901E-15	7.201382E-17
6.700000E+03	4.396105E-15	6.815486E-17
6.710000E+03	4.195048E-15	6.520347E-17
6.720000E+03	4.040234E-15	6.295633E-17
6.730000E+03	3.920827E-15	6.124952E-17
6.740000E+03	3.828434E-15	5.995564E-17
6.750000E+03	3.756578E-15	5.897610E-17
6.760000E+03	3.700073E-15	5.823157E-17
6.770000E+03	3.654593E-15	5.765548E-17
6.780000E+03	3.616455E-15	5.719077E-17
6.790000E+03	3.582417E-15	5.678677E-17
6.800000E+03	3.549778E-15	5.640096E-17
6.810000E+03	3.516371E-15	5.599891E-17
6.820000E+03	3.481168E-15	5.556403E-17
6.830000E+03	3.444357E-15	5.509910E-17
6.840000E+03	3.407090E-15	5.462235E-17
6.850000E+03	3.371005E-15	5.416000E-17
6.860000E+03	3.338088E-15	5.374413E-17
6.870000E+03	3.310082E-15	5.340312E-17
6.880000E+03	3.288541E-15	5.316257E-17
6.890000E+03	3.274365E-15	5.303763E-17
6.900000E+03	3.267776E-15	5.303254E-17
6.910000E+03	3.268511E-15	5.314368E-17
6.920000E+03	3.275564E-15	5.335524E-17
6.930000E+03	3.287556E-15	5.364517E-17
6.940000E+03	3.303029E-15	5.398997E-17
6.950000E+03	3.320640E-15	5.436785E-17
6.960000E+03	3.339311E-15	5.476116E-17
6.970000E+03	3.358134E-15	5.515497E-17
6.980000E+03	3.376382E-15	5.553723E-17
6.990000E+03	3.393417E-15	5.589725E-17
7.000000E+03	3.408498E-15	5.622262E-17
7.010000E+03	3.420611E-15	5.649638E-17
7.020000E+03	3.428625E-15	5.669953E-17
7.030000E+03	3.431668E-15	5.681730E-17
7.040000E+03	3.429094E-15	5.683863E-17
7.050000E+03	3.420540E-15	5.675716E-17
7.060000E+03	3.405950E-15	5.657162E-17
7.070000E+03	3.385426E-15	5.628342E-17
7.080000E+03	3.359334E-15	5.589838E-17
7.090000E+03	3.328157E-15	5.542437E-17
7.100000E+03	3.292768E-15	5.487580E-17
7.110000E+03	3.254351E-15	5.427234E-17
7.120000E+03	3.214691E-15	5.364378E-17
7.130000E+03	3.176185E-15	5.303022E-17
7.140000E+03	3.141654E-15	5.247892E-17
7.150000E+03	3.113671E-15	5.203307E-17
7.160000E+03	3.094444E-15	5.172979E-17
7.170000E+03	3.085558E-15	5.159582E-17
7.180000E+03	3.087910E-15	5.164631E-17
7.190000E+03	3.101466E-15	5.188080E-17
7.200000E+03	3.125365E-15	5.228494E-17
7.210000E+03	3.157968E-15	5.283128E-17
7.220000E+03	3.197052E-15	5.348253E-17
7.230000E+03	3.239904E-15	5.419319E-17
7.240000E+03	3.283676E-15	5.491546E-17
7.250000E+03	3.325779E-15	5.560592E-17
7.260000E+03	3.363757E-15	5.622344E-17
7.270000E+03	3.395487E-15	5.673250E-17
7.280000E+03	3.419083E-15	5.710163E-17
7.290000E+03	3.432797E-15	5.730181E-17
7.300000E+03	3.435063E-15	5.730715E-17
7.310000E+03	3.424422E-15	5.709367E-17
7.320000E+03	3.400009E-15	5.664746E-17
7.330000E+03	3.361741E-15	5.596772E-17
7.340000E+03	3.311026E-15	5.507854E-17
7.350000E+03	3.250305E-15	5.402123E-17
7.360000E+03	3.183200E-15	5.285658E-17
7.370000E+03	3.114090E-15	5.165779E-17
7.380000E+03	3.047484E-15	5.049992E-17
7.390000E+03	2.987282E-15	4.944765E-17
7.400000E+03	2.936188E-15	4.854557E-17
7.410000E+03	2.895840E-15	4.782041E-17
7.420000E+03	2.866369E-15	4.727383E-17
7.430000E+03	2.846498E-15	4.688427E-17
7.440000E+03	2.833895E-15	4.661288E-17
7.450000E+03	2.825687E-15	4.641207E-17
7.460000E+03	2.818603E-15	4.622802E-17
7.470000E+03	2.809412E-15	4.600781E-17
7.480000E+03	2.794772E-15	4.569705E-17
7.490000E+03	2.771660E-15	4.524696E-17
7.500000E+03	2.737176E-15	4.461105E-17
7.510000E+03	2.688830E-15	4.374988E-17
7.520000E+03	2.624893E-15	4.263669E-17
7.530000E+03	2.545213E-15	4.127050E-17
7.540000E+03	2.452062E-15	3.968963E-17
7.550000E+03	2.350454E-15	3.797651E-17
7.560000E+03	2.246796E-15	3.623540E-17
7.570000E+03	2.147499E-15	3.456992E-17
7.580000E+03	2.057999E-15	3.306719E-17
7.590000E+03	1.982612E-15	3.179573E-17
7.600000E+03	1.924540E-15	3.080566E-17
7.610000E+03	1.885881E-15	3.012904E-17
7.620000E+03	1.867675E-15	2.978077E-17
7.630000E+03	1.869737E-15	2.975613E-17
7.640000E+03	1.890389E-15	3.002671E-17
7.650000E+03	1.926436E-15	3.054025E-17
7.660000E+03	1.973316E-15	3.122329E-17
7.670000E+03	2.025178E-15	3.198256E-17
7.680000E+03	2.076047E-15	3.272363E-17
7.690000E+03	2.121558E-15	3.337805E-17
7.700000E+03	2.160414E-15	3.392617E-17
7.710000E+03	2.193975E-15	3.439003E-17
7.720000E+03	2.225031E-15	3.481399E-17
7.730000E+03	2.256435E-15	3.524303E-17
7.740000E+03	2.290161E-15	3.570810E-17
7.750000E+03	2.326555E-15	3.621467E-17
7.760000E+03	2.363771E-15	3.673409E-17
