#wls	flux	fluxerr
1.600000E+03	1.227782E-17	8.972981E-19
1.640000E+03	1.249748E-17	9.101189E-19
1.680000E+03	1.272507E-17	9.233193E-19
1.720000E+03	1.296472E-17	9.371855E-19
1.760000E+03	1.321330E-17	9.514765E-19
1.800000E+03	1.347871E-17	9.667454E-19
1.840000E+03	1.375427E-17	9.824922E-19
1.880000E+03	1.404434E-17	9.990115E-19
1.920000E+03	1.434596E-17	1.016073E-18
1.960000E+03	1.466743E-17	1.034242E-18
2.000000E+03	1.500596E-17	1.053296E-18
2.040000E+03	1.536257E-17	1.073281E-18
2.080000E+03	1.573838E-17	1.094247E-18
2.120000E+03	1.613462E-17	1.116248E-18
2.160000E+03	1.655648E-17	1.139609E-18
2.200000E+03	1.699778E-17	1.163869E-18
2.240000E+03	1.747177E-17	1.189897E-18
2.280000E+03	1.796862E-17	1.216977E-18
2.320000E+03	1.850215E-17	1.246000E-18
2.360000E+03	1.906674E-17	1.276531E-18
2.400000E+03	1.967298E-17	1.309223E-18
2.440000E+03	2.031561E-17	1.343660E-18
2.480000E+03	2.100182E-17	1.380252E-18
2.520000E+03	2.173942E-17	1.419433E-18
2.560000E+03	2.253257E-17	1.461386E-18
2.600000E+03	2.338163E-17	1.506038E-18
2.640000E+03	2.430058E-17	1.554184E-18
2.680000E+03	2.529119E-17	1.605814E-18
2.720000E+03	2.636501E-17	1.661528E-18
2.760000E+03	2.752561E-17	1.721400E-18
2.800000E+03	2.879178E-17	1.786437E-18
2.840000E+03	3.017494E-17	1.857149E-18
2.880000E+03	3.168834E-17	1.934130E-18
2.920000E+03	3.335268E-17	2.018391E-18
2.960000E+03	3.518676E-17	2.110776E-18
3.000000E+03	3.722371E-17	2.212935E-18
3.010000E+03	3.776133E-17	2.239761E-18
3.020000E+03	3.832174E-17	2.267766E-18
3.030000E+03	3.889434E-17	2.296315E-18
3.040000E+03	3.947956E-17	2.325427E-18
3.050000E+03	4.008360E-17	2.355462E-18
3.060000E+03	4.070710E-17	2.386445E-18
3.070000E+03	4.134487E-17	2.418066E-18
3.080000E+03	4.200333E-17	2.450692E-18
3.090000E+03	4.267723E-17	2.484008E-18
3.100000E+03	4.337317E-17	2.518389E-18
3.110000E+03	4.409193E-17	2.553869E-18
3.120000E+03	4.482818E-17	2.590130E-18
3.130000E+03	4.558877E-17	2.627557E-18
3.140000E+03	4.637458E-17	2.666191E-18
3.150000E+03	4.718020E-17	2.705709E-18
3.160000E+03	4.801278E-17	2.746508E-18
3.170000E+03	4.887329E-17	2.788632E-18
3.180000E+03	4.976275E-17	2.832127E-18
3.190000E+03	5.067565E-17	2.876663E-18
3.200000E+03	5.161953E-17	2.922656E-18
3.210000E+03	5.259552E-17	2.970156E-18
3.220000E+03	5.359799E-17	3.018829E-18
3.230000E+03	5.464169E-17	3.069491E-18
3.240000E+03	5.571414E-17	3.121422E-18
3.250000E+03	5.682345E-17	3.175061E-18
3.260000E+03	5.797090E-17	3.230461E-18
3.270000E+03	5.915780E-17	3.287676E-18
3.280000E+03	6.037814E-17	3.346352E-18
3.290000E+03	6.164784E-17	3.407353E-18
3.300000E+03	6.295343E-17	3.469913E-18
3.310000E+03	6.430356E-17	3.534487E-18
3.320000E+03	6.570723E-17	3.601547E-18
3.330000E+03	6.715026E-17	3.670291E-18
3.340000E+03	6.864141E-17	3.741176E-18
3.350000E+03	7.018170E-17	3.814233E-18
3.360000E+03	7.177200E-17	3.889485E-18
3.370000E+03	7.341302E-17	3.966942E-18
3.380000E+03	7.511367E-17	4.047061E-18
3.390000E+03	7.685741E-17	4.128921E-18
3.400000E+03	7.865247E-17	4.212941E-18
3.410000E+03	8.049834E-17	4.299066E-18
3.420000E+03	8.240304E-17	4.387698E-18
3.430000E+03	8.435642E-17	4.478265E-18
3.440000E+03	8.634722E-17	4.570148E-18
3.450000E+03	8.839092E-17	4.664142E-18
3.460000E+03	9.047506E-17	4.759563E-18
3.470000E+03	9.260493E-17	4.856666E-18
3.480000E+03	9.475603E-17	4.954146E-18
3.490000E+03	9.694171E-17	5.052685E-18
3.500000E+03	9.914512E-17	5.151389E-18
3.510000E+03	1.013582E-16	5.249827E-18
3.520000E+03	1.035717E-16	5.347517E-18
3.530000E+03	1.057862E-16	5.444489E-18
3.540000E+03	1.079813E-16	5.539684E-18
3.550000E+03	1.101567E-16	5.633098E-18
3.560000E+03	1.122805E-16	5.723119E-18
3.570000E+03	1.143753E-16	5.810905E-18
3.580000E+03	1.163995E-16	5.894377E-18
3.590000E+03	1.183679E-16	5.974306E-18
3.600000E+03	1.202630E-16	6.049837E-18
3.610000E+03	1.220900E-16	6.121271E-18
3.620000E+03	1.238442E-16	6.188403E-18
3.630000E+03	1.254996E-16	6.249974E-18
3.640000E+03	1.270887E-16	6.307644E-18
3.650000E+03	1.285776E-16	6.359773E-18
3.660000E+03	1.300016E-16	6.408145E-18
3.670000E+03	1.313400E-16	6.451780E-18
3.680000E+03	1.325948E-16	6.490819E-18
3.690000E+03	1.337795E-16	6.525961E-18
3.700000E+03	1.348960E-16	6.557328E-18
3.710000E+03	1.359338E-16	6.584453E-18
3.720000E+03	1.369047E-16	6.607945E-18
3.730000E+03	1.378082E-16	6.627808E-18
3.740000E+03	1.386316E-16	6.643473E-18
3.750000E+03	1.393835E-16	6.655395E-18
3.760000E+03	1.400608E-16	6.663457E-18
3.770000E+03	1.406590E-16	6.667485E-18
3.780000E+03	1.411621E-16	6.666767E-18
3.790000E+03	1.415753E-16	6.661598E-18
3.800000E+03	1.418817E-16	6.651231E-18
3.810000E+03	1.420967E-16	6.636446E-18
3.820000E+03	1.421925E-16	6.615991E-18
3.830000E+03	1.421846E-16	6.590656E-18
3.840000E+03	1.420467E-16	6.559278E-18
3.850000E+03	1.417857E-16	6.522241E-18
3.860000E+03	1.413889E-16	6.479033E-18
3.870000E+03	1.408760E-16	6.430629E-18
3.880000E+03	1.402380E-16	6.376681E-18
3.890000E+03	1.394689E-16	6.316983E-18
3.900000E+03	1.385845E-16	6.252323E-18
3.910000E+03	1.376027E-16	6.183560E-18
3.920000E+03	1.365152E-16	6.110386E-18
3.930000E+03	1.353444E-16	6.033854E-18
3.940000E+03	1.341053E-16	5.954682E-18
3.950000E+03	1.328148E-16	5.873644E-18
3.960000E+03	1.314994E-16	5.791948E-18
3.970000E+03	1.301607E-16	5.709676E-18
3.980000E+03	1.288269E-16	5.628068E-18
3.990000E+03	1.275165E-16	5.547939E-18
4.000000E+03	1.262471E-16	5.470038E-18
4.010000E+03	1.250346E-16	5.395028E-18
4.020000E+03	1.238920E-16	5.323435E-18
4.030000E+03	1.228291E-16	5.255653E-18
4.040000E+03	1.218597E-16	5.192220E-18
4.050000E+03	1.209719E-16	5.132587E-18
4.060000E+03	1.201726E-16	5.077002E-18
4.070000E+03	1.194587E-16	5.025289E-18
4.080000E+03	1.188320E-16	4.977475E-18
4.090000E+03	1.182728E-16	4.932697E-18
4.100000E+03	1.177887E-16	4.891235E-18
4.110000E+03	1.173620E-16	4.852315E-18
4.120000E+03	1.169964E-16	4.816064E-18
4.130000E+03	1.166981E-16	4.782704E-18
4.140000E+03	1.164572E-16	4.751794E-18
4.150000E+03	1.162918E-16	4.724037E-18
4.160000E+03	1.161978E-16	4.699238E-18
4.170000E+03	1.161981E-16	4.678274E-18
4.180000E+03	1.162931E-16	4.661111E-18
4.190000E+03	1.165084E-16	4.648727E-18
4.200000E+03	1.168466E-16	4.641160E-18
4.210000E+03	1.173287E-16	4.639170E-18
4.220000E+03	1.179747E-16	4.643480E-18
4.230000E+03	1.187869E-16	4.654083E-18
4.240000E+03	1.197833E-16	4.671597E-18
4.250000E+03	1.209736E-16	4.696304E-18
4.260000E+03	1.223642E-16	4.728348E-18
4.270000E+03	1.239571E-16	4.767700E-18
4.280000E+03	1.257426E-16	4.813889E-18
4.290000E+03	1.277217E-16	4.866847E-18
4.300000E+03	1.298642E-16	4.925334E-18
4.310000E+03	1.321481E-16	4.988432E-18
4.320000E+03	1.345299E-16	5.054436E-18
4.330000E+03	1.369736E-16	5.121959E-18
4.340000E+03	1.394101E-16	5.188392E-18
4.350000E+03	1.417800E-16	5.251551E-18
4.360000E+03	1.440080E-16	5.308699E-18
4.370000E+03	1.460395E-16	5.357914E-18
4.380000E+03	1.478021E-16	5.396659E-18
4.390000E+03	1.492873E-16	5.424776E-18
4.400000E+03	1.504896E-16	5.442217E-18
4.410000E+03	1.514811E-16	5.451725E-18
4.420000E+03	1.523263E-16	5.455729E-18
4.430000E+03	1.531421E-16	5.458475E-18
4.440000E+03	1.540143E-16	5.463029E-18
4.450000E+03	1.550574E-16	5.473405E-18
4.460000E+03	1.563610E-16	5.492668E-18
4.470000E+03	1.580174E-16	5.523920E-18
4.480000E+03	1.600948E-16	5.569358E-18
4.490000E+03	1.626532E-16	5.630851E-18
4.500000E+03	1.657356E-16	5.709646E-18
4.510000E+03	1.693717E-16	5.806506E-18
4.520000E+03	1.735498E-16	5.920755E-18
4.530000E+03	1.782504E-16	6.051470E-18
4.540000E+03	1.834261E-16	6.196789E-18
4.550000E+03	1.889797E-16	6.353216E-18
4.560000E+03	1.948109E-16	6.517214E-18
4.570000E+03	2.007667E-16	6.683560E-18
4.580000E+03	2.066951E-16	6.847166E-18
4.590000E+03	2.124283E-16	7.002514E-18
4.600000E+03	2.178015E-16	7.144303E-18
4.610000E+03	2.226588E-16	7.267624E-18
4.620000E+03	2.268883E-16	7.369093E-18
4.630000E+03	2.304097E-16	7.446422E-18
4.640000E+03	2.331807E-16	7.498593E-18
4.650000E+03	2.352219E-16	7.526621E-18
4.660000E+03	2.365835E-16	7.532459E-18
4.670000E+03	2.373703E-16	7.519746E-18
4.680000E+03	2.377034E-16	7.492572E-18
4.690000E+03	2.377331E-16	7.455864E-18
4.700000E+03	2.376298E-16	7.415073E-18
4.710000E+03	2.375516E-16	7.375174E-18
4.720000E+03	2.376592E-16	7.341113E-18
4.730000E+03	2.381009E-16	7.317356E-18
4.740000E+03	2.390071E-16	7.307729E-18
4.750000E+03	2.404929E-16	7.315511E-18
4.760000E+03	2.426256E-16	7.342467E-18
4.770000E+03	2.454709E-16	7.390269E-18
4.780000E+03	2.490332E-16	7.458713E-18
4.790000E+03	2.533020E-16	7.547153E-18
4.800000E+03	2.582209E-16	7.653585E-18
4.810000E+03	2.636935E-16	7.774867E-18
4.820000E+03	2.695839E-16	7.906756E-18
4.830000E+03	2.757117E-16	8.043793E-18
4.840000E+03	2.818817E-16	8.180205E-18
4.850000E+03	2.878725E-16	8.309581E-18
4.860000E+03	2.934511E-16	8.425322E-18
4.870000E+03	2.984082E-16	8.521635E-18
4.880000E+03	3.025856E-16	8.594320E-18
4.890000E+03	3.058378E-16	8.639628E-18
4.900000E+03	3.081320E-16	8.657061E-18
4.910000E+03	3.094534E-16	8.646653E-18
4.920000E+03	3.098864E-16	8.611197E-18
4.930000E+03	3.095329E-16	8.553919E-18
4.940000E+03	3.085293E-16	8.478924E-18
4.950000E+03	3.069817E-16	8.389417E-18
4.960000E+03	3.049986E-16	8.288594E-18
4.970000E+03	3.026182E-16	8.177689E-18
4.980000E+03	2.998398E-16	8.056865E-18
4.990000E+03	2.965868E-16	7.924258E-18
5.000000E+03	2.927663E-16	7.777617E-18
5.010000E+03	2.882694E-16	7.614329E-18
5.020000E+03	2.829821E-16	7.431707E-18
5.030000E+03	2.768687E-16	7.229179E-18
5.040000E+03	2.699458E-16	7.007551E-18
5.050000E+03	2.623553E-16	6.770851E-18
5.060000E+03	2.543146E-16	6.524962E-18
5.070000E+03	2.461484E-16	6.278363E-18
5.080000E+03	2.382391E-16	6.040809E-18
5.090000E+03	2.309755E-16	5.821979E-18
5.100000E+03	2.247439E-16	5.631261E-18
5.110000E+03	2.198954E-16	5.476938E-18
5.120000E+03	2.166935E-16	5.364908E-18
5.130000E+03	2.153374E-16	5.299342E-18
5.140000E+03	2.159356E-16	5.282079E-18
5.150000E+03	2.185090E-16	5.312761E-18
5.160000E+03	2.229844E-16	5.388758E-18
5.170000E+03	2.292089E-16	5.505571E-18
5.180000E+03	2.369377E-16	5.656602E-18
5.190000E+03	2.458413E-16	5.833393E-18
5.200000E+03	2.555376E-16	6.026451E-18
5.210000E+03	2.656044E-16	6.225560E-18
5.220000E+03	2.756132E-16	6.420608E-18
5.230000E+03	2.851801E-16	6.602767E-18
5.240000E+03	2.940078E-16	6.765420E-18
5.250000E+03	3.018726E-16	6.903796E-18
5.260000E+03	3.086688E-16	7.015937E-18
5.270000E+03	3.143947E-16	7.102289E-18
5.280000E+03	3.191128E-16	7.164730E-18
5.290000E+03	3.229490E-16	7.206520E-18
5.300000E+03	3.260472E-16	7.231244E-18
5.310000E+03	3.285498E-16	7.242368E-18
5.320000E+03	3.305986E-16	7.243271E-18
5.330000E+03	3.323298E-16	7.237123E-18
5.340000E+03	3.338515E-16	7.226417E-18
5.350000E+03	3.352712E-16	7.213577E-18
5.360000E+03	3.366686E-16	7.200374E-18
5.370000E+03	3.381157E-16	7.188372E-18
5.380000E+03	3.396754E-16	7.178911E-18
5.390000E+03	3.413876E-16	7.172816E-18
5.400000E+03	3.432617E-16	7.170258E-18
5.410000E+03	3.453210E-16	7.171693E-18
5.420000E+03	3.475656E-16	7.177094E-18
5.430000E+03	3.499797E-16	7.186106E-18
5.440000E+03	3.525809E-16	7.199065E-18
5.450000E+03	3.553854E-16	7.216278E-18
5.460000E+03	3.584098E-16	7.238055E-18
5.470000E+03	3.617080E-16	7.265449E-18
5.480000E+03	3.653092E-16	7.299002E-18
5.490000E+03	3.691748E-16	7.337901E-18
5.500000E+03	3.731823E-16	7.379697E-18
5.510000E+03	3.770527E-16	7.418912E-18
5.520000E+03	3.804349E-16	7.448768E-18
5.530000E+03	3.829851E-16	7.462758E-18
5.540000E+03	3.844372E-16	7.456005E-18
5.550000E+03	3.846573E-16	7.426262E-18
5.560000E+03	3.836438E-16	7.373853E-18
5.570000E+03	3.815472E-16	7.301990E-18
5.580000E+03	3.786375E-16	7.216095E-18
5.590000E+03	3.752640E-16	7.122959E-18
5.600000E+03	3.718062E-16	7.029805E-18
5.610000E+03	3.686331E-16	6.943544E-18
5.620000E+03	3.660344E-16	6.869496E-18
5.630000E+03	3.642324E-16	6.811645E-18
5.640000E+03	3.633422E-16	6.771938E-18
5.650000E+03	3.633450E-16	6.749813E-18
5.660000E+03	3.641303E-16	6.743029E-18
5.670000E+03	3.654889E-16	6.747558E-18
5.680000E+03	3.671139E-16	6.757634E-18
5.690000E+03	3.686727E-16	6.767085E-18
5.700000E+03	3.698207E-16	6.769590E-18
5.710000E+03	3.702553E-16	6.759666E-18
5.720000E+03	3.697672E-16	6.733573E-18
5.730000E+03	3.682779E-16	6.689981E-18
5.740000E+03	3.658930E-16	6.630897E-18
5.750000E+03	3.628945E-16	6.561498E-18
5.760000E+03	3.597362E-16	6.490002E-18
5.770000E+03	3.570107E-16	6.427052E-18
5.780000E+03	3.553938E-16	6.384706E-18
5.790000E+03	3.556102E-16	6.375792E-18
5.800000E+03	3.583626E-16	6.412667E-18
5.810000E+03	3.642894E-16	6.506449E-18
5.820000E+03	3.739433E-16	6.666664E-18
5.830000E+03	3.877279E-16	6.900135E-18
5.840000E+03	4.058357E-16	7.209902E-18
5.850000E+03	4.281846E-16	7.594134E-18
5.860000E+03	4.542894E-16	8.043887E-18
5.870000E+03	4.831947E-16	8.541976E-18
5.880000E+03	5.133961E-16	9.061646E-18
5.890000E+03	5.429212E-16	9.568062E-18
5.900000E+03	5.694832E-16	1.002107E-17
5.910000E+03	5.908394E-16	1.038150E-17
5.920000E+03	6.051471E-16	1.061745E-17
5.930000E+03	6.113431E-16	1.071083E-17
5.940000E+03	6.093347E-16	1.066061E-17
5.950000E+03	5.999355E-16	1.048158E-17
5.960000E+03	5.846768E-16	1.020098E-17
5.970000E+03	5.654308E-16	9.851820E-18
5.980000E+03	5.441091E-16	9.467603E-18
5.990000E+03	5.224034E-16	9.077850E-18
6.000000E+03	5.016621E-16	8.705956E-18
6.010000E+03	4.828319E-16	8.368245E-18
6.020000E+03	4.665323E-16	8.075291E-18
6.030000E+03	4.530864E-16	7.832494E-18
6.040000E+03	4.426526E-16	7.642386E-18
6.050000E+03	4.352346E-16	7.504827E-18
6.060000E+03	4.307658E-16	7.418469E-18
6.070000E+03	4.290981E-16	7.380573E-18
6.080000E+03	4.300629E-16	7.388064E-18
6.090000E+03	4.334194E-16	7.436650E-18
6.100000E+03	4.388797E-16	7.521253E-18
6.110000E+03	4.461074E-16	7.636001E-18
6.120000E+03	4.546976E-16	7.773875E-18
6.130000E+03	4.642495E-16	7.927968E-18
6.140000E+03	4.743494E-16	8.091187E-18
6.150000E+03	4.846510E-16	8.257627E-18
6.160000E+03	4.948800E-16	8.422634E-18
6.170000E+03	5.049230E-16	8.584317E-18
6.180000E+03	5.147755E-16	8.742642E-18
6.190000E+03	5.246040E-16	8.900484E-18
6.200000E+03	5.346120E-16	9.061331E-18
6.210000E+03	5.450649E-16	9.229715E-18
6.220000E+03	5.561860E-16	9.409437E-18
6.230000E+03	5.680683E-16	9.602095E-18
6.240000E+03	5.806564E-16	9.806780E-18
6.250000E+03	5.936656E-16	1.001872E-17
6.260000E+03	6.066426E-16	1.023033E-17
6.270000E+03	6.189223E-16	1.043048E-17
6.280000E+03	6.297316E-16	1.060625E-17
6.290000E+03	6.382266E-16	1.074355E-17
6.300000E+03	6.436184E-16	1.082925E-17
6.310000E+03	6.452711E-16	1.085281E-17
6.320000E+03	6.427560E-16	1.080713E-17
6.330000E+03	6.359469E-16	1.069021E-17
6.340000E+03	6.250480E-16	1.050554E-17
6.350000E+03	6.105623E-16	1.026162E-17
6.360000E+03	5.932465E-16	9.971141E-18
6.370000E+03	5.740574E-16	9.650152E-18
6.380000E+03	5.540624E-16	9.316528E-18
6.390000E+03	5.343329E-16	8.988218E-18
6.400000E+03	5.158735E-16	8.682065E-18
6.410000E+03	4.996007E-16	8.413469E-18
6.420000E+03	4.862890E-16	8.195491E-18
6.430000E+03	4.766193E-16	8.039683E-18
6.440000E+03	4.711437E-16	7.955509E-18
6.450000E+03	4.704177E-16	7.952581E-18
6.460000E+03	4.749755E-16	8.040259E-18
6.470000E+03	4.854209E-16	8.229210E-18
6.480000E+03	5.025025E-16	8.532713E-18
6.490000E+03	5.271424E-16	8.967187E-18
6.500000E+03	5.604672E-16	9.552776E-18
6.510000E+03	6.037570E-16	1.031255E-17
6.520000E+03	6.582318E-16	1.126891E-17
6.530000E+03	7.245563E-16	1.243502E-17
6.540000E+03	8.020586E-16	1.380135E-17
6.550000E+03	8.879932E-16	1.532261E-17
6.560000E+03	9.772861E-16	1.691281E-17
6.570000E+03	1.062916E-15	1.845119E-17
6.580000E+03	1.136815E-15	1.979721E-17
6.590000E+03	1.191421E-15	2.081719E-17
6.600000E+03	1.221050E-15	2.140837E-17
6.610000E+03	1.223110E-15	2.152074E-17
6.620000E+03	1.198409E-15	2.116328E-17
6.630000E+03	1.150786E-15	2.039861E-17
6.640000E+03	1.086078E-15	1.932561E-17
6.650000E+03	1.010915E-15	1.805881E-17
6.660000E+03	9.315011E-16	1.670679E-17
6.670000E+03	8.530515E-16	1.536207E-17
6.680000E+03	7.793353E-16	1.409259E-17
6.690000E+03	7.127024E-16	1.294169E-17
6.700000E+03	6.543338E-16	1.193219E-17
6.710000E+03	6.044959E-16	1.107060E-17
6.720000E+03	5.628412E-16	1.035232E-17
6.730000E+03	5.286851E-16	9.766446E-18
6.740000E+03	5.011554E-16	9.298470E-18
6.750000E+03	4.793189E-16	8.932493E-18
6.760000E+03	4.622801E-16	8.653057E-18
6.770000E+03	4.492045E-16	8.445588E-18
6.780000E+03	4.393142E-16	8.296319E-18
6.790000E+03	4.319424E-16	8.193351E-18
6.800000E+03	4.265000E-16	8.126051E-18
6.810000E+03	4.224826E-16	8.085212E-18
6.820000E+03	4.194654E-16	8.062998E-18
6.830000E+03	4.171023E-16	8.052945E-18
6.840000E+03	4.151216E-16	8.049923E-18
6.850000E+03	4.133242E-16	8.050119E-18
6.860000E+03	4.115863E-16	8.051133E-18
6.870000E+03	4.098257E-16	8.051338E-18
6.880000E+03	4.080448E-16	8.050746E-18
6.890000E+03	4.062699E-16	8.049856E-18
6.900000E+03	4.045708E-16	8.050031E-18
6.910000E+03	4.030408E-16	8.053134E-18
6.920000E+03	4.017929E-16	8.061454E-18
6.930000E+03	4.009279E-16	8.077072E-18
6.940000E+03	4.005465E-16	8.102098E-18
6.950000E+03	4.007394E-16	8.138477E-18
6.960000E+03	4.015594E-16	8.187402E-18
6.970000E+03	4.030353E-16	8.249595E-18
6.980000E+03	4.051684E-16	8.325220E-18
6.990000E+03	4.079082E-16	8.413365E-18
7.000000E+03	4.111816E-16	8.512640E-18
7.010000E+03	4.148679E-16	8.620632E-18
7.020000E+03	4.188320E-16	8.734596E-18
7.030000E+03	4.229031E-16	8.850995E-18
7.040000E+03	4.269066E-16	8.966158E-18
7.050000E+03	4.306848E-16	9.076724E-18
7.060000E+03	4.340569E-16	9.178796E-18
7.070000E+03	4.369246E-16	9.270175E-18
7.080000E+03	4.391977E-16	9.348819E-18
7.090000E+03	4.409116E-16	9.415341E-18
7.100000E+03	4.421553E-16	9.471517E-18
7.110000E+03	4.431401E-16	9.521779E-18
7.120000E+03	4.442006E-16	9.573276E-18
7.130000E+03	4.457379E-16	9.634682E-18
7.140000E+03	4.482509E-16	9.716892E-18
7.150000E+03	4.523028E-16	9.832311E-18
7.160000E+03	4.584728E-16	9.993831E-18
7.170000E+03	4.673280E-16	1.021419E-17
7.180000E+03	4.793713E-16	1.050486E-17
7.190000E+03	4.950194E-16	1.087547E-17
7.200000E+03	5.145184E-16	1.133201E-17
7.210000E+03	5.378738E-16	1.187513E-17
7.220000E+03	5.648060E-16	1.249919E-17
7.230000E+03	5.946502E-16	1.318990E-17
7.240000E+03	6.263169E-16	1.392336E-17
7.250000E+03	6.582732E-16	1.466558E-17
7.260000E+03	6.886463E-16	1.537467E-17
7.270000E+03	7.153370E-16	1.600333E-17
7.280000E+03	7.362640E-16	1.650430E-17
7.290000E+03	7.496266E-16	1.683630E-17
7.300000E+03	7.542153E-16	1.697109E-17
7.310000E+03	7.495749E-16	1.689730E-17
7.320000E+03	7.360087E-16	1.662067E-17
7.330000E+03	7.146469E-16	1.616577E-17
7.340000E+03	6.870964E-16	1.556819E-17
7.350000E+03	6.553155E-16	1.487179E-17
7.360000E+03	6.212505E-16	1.412047E-17
7.370000E+03	5.867194E-16	1.335552E-17
7.380000E+03	5.532083E-16	1.261087E-17
7.390000E+03	5.218623E-16	1.191290E-17
7.400000E+03	4.933992E-16	1.127833E-17
7.410000E+03	4.682180E-16	1.071667E-17
7.420000E+03	4.464153E-16	1.023051E-17
7.430000E+03	4.278090E-16	9.816033E-18
7.440000E+03	4.120801E-16	9.466258E-18
7.450000E+03	3.987326E-16	9.170061E-18
7.460000E+03	3.871744E-16	8.914048E-18
7.470000E+03	3.767865E-16	8.684131E-18
7.480000E+03	3.669190E-16	8.465441E-18
7.490000E+03	3.570027E-16	8.244907E-18
7.500000E+03	3.465789E-16	8.011961E-18
7.510000E+03	3.353569E-16	7.759875E-18
7.520000E+03	3.232805E-16	7.487335E-18
7.530000E+03	3.104993E-16	7.197785E-18
7.540000E+03	2.973660E-16	6.899404E-18
7.550000E+03	2.843936E-16	6.604114E-18
7.560000E+03	2.721609E-16	6.325405E-18
7.570000E+03	2.612443E-16	6.076759E-18
7.580000E+03	2.521600E-16	5.870294E-18
7.590000E+03	2.453297E-16	5.715960E-18
7.600000E+03	2.410689E-16	5.621260E-18
7.610000E+03	2.395834E-16	5.591162E-18
7.620000E+03	2.409948E-16	5.628680E-18
7.630000E+03	2.453055E-16	5.734055E-18
7.640000E+03	2.524242E-16	5.905331E-18
7.650000E+03	2.621247E-16	6.137404E-18
7.660000E+03	2.740265E-16	6.421533E-18
7.670000E+03	2.875736E-16	6.744845E-18
7.680000E+03	3.020324E-16	7.090262E-18
7.690000E+03	3.165219E-16	7.437181E-18
7.700000E+03	3.300733E-16	7.762875E-18
7.710000E+03	3.417613E-16	8.045555E-18
7.720000E+03	3.507741E-16	8.266017E-18
7.730000E+03	3.565789E-16	8.411554E-18
7.740000E+03	3.589311E-16	8.476203E-18
7.750000E+03	3.579378E-16	8.462273E-18
7.760000E+03	3.539803E-16	8.378546E-18
