#wls	flux	fluxerr
1.600000E+03	9.000020E-18	5.676595E-19
1.640000E+03	9.136211E-18	5.745408E-19
1.680000E+03	9.275923E-18	5.815472E-19
1.720000E+03	9.425534E-18	5.890725E-19
1.760000E+03	9.582453E-18	5.969462E-19
1.800000E+03	9.747130E-18	6.051884E-19
1.840000E+03	9.920042E-18	6.138206E-19
1.880000E+03	1.010175E-17	6.228681E-19
1.920000E+03	1.029284E-17	6.323574E-19
1.960000E+03	1.049706E-17	6.425077E-19
2.000000E+03	1.071207E-17	6.531623E-19
2.040000E+03	1.093868E-17	6.643586E-19
2.080000E+03	1.117776E-17	6.761355E-19
2.120000E+03	1.143347E-17	6.887296E-19
2.160000E+03	1.170375E-17	7.019987E-19
2.200000E+03	1.199304E-17	7.161907E-19
2.240000E+03	1.229947E-17	7.311723E-19
2.280000E+03	1.262782E-17	7.472068E-19
2.320000E+03	1.297649E-17	7.641729E-19
2.360000E+03	1.335065E-17	7.823496E-19
2.400000E+03	1.375248E-17	8.018321E-19
2.440000E+03	1.418085E-17	8.225220E-19
2.480000E+03	1.464535E-17	8.449376E-19
2.520000E+03	1.514186E-17	8.687991E-19
2.560000E+03	1.568084E-17	8.946608E-19
2.600000E+03	1.625862E-17	9.222604E-19
2.640000E+03	1.688664E-17	9.521916E-19
2.680000E+03	1.756571E-17	9.844330E-19
2.720000E+03	1.830471E-17	1.019412E-18
2.760000E+03	1.910112E-17	1.056906E-18
2.800000E+03	1.997315E-17	1.097837E-18
2.840000E+03	2.091479E-17	1.141773E-18
2.880000E+03	2.194584E-17	1.189685E-18
2.920000E+03	2.306499E-17	1.241376E-18
2.960000E+03	2.428431E-17	1.297362E-18
3.000000E+03	2.561642E-17	1.358164E-18
3.010000E+03	2.596615E-17	1.374048E-18
3.020000E+03	2.632225E-17	1.390184E-18
3.030000E+03	2.668482E-17	1.406575E-18
3.040000E+03	2.705903E-17	1.423491E-18
3.050000E+03	2.743993E-17	1.440666E-18
3.060000E+03	2.782761E-17	1.458104E-18
3.070000E+03	2.822210E-17	1.475803E-18
3.080000E+03	2.862346E-17	1.493763E-18
3.090000E+03	2.903709E-17	1.512264E-18
3.100000E+03	2.945777E-17	1.531028E-18
3.110000E+03	2.988552E-17	1.550055E-18
3.120000E+03	3.032036E-17	1.569342E-18
3.130000E+03	3.076230E-17	1.588887E-18
3.140000E+03	3.121692E-17	1.608975E-18
3.150000E+03	3.167872E-17	1.629318E-18
3.160000E+03	3.214765E-17	1.649910E-18
3.170000E+03	3.262365E-17	1.670746E-18
3.180000E+03	3.311252E-17	1.692118E-18
3.190000E+03	3.360842E-17	1.713724E-18
3.200000E+03	3.411128E-17	1.735557E-18
3.210000E+03	3.462097E-17	1.757608E-18
3.220000E+03	3.513737E-17	1.779868E-18
3.230000E+03	3.566644E-17	1.802633E-18
3.240000E+03	3.620201E-17	1.825590E-18
3.250000E+03	3.674389E-17	1.848724E-18
3.260000E+03	3.729188E-17	1.872024E-18
3.270000E+03	3.785211E-17	1.895792E-18
3.280000E+03	3.841167E-17	1.919380E-18
3.290000E+03	3.898312E-17	1.943412E-18
3.300000E+03	3.956634E-17	1.967878E-18
3.310000E+03	4.014803E-17	1.992112E-18
3.320000E+03	4.074104E-17	2.016751E-18
3.330000E+03	4.133851E-17	2.041452E-18
3.340000E+03	4.194014E-17	2.066195E-18
3.350000E+03	4.255246E-17	2.091302E-18
3.360000E+03	4.316147E-17	2.116080E-18
3.370000E+03	4.378067E-17	2.141190E-18
3.380000E+03	4.440286E-17	2.166276E-18
3.390000E+03	4.503485E-17	2.191668E-18
3.400000E+03	4.566935E-17	2.217008E-18
3.410000E+03	4.630607E-17	2.242279E-18
3.420000E+03	4.694475E-17	2.267468E-18
3.430000E+03	4.758513E-17	2.292560E-18
3.440000E+03	4.823441E-17	2.317900E-18
3.450000E+03	4.888508E-17	2.343124E-18
3.460000E+03	4.953697E-17	2.368222E-18
3.470000E+03	5.019748E-17	2.393546E-18
3.480000E+03	5.085132E-17	2.418365E-18
3.490000E+03	5.151362E-17	2.443398E-18
3.500000E+03	5.218438E-17	2.468641E-18
3.510000E+03	5.284796E-17	2.493352E-18
3.520000E+03	5.351979E-17	2.518259E-18
3.530000E+03	5.419186E-17	2.542982E-18
3.540000E+03	5.486391E-17	2.567509E-18
3.550000E+03	5.554365E-17	2.592198E-18
3.560000E+03	5.622273E-17	2.616657E-18
3.570000E+03	5.690063E-17	2.640861E-18
3.580000E+03	5.758498E-17	2.665163E-18
3.590000E+03	5.825874E-17	2.688774E-18
3.600000E+03	5.893765E-17	2.712420E-18
3.610000E+03	5.961270E-17	2.735687E-18
3.620000E+03	6.029148E-17	2.758922E-18
3.630000E+03	6.096472E-17	2.781699E-18
3.640000E+03	6.163145E-17	2.803977E-18
3.650000E+03	6.229058E-17	2.825708E-18
3.660000E+03	6.294956E-17	2.847231E-18
3.670000E+03	6.359866E-17	2.868107E-18
3.680000E+03	6.423662E-17	2.888281E-18
3.690000E+03	6.486219E-17	2.907703E-18
3.700000E+03	6.548282E-17	2.926709E-18
3.710000E+03	6.608864E-17	2.944862E-18
3.720000E+03	6.667847E-17	2.962113E-18
3.730000E+03	6.726007E-17	2.978814E-18
3.740000E+03	6.782368E-17	2.994535E-18
3.750000E+03	6.836848E-17	3.009247E-18
3.760000E+03	6.889377E-17	3.022927E-18
3.770000E+03	6.940794E-17	3.035950E-18
3.780000E+03	6.990180E-17	3.047919E-18
3.790000E+03	7.037521E-17	3.058836E-18
3.800000E+03	7.082824E-17	3.068713E-18
3.810000E+03	7.127012E-17	3.077956E-18
3.820000E+03	7.169245E-17	3.086207E-18
3.830000E+03	7.210489E-17	3.093890E-18
3.840000E+03	7.249049E-17	3.100284E-18
3.850000E+03	7.286830E-17	3.106212E-18
3.860000E+03	7.323075E-17	3.111355E-18
3.870000E+03	7.358832E-17	3.116163E-18
3.880000E+03	7.393381E-17	3.120335E-18
3.890000E+03	7.426910E-17	3.123955E-18
3.900000E+03	7.459624E-17	3.127113E-18
3.910000E+03	7.492623E-17	3.130272E-18
3.920000E+03	7.524350E-17	3.132784E-18
3.930000E+03	7.557693E-17	3.135851E-18
3.940000E+03	7.590212E-17	3.138458E-18
3.950000E+03	7.623895E-17	3.141428E-18
3.960000E+03	7.658060E-17	3.144475E-18
3.970000E+03	7.692891E-17	3.147674E-18
3.980000E+03	7.728547E-17	3.151086E-18
3.990000E+03	7.766024E-17	3.155113E-18
4.000000E+03	7.804512E-17	3.159418E-18
4.010000E+03	7.844901E-17	3.164357E-18
4.020000E+03	7.885369E-17	3.169190E-18
4.030000E+03	7.927528E-17	3.174560E-18
4.040000E+03	7.970257E-17	3.180016E-18
4.050000E+03	8.013218E-17	3.185419E-18
4.060000E+03	8.056857E-17	3.190945E-18
4.070000E+03	8.099781E-17	3.196043E-18
4.080000E+03	8.141433E-17	3.200496E-18
4.090000E+03	8.181247E-17	3.204090E-18
4.100000E+03	8.219598E-17	3.206978E-18
4.110000E+03	8.255250E-17	3.208687E-18
4.120000E+03	8.288069E-17	3.209179E-18
4.130000E+03	8.319116E-17	3.208875E-18
4.140000E+03	8.347237E-17	3.207340E-18
4.150000E+03	8.375220E-17	3.205656E-18
4.160000E+03	8.403740E-17	3.204080E-18
4.170000E+03	8.435694E-17	3.203711E-18
4.180000E+03	8.471841E-17	3.204822E-18
4.190000E+03	8.516785E-17	3.209129E-18
4.200000E+03	8.572842E-17	3.217463E-18
4.210000E+03	8.643380E-17	3.231034E-18
4.220000E+03	8.732692E-17	3.251377E-18
4.230000E+03	8.843286E-17	3.279337E-18
4.240000E+03	8.978260E-17	3.315964E-18
4.250000E+03	9.140289E-17	3.362134E-18
4.260000E+03	9.331366E-17	3.418455E-18
4.270000E+03	9.553504E-17	3.485534E-18
4.280000E+03	9.805687E-17	3.562861E-18
4.290000E+03	1.008634E-16	3.649735E-18
4.300000E+03	1.039214E-16	3.744828E-18
4.310000E+03	1.071879E-16	3.846488E-18
4.320000E+03	1.105688E-16	3.951261E-18
4.330000E+03	1.139897E-16	4.056446E-18
4.340000E+03	1.173263E-16	4.157630E-18
4.350000E+03	1.204513E-16	4.250352E-18
4.360000E+03	1.232432E-16	4.330445E-18
4.370000E+03	1.255542E-16	4.392890E-18
4.380000E+03	1.273043E-16	4.435113E-18
4.390000E+03	1.284179E-16	4.454751E-18
4.400000E+03	1.289120E-16	4.452672E-18
4.410000E+03	1.288836E-16	4.432497E-18
4.420000E+03	1.284814E-16	4.399551E-18
4.430000E+03	1.278430E-16	4.358691E-18
4.440000E+03	1.271603E-16	4.316543E-18
4.450000E+03	1.265875E-16	4.278333E-18
4.460000E+03	1.262779E-16	4.249182E-18
4.470000E+03	1.263681E-16	4.233543E-18
4.480000E+03	1.269853E-16	4.235483E-18
4.490000E+03	1.282020E-16	4.257184E-18
4.500000E+03	1.301113E-16	4.301463E-18
4.510000E+03	1.327370E-16	4.368796E-18
4.520000E+03	1.361196E-16	4.460199E-18
4.530000E+03	1.402351E-16	4.574568E-18
4.540000E+03	1.450369E-16	4.710072E-18
4.550000E+03	1.504421E-16	4.863738E-18
4.560000E+03	1.563321E-16	5.031492E-18
4.570000E+03	1.625687E-16	5.208709E-18
4.580000E+03	1.689486E-16	5.388751E-18
4.590000E+03	1.753084E-16	5.566377E-18
4.600000E+03	1.814306E-16	5.734729E-18
4.610000E+03	1.871733E-16	5.889445E-18
4.620000E+03	1.923853E-16	6.025955E-18
4.630000E+03	1.969767E-16	6.141692E-18
4.640000E+03	2.009113E-16	6.235797E-18
4.650000E+03	2.042071E-16	6.309108E-18
4.660000E+03	2.069306E-16	6.363948E-18
4.670000E+03	2.091874E-16	6.403789E-18
4.680000E+03	2.111093E-16	6.432845E-18
4.690000E+03	2.128421E-16	6.455683E-18
4.700000E+03	2.145344E-16	6.476868E-18
4.710000E+03	2.163280E-16	6.500679E-18
4.720000E+03	2.183679E-16	6.531410E-18
4.730000E+03	2.207298E-16	6.571212E-18
4.740000E+03	2.235177E-16	6.623030E-18
4.750000E+03	2.267950E-16	6.688556E-18
4.760000E+03	2.306172E-16	6.769218E-18
4.770000E+03	2.349620E-16	6.864140E-18
4.780000E+03	2.398324E-16	6.973191E-18
4.790000E+03	2.451866E-16	7.094947E-18
4.800000E+03	2.509735E-16	7.227739E-18
4.810000E+03	2.570592E-16	7.367550E-18
4.820000E+03	2.633380E-16	7.511249E-18
4.830000E+03	2.696618E-16	7.654552E-18
4.840000E+03	2.758632E-16	7.792719E-18
4.850000E+03	2.817629E-16	7.920760E-18
4.860000E+03	2.871786E-16	8.033707E-18
4.870000E+03	2.919379E-16	8.126962E-18
4.880000E+03	2.958903E-16	8.196624E-18
4.890000E+03	2.989190E-16	8.239812E-18
4.900000E+03	3.009502E-16	8.254879E-18
4.910000E+03	3.019357E-16	8.240920E-18
4.920000E+03	3.019369E-16	8.200026E-18
4.930000E+03	3.009690E-16	8.133015E-18
4.940000E+03	2.991610E-16	8.043744E-18
4.950000E+03	2.965743E-16	7.934202E-18
4.960000E+03	2.933391E-16	7.808165E-18
4.970000E+03	2.895603E-16	7.668674E-18
4.980000E+03	2.853326E-16	7.518442E-18
4.990000E+03	2.807374E-16	7.359784E-18
5.000000E+03	2.758440E-16	7.194653E-18
5.010000E+03	2.706944E-16	7.024257E-18
5.020000E+03	2.653827E-16	6.851126E-18
5.030000E+03	2.599340E-16	6.675968E-18
5.040000E+03	2.544383E-16	6.501132E-18
5.050000E+03	2.489839E-16	6.328881E-18
5.060000E+03	2.436795E-16	6.161949E-18
5.070000E+03	2.386392E-16	6.003140E-18
5.080000E+03	2.340429E-16	5.856849E-18
5.090000E+03	2.300192E-16	5.726107E-18
5.100000E+03	2.267473E-16	5.615120E-18
5.110000E+03	2.243831E-16	5.527440E-18
5.120000E+03	2.230644E-16	5.466086E-18
5.130000E+03	2.228846E-16	5.432937E-18
5.140000E+03	2.239405E-16	5.429897E-18
5.150000E+03	2.262211E-16	5.456234E-18
5.160000E+03	2.297000E-16	5.510853E-18
5.170000E+03	2.342574E-16	5.590444E-18
5.180000E+03	2.397523E-16	5.691266E-18
5.190000E+03	2.459250E-16	5.806841E-18
5.200000E+03	2.525144E-16	5.930802E-18
5.210000E+03	2.592211E-16	6.056015E-18
5.220000E+03	2.657331E-16	6.175201E-18
5.230000E+03	2.718205E-16	6.283143E-18
5.240000E+03	2.772454E-16	6.374546E-18
5.250000E+03	2.818756E-16	6.446652E-18
5.260000E+03	2.856917E-16	6.499325E-18
5.270000E+03	2.886729E-16	6.532409E-18
5.280000E+03	2.909029E-16	6.548108E-18
5.290000E+03	2.924791E-16	6.548883E-18
5.300000E+03	2.934923E-16	6.537005E-18
5.310000E+03	2.940652E-16	6.515403E-18
5.320000E+03	2.942899E-16	6.486273E-18
5.330000E+03	2.942415E-16	6.451394E-18
5.340000E+03	2.939615E-16	6.411775E-18
5.350000E+03	2.935140E-16	6.368895E-18
5.360000E+03	2.929186E-16	6.323246E-18
5.370000E+03	2.922250E-16	6.275950E-18
5.380000E+03	2.914625E-16	6.227676E-18
5.390000E+03	2.906605E-16	6.179083E-18
5.400000E+03	2.898345E-16	6.130516E-18
5.410000E+03	2.890394E-16	6.083148E-18
5.420000E+03	2.883214E-16	6.037943E-18
5.430000E+03	2.877212E-16	5.995738E-18
5.440000E+03	2.873253E-16	5.958296E-18
5.450000E+03	2.872127E-16	5.927198E-18
5.460000E+03	2.874478E-16	5.903689E-18
5.470000E+03	2.881168E-16	5.889444E-18
5.480000E+03	2.892438E-16	5.884840E-18
5.490000E+03	2.908392E-16	5.889976E-18
5.500000E+03	2.928343E-16	5.903355E-18
5.510000E+03	2.950910E-16	5.922112E-18
5.520000E+03	2.974002E-16	5.942028E-18
5.530000E+03	2.995409E-16	5.958712E-18
5.540000E+03	3.013301E-16	5.968611E-18
5.550000E+03	3.025384E-16	5.967308E-18
5.560000E+03	3.031053E-16	5.953776E-18
5.570000E+03	3.029690E-16	5.926957E-18
5.580000E+03	3.022039E-16	5.888451E-18
5.590000E+03	3.009217E-16	5.840557E-18
5.600000E+03	2.993141E-16	5.787081E-18
5.610000E+03	2.975556E-16	5.731431E-18
5.620000E+03	2.958398E-16	5.677334E-18
5.630000E+03	2.943063E-16	5.627431E-18
5.640000E+03	2.930253E-16	5.582994E-18
5.650000E+03	2.920396E-16	5.544770E-18
5.660000E+03	2.913020E-16	5.511788E-18
5.670000E+03	2.907483E-16	5.482771E-18
5.680000E+03	2.902621E-16	5.455480E-18
5.690000E+03	2.896931E-16	5.427071E-18
5.700000E+03	2.889088E-16	5.395073E-18
5.710000E+03	2.878309E-16	5.358049E-18
5.720000E+03	2.863471E-16	5.313948E-18
5.730000E+03	2.845018E-16	5.263647E-18
5.740000E+03	2.823402E-16	5.208022E-18
5.750000E+03	2.800256E-16	5.150109E-18
5.760000E+03	2.778238E-16	5.094792E-18
5.770000E+03	2.760504E-16	5.047802E-18
5.780000E+03	2.751154E-16	5.016534E-18
5.790000E+03	2.754576E-16	5.008826E-18
5.800000E+03	2.775235E-16	5.032570E-18
5.810000E+03	2.817860E-16	5.096055E-18
5.820000E+03	2.886586E-16	5.206420E-18
5.830000E+03	2.985211E-16	5.370119E-18
5.840000E+03	3.116114E-16	5.591013E-18
5.850000E+03	3.280234E-16	5.870343E-18
5.860000E+03	3.475609E-16	6.204170E-18
5.870000E+03	3.697183E-16	6.583094E-18
5.880000E+03	3.935435E-16	6.989880E-18
5.890000E+03	4.177045E-16	7.400740E-18
5.900000E+03	4.405210E-16	7.785962E-18
5.910000E+03	4.601637E-16	8.113493E-18
5.920000E+03	4.749961E-16	8.354978E-18
5.930000E+03	4.838808E-16	8.491079E-18
5.940000E+03	4.863140E-16	8.513728E-18
5.950000E+03	4.825762E-16	8.428615E-18
5.960000E+03	4.735499E-16	8.251867E-18
5.970000E+03	4.605033E-16	8.006155E-18
5.980000E+03	4.448888E-16	7.717130E-18
5.990000E+03	4.281221E-16	7.409578E-18
6.000000E+03	4.113915E-16	7.104129E-18
6.010000E+03	3.955969E-16	6.816266E-18
6.020000E+03	3.814083E-16	6.557378E-18
6.030000E+03	3.692171E-16	6.333982E-18
6.040000E+03	3.592483E-16	6.149692E-18
6.050000E+03	3.516065E-16	6.006036E-18
6.060000E+03	3.462791E-16	5.902538E-18
6.070000E+03	3.431662E-16	5.837247E-18
6.080000E+03	3.421348E-16	5.807664E-18
6.090000E+03	3.430273E-16	5.810905E-18
6.100000E+03	3.456349E-16	5.843248E-18
6.110000E+03	3.497033E-16	5.900235E-18
6.120000E+03	3.549952E-16	5.977734E-18
6.130000E+03	3.612321E-16	6.070961E-18
6.140000E+03	3.681664E-16	6.175689E-18
6.150000E+03	3.756035E-16	6.288614E-18
6.160000E+03	3.833866E-16	6.407091E-18
6.170000E+03	3.914120E-16	6.529386E-18
6.180000E+03	3.996959E-16	6.655775E-18
6.190000E+03	4.082915E-16	6.787148E-18
6.200000E+03	4.173276E-16	6.925650E-18
6.210000E+03	4.269767E-16	7.074139E-18
6.220000E+03	4.373689E-16	7.234756E-18
6.230000E+03	4.485453E-16	7.408166E-18
6.240000E+03	4.604881E-16	7.594063E-18
6.250000E+03	4.730040E-16	7.789262E-18
6.260000E+03	4.858056E-16	7.989052E-18
6.270000E+03	4.984249E-16	8.185793E-18
6.280000E+03	5.103097E-16	8.370500E-18
6.290000E+03	5.208679E-16	8.533586E-18
6.300000E+03	5.294694E-16	8.664878E-18
6.310000E+03	5.355029E-16	8.754550E-18
6.320000E+03	5.385183E-16	8.795434E-18
6.330000E+03	5.381742E-16	8.782141E-18
6.340000E+03	5.343901E-16	8.713528E-18
6.350000E+03	5.272651E-16	8.591362E-18
6.360000E+03	5.171929E-16	8.422161E-18
6.370000E+03	5.047358E-16	8.215152E-18
6.380000E+03	4.906835E-16	7.983208E-18
6.390000E+03	4.758826E-16	7.740091E-18
6.400000E+03	4.612629E-16	7.500883E-18
6.410000E+03	4.476776E-16	7.279407E-18
6.420000E+03	4.359563E-16	7.089098E-18
6.430000E+03	4.268168E-16	6.941595E-18
6.440000E+03	4.208543E-16	6.846572E-18
6.450000E+03	4.187145E-16	6.814572E-18
6.460000E+03	4.209175E-16	6.854153E-18
6.470000E+03	4.280446E-16	6.974944E-18
6.480000E+03	4.407525E-16	7.187890E-18
6.490000E+03	4.597591E-16	7.505046E-18
6.500000E+03	4.858503E-16	7.939712E-18
6.510000E+03	5.199417E-16	8.507467E-18
6.520000E+03	5.629502E-16	9.224107E-18
6.530000E+03	6.158258E-16	1.010618E-17
6.540000E+03	6.782673E-16	1.114987E-17
6.550000E+03	7.476949E-16	1.231390E-17
6.560000E+03	8.200319E-16	1.353209E-17
6.570000E+03	8.900709E-16	1.471904E-17
6.580000E+03	9.518985E-16	1.577691E-17
6.590000E+03	9.997546E-16	1.660942E-17
6.600000E+03	1.029153E-15	1.714044E-17
6.610000E+03	1.037478E-15	1.732409E-17
6.620000E+03	1.024515E-15	1.715402E-17
6.630000E+03	9.923920E-16	1.666290E-17
6.640000E+03	9.447288E-16	1.590874E-17
6.650000E+03	8.861843E-16	1.496765E-17
6.660000E+03	8.216095E-16	1.391979E-17
6.670000E+03	7.553275E-16	1.283735E-17
6.680000E+03	6.907669E-16	1.177814E-17
6.690000E+03	6.304288E-16	1.078491E-17
6.700000E+03	5.757863E-16	9.883374E-18
6.710000E+03	5.275767E-16	9.086971E-18
6.720000E+03	4.859088E-16	8.398502E-18
6.730000E+03	4.504726E-16	7.813593E-18
6.740000E+03	4.207509E-16	7.324246E-18
6.750000E+03	3.961506E-16	6.921044E-18
6.760000E+03	3.759600E-16	6.592385E-18
6.770000E+03	3.595257E-16	6.327538E-18
6.780000E+03	3.462509E-16	6.116631E-18
6.790000E+03	3.355720E-16	5.950240E-18
6.800000E+03	3.269683E-16	5.819572E-18
6.810000E+03	3.200178E-16	5.717468E-18
6.820000E+03	3.143522E-16	5.637628E-18
6.830000E+03	3.096617E-16	5.574713E-18
6.840000E+03	3.057455E-16	5.525265E-18
6.850000E+03	3.024441E-16	5.486537E-18
6.860000E+03	2.996974E-16	5.457536E-18
6.870000E+03	2.974835E-16	5.437965E-18
6.880000E+03	2.958060E-16	5.427982E-18
6.890000E+03	2.947206E-16	5.428712E-18
6.900000E+03	2.942759E-16	5.441163E-18
6.910000E+03	2.945006E-16	5.465988E-18
6.920000E+03	2.954403E-16	5.504165E-18
6.930000E+03	2.971094E-16	5.556103E-18
6.940000E+03	2.994927E-16	5.621655E-18
6.950000E+03	3.025902E-16	5.700962E-18
6.960000E+03	3.063575E-16	5.793318E-18
6.970000E+03	3.107650E-16	5.898289E-18
6.980000E+03	3.157492E-16	6.014788E-18
6.990000E+03	3.212259E-16	6.141309E-18
7.000000E+03	3.270713E-16	6.275565E-18
7.010000E+03	3.331542E-16	6.415086E-18
7.020000E+03	3.393582E-16	6.557662E-18
7.030000E+03	3.454837E-16	6.699426E-18
7.040000E+03	3.513755E-16	6.837330E-18
7.050000E+03	3.568439E-16	6.967602E-18
7.060000E+03	3.617649E-16	7.087716E-18
7.070000E+03	3.659462E-16	7.193765E-18
7.080000E+03	3.693444E-16	7.284735E-18
7.090000E+03	3.718772E-16	7.358830E-18
7.100000E+03	3.735903E-16	7.416778E-18
7.110000E+03	3.745990E-16	7.460709E-18
7.120000E+03	3.750993E-16	7.494394E-18
7.130000E+03	3.754274E-16	7.524473E-18
7.140000E+03	3.759909E-16	7.559101E-18
7.150000E+03	3.772469E-16	7.607532E-18
7.160000E+03	3.797300E-16	7.680704E-18
7.170000E+03	3.839604E-16	7.789386E-18
7.180000E+03	3.904265E-16	7.943818E-18
7.190000E+03	3.995294E-16	8.152570E-18
7.200000E+03	4.116101E-16	8.423066E-18
7.210000E+03	4.268510E-16	8.759544E-18
7.220000E+03	4.452316E-16	9.162097E-18
7.230000E+03	4.665761E-16	9.627600E-18
7.240000E+03	4.903228E-16	1.014489E-17
7.250000E+03	5.157595E-16	1.069954E-17
7.260000E+03	5.417738E-16	1.126865E-17
7.270000E+03	5.669818E-16	1.182341E-17
7.280000E+03	5.898463E-16	1.233150E-17
7.290000E+03	6.088505E-16	1.276071E-17
7.300000E+03	6.224796E-16	1.307858E-17
7.310000E+03	6.296531E-16	1.326151E-17
7.320000E+03	6.295849E-16	1.329189E-17
7.330000E+03	6.222437E-16	1.316797E-17
7.340000E+03	6.080032E-16	1.289660E-17
7.350000E+03	5.878437E-16	1.249765E-17
7.360000E+03	5.630855E-16	1.199843E-17
7.370000E+03	5.352482E-16	1.143076E-17
7.380000E+03	5.058409E-16	1.082657E-17
7.390000E+03	4.762881E-16	1.021624E-17
7.400000E+03	4.477306E-16	9.624331E-18
7.410000E+03	4.209955E-16	9.068843E-18
7.420000E+03	3.965877E-16	8.560977E-18
7.430000E+03	3.747022E-16	8.105305E-18
7.440000E+03	3.553468E-16	7.702373E-18
7.450000E+03	3.383440E-16	7.348691E-18
7.460000E+03	3.233973E-16	7.038148E-18
7.470000E+03	3.102150E-16	6.764675E-18
7.480000E+03	2.984288E-16	6.520475E-18
7.490000E+03	2.877493E-16	6.299412E-18
7.500000E+03	2.779075E-16	6.095743E-18
7.510000E+03	2.687523E-16	5.906272E-18
7.520000E+03	2.601541E-16	5.728245E-18
7.530000E+03	2.521113E-16	5.561711E-18
7.540000E+03	2.446834E-16	5.408066E-18
7.550000E+03	2.379912E-16	5.270072E-18
7.560000E+03	2.321965E-16	5.151423E-18
7.570000E+03	2.274679E-16	5.055987E-18
7.580000E+03	2.240010E-16	4.988263E-18
7.590000E+03	2.219645E-16	4.952177E-18
7.600000E+03	2.215019E-16	4.951128E-18
7.610000E+03	2.227120E-16	4.987536E-18
7.620000E+03	2.256911E-16	5.063778E-18
7.630000E+03	2.304357E-16	5.180018E-18
7.640000E+03	2.369159E-16	5.335815E-18
7.650000E+03	2.450053E-16	5.528560E-18
7.660000E+03	2.544700E-16	5.753191E-18
7.670000E+03	2.649333E-16	6.001379E-18
7.680000E+03	2.759100E-16	6.262268E-18
7.690000E+03	2.867906E-16	6.522097E-18
7.700000E+03	2.968290E-16	6.763881E-18
7.710000E+03	3.052895E-16	6.970741E-18
7.720000E+03	3.115448E-16	7.128138E-18
7.730000E+03	3.150827E-16	7.224049E-18
7.740000E+03	3.156296E-16	7.251825E-18
7.750000E+03	3.132218E-16	7.211885E-18
7.760000E+03	3.081352E-16	7.110171E-18
