#wls	flux	fluxerr
1.600000E+03	7.008174E-18	2.527825E-19
1.640000E+03	7.092435E-18	2.551236E-19
1.680000E+03	7.179309E-18	2.575235E-19
1.720000E+03	7.271720E-18	2.600848E-19
1.760000E+03	7.369954E-18	2.628149E-19
1.800000E+03	7.471637E-18	2.656263E-19
1.840000E+03	7.579790E-18	2.686238E-19
1.880000E+03	7.692075E-18	2.717211E-19
1.920000E+03	7.811604E-18	2.750251E-19
1.960000E+03	7.938832E-18	2.785477E-19
2.000000E+03	8.071490E-18	2.822051E-19
2.040000E+03	8.212859E-18	2.861080E-19
2.080000E+03	8.363539E-18	2.902720E-19
2.120000E+03	8.521351E-18	2.946163E-19
2.160000E+03	8.689803E-18	2.992569E-19
2.200000E+03	8.869678E-18	3.042140E-19
2.240000E+03	9.058924E-18	3.094105E-19
2.280000E+03	9.264282E-18	3.150691E-19
2.320000E+03	9.480926E-18	3.210166E-19
2.360000E+03	9.709881E-18	3.272799E-19
2.400000E+03	9.958364E-18	3.340921E-19
2.440000E+03	1.022166E-17	3.412834E-19
2.480000E+03	1.050740E-17	3.490968E-19
2.520000E+03	1.081091E-17	3.573630E-19
2.560000E+03	1.113706E-17	3.662285E-19
2.600000E+03	1.148772E-17	3.757390E-19
2.640000E+03	1.186493E-17	3.859428E-19
2.680000E+03	1.226744E-17	3.967803E-19
2.720000E+03	1.270447E-17	4.085280E-19
2.760000E+03	1.317513E-17	4.211325E-19
2.800000E+03	1.367841E-17	4.345355E-19
2.840000E+03	1.422447E-17	4.490315E-19
2.880000E+03	1.480873E-17	4.644439E-19
2.920000E+03	1.544202E-17	4.810779E-19
2.960000E+03	1.612374E-17	4.988755E-19
3.000000E+03	1.685285E-17	5.177644E-19
3.010000E+03	1.704828E-17	5.228287E-19
3.020000E+03	1.724264E-17	5.278338E-19
3.030000E+03	1.744026E-17	5.329119E-19
3.040000E+03	1.764118E-17	5.380637E-19
3.050000E+03	1.784992E-17	5.434263E-19
3.060000E+03	1.805762E-17	5.487289E-19
3.070000E+03	1.827332E-17	5.542453E-19
3.080000E+03	1.848800E-17	5.597011E-19
3.090000E+03	1.871085E-17	5.653740E-19
3.100000E+03	1.893270E-17	5.709861E-19
3.110000E+03	1.916290E-17	5.768183E-19
3.120000E+03	1.939687E-17	5.827314E-19
3.130000E+03	1.963465E-17	5.887262E-19
3.140000E+03	1.987631E-17	5.948036E-19
3.150000E+03	2.012189E-17	6.009640E-19
3.160000E+03	2.037146E-17	6.072083E-19
3.170000E+03	2.062506E-17	6.135373E-19
3.180000E+03	2.088775E-17	6.200996E-19
3.190000E+03	2.114964E-17	6.266009E-19
3.200000E+03	2.141573E-17	6.331887E-19
3.210000E+03	2.169124E-17	6.400159E-19
3.220000E+03	2.196598E-17	6.467808E-19
3.230000E+03	2.225036E-17	6.537889E-19
3.240000E+03	2.253931E-17	6.608898E-19
3.250000E+03	2.282755E-17	6.679276E-19
3.260000E+03	2.312580E-17	6.752152E-19
3.270000E+03	2.342883E-17	6.825983E-19
3.280000E+03	2.373673E-17	6.900781E-19
3.290000E+03	2.404959E-17	6.976564E-19
3.300000E+03	2.436747E-17	7.053337E-19
3.310000E+03	2.469050E-17	7.131119E-19
3.320000E+03	2.502446E-17	7.211570E-19
3.330000E+03	2.535809E-17	7.291424E-19
3.340000E+03	2.569713E-17	7.372329E-19
3.350000E+03	2.604759E-17	7.455990E-19
3.360000E+03	2.639787E-17	7.539068E-19
3.370000E+03	2.675988E-17	7.624955E-19
3.380000E+03	2.712788E-17	7.711994E-19
3.390000E+03	2.749585E-17	7.798463E-19
3.400000E+03	2.787610E-17	7.887838E-19
3.410000E+03	2.826269E-17	7.978418E-19
3.420000E+03	2.865572E-17	8.070216E-19
3.430000E+03	2.905533E-17	8.163253E-19
3.440000E+03	2.946163E-17	8.257543E-19
3.450000E+03	2.987474E-17	8.353103E-19
3.460000E+03	3.029477E-17	8.449949E-19
3.470000E+03	3.072846E-17	8.549936E-19
3.480000E+03	3.116269E-17	8.649392E-19
3.490000E+03	3.161095E-17	8.752044E-19
3.500000E+03	3.205977E-17	8.854144E-19
3.510000E+03	3.252292E-17	8.959476E-19
3.520000E+03	3.298664E-17	9.064230E-19
3.530000E+03	3.346496E-17	9.172242E-19
3.540000E+03	3.395097E-17	9.281594E-19
3.550000E+03	3.444474E-17	9.392279E-19
3.560000E+03	3.494630E-17	9.504286E-19
3.570000E+03	3.545568E-17	9.617604E-19
3.580000E+03	3.597292E-17	9.732222E-19
3.590000E+03	3.649806E-17	9.848134E-19
3.600000E+03	3.703117E-17	9.965332E-19
3.610000E+03	3.757240E-17	1.008383E-18
3.620000E+03	3.812975E-17	1.020577E-18
3.630000E+03	3.868787E-17	1.032699E-18
3.640000E+03	3.926273E-17	1.045174E-18
3.650000E+03	3.983864E-17	1.057583E-18
3.660000E+03	4.043194E-17	1.070356E-18
3.670000E+03	4.103488E-17	1.083285E-18
3.680000E+03	4.163934E-17	1.096154E-18
3.690000E+03	4.226224E-17	1.109406E-18
3.700000E+03	4.289554E-17	1.122825E-18
3.710000E+03	4.353951E-17	1.136416E-18
3.720000E+03	4.419440E-17	1.150184E-18
3.730000E+03	4.486048E-17	1.164131E-18
3.740000E+03	4.553799E-17	1.178261E-18
3.750000E+03	4.623625E-17	1.192811E-18
3.760000E+03	4.693751E-17	1.207320E-18
3.770000E+03	4.765096E-17	1.222022E-18
3.780000E+03	4.838624E-17	1.237160E-18
3.790000E+03	4.912491E-17	1.252260E-18
3.800000E+03	4.988612E-17	1.267804E-18
3.810000E+03	5.065099E-17	1.283311E-18
3.820000E+03	5.143904E-17	1.299272E-18
3.830000E+03	5.224087E-17	1.315444E-18
3.840000E+03	5.305668E-17	1.331827E-18
3.850000E+03	5.388662E-17	1.348423E-18
3.860000E+03	5.472049E-17	1.364973E-18
3.870000E+03	5.557886E-17	1.381987E-18
3.880000E+03	5.645158E-17	1.399207E-18
3.890000E+03	5.734928E-17	1.416892E-18
3.900000E+03	5.825062E-17	1.434510E-18
3.910000E+03	5.916594E-17	1.452313E-18
3.920000E+03	6.009493E-17	1.470289E-18
3.930000E+03	6.104832E-17	1.488697E-18
3.940000E+03	6.200320E-17	1.506973E-18
3.950000E+03	6.296987E-17	1.525366E-18
3.960000E+03	6.395890E-17	1.544128E-18
3.970000E+03	6.495765E-17	1.562948E-18
3.980000E+03	6.595262E-17	1.581500E-18
3.990000E+03	6.696556E-17	1.600305E-18
4.000000E+03	6.798232E-17	1.619020E-18
4.010000E+03	6.898783E-17	1.637287E-18
4.020000E+03	7.000336E-17	1.655610E-18
4.030000E+03	7.101301E-17	1.673612E-18
4.040000E+03	7.201260E-17	1.691196E-18
4.050000E+03	7.299762E-17	1.708259E-18
4.060000E+03	7.396324E-17	1.724691E-18
4.070000E+03	7.490464E-17	1.740385E-18
4.080000E+03	7.581719E-17	1.755239E-18
4.090000E+03	7.671022E-17	1.769475E-18
4.100000E+03	7.755425E-17	1.782422E-18
4.110000E+03	7.836111E-17	1.794361E-18
4.120000E+03	7.913151E-17	1.805318E-18
4.130000E+03	7.988239E-17	1.815688E-18
4.140000E+03	8.059277E-17	1.825000E-18
4.150000E+03	8.129960E-17	1.834099E-18
4.160000E+03	8.198828E-17	1.842656E-18
4.170000E+03	8.270279E-17	1.851661E-18
4.180000E+03	8.343454E-17	1.860916E-18
4.190000E+03	8.423335E-17	1.871524E-18
4.200000E+03	8.510890E-17	1.883682E-18
4.210000E+03	8.607146E-17	1.897596E-18
4.220000E+03	8.717413E-17	1.914410E-18
4.230000E+03	8.842603E-17	1.934287E-18
4.240000E+03	8.984798E-17	1.957643E-18
4.250000E+03	9.145688E-17	1.984800E-18
4.260000E+03	9.324891E-17	2.015627E-18
4.270000E+03	9.525847E-17	2.050818E-18
4.280000E+03	9.746631E-17	2.089902E-18
4.290000E+03	9.985742E-17	2.132507E-18
4.300000E+03	1.024056E-16	2.178029E-18
4.310000E+03	1.050717E-16	2.225596E-18
4.320000E+03	1.078039E-16	2.274087E-18
4.330000E+03	1.105565E-16	2.322522E-18
4.340000E+03	1.132210E-16	2.368627E-18
4.350000E+03	1.157359E-16	2.411145E-18
4.360000E+03	1.180224E-16	2.448478E-18
4.370000E+03	1.200094E-16	2.479219E-18
4.380000E+03	1.216417E-16	2.502311E-18
4.390000E+03	1.229069E-16	2.517594E-18
4.400000E+03	1.237764E-16	2.524582E-18
4.410000E+03	1.243205E-16	2.524807E-18
4.420000E+03	1.246349E-16	2.520290E-18
4.430000E+03	1.247751E-16	2.512209E-18
4.440000E+03	1.248635E-16	2.503067E-18
4.450000E+03	1.250244E-16	2.495358E-18
4.460000E+03	1.253199E-16	2.490296E-18
4.470000E+03	1.258597E-16	2.490021E-18
4.480000E+03	1.267408E-16	2.496376E-18
4.490000E+03	1.279873E-16	2.509748E-18
4.500000E+03	1.296634E-16	2.531295E-18
4.510000E+03	1.318155E-16	2.561809E-18
4.520000E+03	1.344109E-16	2.600532E-18
4.530000E+03	1.374756E-16	2.647850E-18
4.540000E+03	1.409337E-16	2.702191E-18
4.550000E+03	1.447707E-16	2.763176E-18
4.560000E+03	1.488689E-16	2.828468E-18
4.570000E+03	1.531805E-16	2.897100E-18
4.580000E+03	1.575578E-16	2.966236E-18
4.590000E+03	1.619150E-16	3.034251E-18
4.600000E+03	1.661707E-16	3.099635E-18
4.610000E+03	1.701812E-16	3.159746E-18
4.620000E+03	1.739171E-16	3.214107E-18
4.630000E+03	1.772730E-16	3.260850E-18
4.640000E+03	1.802707E-16	3.300473E-18
4.650000E+03	1.828569E-16	3.332101E-18
4.660000E+03	1.850811E-16	3.356737E-18
4.670000E+03	1.870159E-16	3.375786E-18
4.680000E+03	1.886703E-16	3.389484E-18
4.690000E+03	1.901435E-16	3.399680E-18
4.700000E+03	1.915402E-16	3.408283E-18
4.710000E+03	1.928829E-16	3.415712E-18
4.720000E+03	1.942697E-16	3.423710E-18
4.730000E+03	1.957905E-16	3.433846E-18
4.740000E+03	1.974410E-16	3.446008E-18
4.750000E+03	1.992857E-16	3.461288E-18
4.760000E+03	2.013751E-16	3.480510E-18
4.770000E+03	2.036607E-16	3.502779E-18
4.780000E+03	2.061625E-16	3.528388E-18
4.790000E+03	2.088576E-16	3.556895E-18
4.800000E+03	2.117087E-16	3.587622E-18
4.810000E+03	2.146653E-16	3.619680E-18
4.820000E+03	2.176656E-16	3.652007E-18
4.830000E+03	2.206384E-16	3.683409E-18
4.840000E+03	2.235070E-16	3.712618E-18
4.850000E+03	2.261919E-16	3.738353E-18
4.860000E+03	2.286160E-16	3.759391E-18
4.870000E+03	2.307085E-16	3.774646E-18
4.880000E+03	2.324100E-16	3.783234E-18
4.890000E+03	2.336756E-16	3.784528E-18
4.900000E+03	2.344776E-16	3.778194E-18
4.910000E+03	2.347755E-16	3.763698E-18
4.920000E+03	2.346406E-16	3.742306E-18
4.930000E+03	2.340654E-16	3.714005E-18
4.940000E+03	2.330552E-16	3.678992E-18
4.950000E+03	2.317167E-16	3.639048E-18
4.960000E+03	2.300374E-16	3.594060E-18
4.970000E+03	2.281282E-16	3.545837E-18
4.980000E+03	2.259775E-16	3.494254E-18
4.990000E+03	2.236905E-16	3.440991E-18
5.000000E+03	2.212513E-16	3.385835E-18
5.010000E+03	2.187298E-16	3.329891E-18
5.020000E+03	2.161667E-16	3.273791E-18
5.030000E+03	2.136037E-16	3.218178E-18
5.040000E+03	2.110875E-16	3.163748E-18
5.050000E+03	2.086703E-16	3.111272E-18
5.060000E+03	2.064117E-16	3.061609E-18
5.070000E+03	2.043786E-16	3.015712E-18
5.080000E+03	2.026443E-16	2.974603E-18
5.090000E+03	2.012851E-16	2.939332E-18
5.100000E+03	2.003776E-16	2.910927E-18
5.110000E+03	1.999682E-16	2.889955E-18
5.120000E+03	2.001690E-16	2.877924E-18
5.130000E+03	2.009759E-16	2.874639E-18
5.140000E+03	2.024652E-16	2.881059E-18
5.150000E+03	2.045872E-16	2.896336E-18
5.160000E+03	2.073407E-16	2.920321E-18
5.170000E+03	2.106694E-16	2.952101E-18
5.180000E+03	2.144892E-16	2.990388E-18
5.190000E+03	2.186914E-16	3.033582E-18
5.200000E+03	2.231490E-16	3.079865E-18
5.210000E+03	2.277263E-16	3.127334E-18
5.220000E+03	2.322885E-16	3.174137E-18
5.230000E+03	2.367125E-16	3.218621E-18
5.240000E+03	2.408665E-16	3.259044E-18
5.250000E+03	2.447330E-16	3.295245E-18
5.260000E+03	2.482062E-16	3.325875E-18
5.270000E+03	2.513277E-16	3.351585E-18
5.280000E+03	2.540417E-16	3.371712E-18
5.290000E+03	2.564011E-16	3.387052E-18
5.300000E+03	2.584391E-16	3.398118E-18
5.310000E+03	2.601934E-16	3.405479E-18
5.320000E+03	2.617017E-16	3.409686E-18
5.330000E+03	2.629977E-16	3.411236E-18
5.340000E+03	2.641103E-16	3.410550E-18
5.350000E+03	2.650318E-16	3.407573E-18
5.360000E+03	2.658454E-16	3.403411E-18
5.370000E+03	2.665042E-16	3.397498E-18
5.380000E+03	2.670562E-16	3.390476E-18
5.390000E+03	2.675493E-16	3.382979E-18
5.400000E+03	2.679390E-16	3.374467E-18
5.410000E+03	2.682800E-16	3.365649E-18
5.420000E+03	2.685680E-16	3.356488E-18
5.430000E+03	2.688985E-16	3.348194E-18
5.440000E+03	2.692748E-16	3.340809E-18
5.450000E+03	2.697306E-16	3.334752E-18
5.460000E+03	2.702598E-16	3.329951E-18
5.470000E+03	2.709020E-16	3.326891E-18
5.480000E+03	2.716680E-16	3.325702E-18
5.490000E+03	2.724339E-16	3.324871E-18
5.500000E+03	2.731560E-16	3.323874E-18
5.510000E+03	2.738037E-16	3.322360E-18
5.520000E+03	2.742933E-16	3.319332E-18
5.530000E+03	2.746132E-16	3.314677E-18
5.540000E+03	2.746510E-16	3.307064E-18
5.550000E+03	2.743052E-16	3.295309E-18
5.560000E+03	2.735628E-16	3.279279E-18
5.570000E+03	2.724108E-16	3.258842E-18
5.580000E+03	2.709012E-16	3.234634E-18
5.590000E+03	2.689903E-16	3.206143E-18
5.600000E+03	2.668414E-16	3.175322E-18
5.610000E+03	2.645020E-16	3.142730E-18
5.620000E+03	2.620480E-16	3.109261E-18
5.630000E+03	2.595130E-16	3.075298E-18
5.640000E+03	2.569709E-16	3.041701E-18
5.650000E+03	2.544712E-16	3.009036E-18
5.660000E+03	2.519536E-16	2.976572E-18
5.670000E+03	2.494258E-16	2.944380E-18
5.680000E+03	2.468254E-16	2.911708E-18
5.690000E+03	2.441688E-16	2.878732E-18
5.700000E+03	2.413924E-16	2.844685E-18
5.710000E+03	2.384473E-16	2.808977E-18
5.720000E+03	2.353612E-16	2.771916E-18
5.730000E+03	2.321625E-16	2.733818E-18
5.740000E+03	2.289127E-16	2.695392E-18
5.750000E+03	2.257073E-16	2.657744E-18
5.760000E+03	2.226733E-16	2.622351E-18
5.770000E+03	2.199635E-16	2.590998E-18
5.780000E+03	2.177239E-16	2.565392E-18
5.790000E+03	2.161811E-16	2.548196E-18
5.800000E+03	2.154603E-16	2.540886E-18
5.810000E+03	2.157445E-16	2.545625E-18
5.820000E+03	2.171654E-16	2.563981E-18
5.830000E+03	2.197930E-16	2.596806E-18
5.840000E+03	2.237207E-16	2.645233E-18
5.850000E+03	2.289099E-16	2.708846E-18
5.860000E+03	2.352511E-16	2.786390E-18
5.870000E+03	2.426094E-16	2.876311E-18
5.880000E+03	2.507494E-16	2.975861E-18
5.890000E+03	2.593685E-16	3.081485E-18
5.900000E+03	2.681146E-16	3.189028E-18
5.910000E+03	2.766156E-16	3.294070E-18
5.920000E+03	2.844821E-16	3.391972E-18
5.930000E+03	2.914695E-16	3.479794E-18
5.940000E+03	2.972925E-16	3.554088E-18
5.950000E+03	3.018633E-16	3.613755E-18
5.960000E+03	3.051736E-16	3.658633E-18
5.970000E+03	3.073163E-16	3.689773E-18
5.980000E+03	3.084325E-16	3.708805E-18
5.990000E+03	3.088190E-16	3.719245E-18
6.000000E+03	3.086659E-16	3.723341E-18
6.010000E+03	3.082666E-16	3.724600E-18
6.020000E+03	3.078641E-16	3.725944E-18
6.030000E+03	3.076712E-16	3.729948E-18
6.040000E+03	3.078632E-16	3.738748E-18
6.050000E+03	3.085412E-16	3.753595E-18
6.060000E+03	3.098648E-16	3.776463E-18
6.070000E+03	3.118222E-16	3.807247E-18
6.080000E+03	3.144653E-16	3.846625E-18
6.090000E+03	3.177822E-16	3.894495E-18
6.100000E+03	3.217349E-16	3.950438E-18
6.110000E+03	3.262660E-16	4.013793E-18
6.120000E+03	3.312700E-16	4.083306E-18
6.130000E+03	3.367435E-16	4.158968E-18
6.140000E+03	3.425439E-16	4.239053E-18
6.150000E+03	3.486460E-16	4.323276E-18
6.160000E+03	3.550045E-16	4.411103E-18
6.170000E+03	3.615923E-16	4.502218E-18
6.180000E+03	3.683602E-16	4.596029E-18
6.190000E+03	3.753891E-16	4.693568E-18
6.200000E+03	3.826087E-16	4.793980E-18
6.210000E+03	3.900643E-16	4.897855E-18
6.220000E+03	3.977493E-16	5.005133E-18
6.230000E+03	4.056354E-16	5.115485E-18
6.240000E+03	4.136661E-16	5.228219E-18
6.250000E+03	4.217537E-16	5.342244E-18
6.260000E+03	4.297335E-16	5.455482E-18
6.270000E+03	4.375051E-16	5.566653E-18
6.280000E+03	4.449063E-16	5.673679E-18
6.290000E+03	4.517692E-16	5.774392E-18
6.300000E+03	4.579342E-16	5.866706E-18
6.310000E+03	4.632638E-16	5.948801E-18
6.320000E+03	4.676069E-16	6.018665E-18
6.330000E+03	4.710070E-16	6.076777E-18
6.340000E+03	4.733645E-16	6.121768E-18
6.350000E+03	4.747869E-16	6.154939E-18
6.360000E+03	4.753887E-16	6.177697E-18
6.370000E+03	4.752863E-16	6.191485E-18
6.380000E+03	4.747909E-16	6.200302E-18
6.390000E+03	4.740451E-16	6.205979E-18
6.400000E+03	4.734134E-16	6.213279E-18
6.410000E+03	4.730692E-16	6.224500E-18
6.420000E+03	4.733354E-16	6.243931E-18
6.430000E+03	4.744748E-16	6.275117E-18
6.440000E+03	4.766828E-16	6.320740E-18
6.450000E+03	4.802821E-16	6.385210E-18
6.460000E+03	4.853647E-16	6.469908E-18
6.470000E+03	4.921889E-16	6.578455E-18
6.480000E+03	5.007615E-16	6.711142E-18
6.490000E+03	5.111801E-16	6.869488E-18
6.500000E+03	5.233509E-16	7.052449E-18
6.510000E+03	5.372265E-16	7.259606E-18
6.520000E+03	5.523856E-16	7.485465E-18
6.530000E+03	5.684460E-16	7.725009E-18
6.540000E+03	5.846987E-16	7.968708E-18
6.550000E+03	6.005895E-16	8.209039E-18
6.560000E+03	6.153746E-16	8.435785E-18
6.570000E+03	6.282295E-16	8.637484E-18
6.580000E+03	6.382643E-16	8.801640E-18
6.590000E+03	6.448837E-16	8.919674E-18
6.600000E+03	6.474021E-16	8.981646E-18
6.610000E+03	6.455760E-16	8.983647E-18
6.620000E+03	6.393668E-16	8.924571E-18
6.630000E+03	6.290038E-16	8.807050E-18
6.640000E+03	6.149505E-16	8.637032E-18
6.650000E+03	5.977836E-16	8.422137E-18
6.660000E+03	5.783752E-16	8.174253E-18
6.670000E+03	5.573815E-16	7.902356E-18
6.680000E+03	5.356159E-16	7.617778E-18
6.690000E+03	5.137530E-16	7.330009E-18
6.700000E+03	4.923598E-16	7.047125E-18
6.710000E+03	4.718815E-16	6.775558E-18
6.720000E+03	4.525925E-16	6.519365E-18
6.730000E+03	4.347983E-16	6.283101E-18
6.740000E+03	4.185140E-16	6.067175E-18
6.750000E+03	4.038149E-16	5.872876E-18
6.760000E+03	3.906656E-16	5.699893E-18
6.770000E+03	3.789860E-16	5.547261E-18
6.780000E+03	3.686662E-16	5.413560E-18
6.790000E+03	3.595806E-16	5.297121E-18
6.800000E+03	3.515609E-16	5.195627E-18
6.810000E+03	3.445187E-16	5.107907E-18
6.820000E+03	3.383716E-16	5.032870E-18
6.830000E+03	3.329450E-16	4.968033E-18
6.840000E+03	3.281544E-16	4.912227E-18
6.850000E+03	3.240006E-16	4.865553E-18
6.860000E+03	3.203972E-16	4.826793E-18
6.870000E+03	3.172736E-16	4.794957E-18
6.880000E+03	3.146720E-16	4.770750E-18
6.890000E+03	3.125090E-16	4.752976E-18
6.900000E+03	3.108073E-16	4.742040E-18
6.910000E+03	3.095577E-16	4.737866E-18
6.920000E+03	3.087517E-16	4.740383E-18
6.930000E+03	3.083780E-16	4.749482E-18
6.940000E+03	3.083896E-16	4.764495E-18
6.950000E+03	3.088335E-16	4.786204E-18
6.960000E+03	3.096213E-16	4.813293E-18
6.970000E+03	3.107584E-16	4.845896E-18
6.980000E+03	3.122130E-16	4.883562E-18
6.990000E+03	3.139498E-16	4.925780E-18
7.000000E+03	3.159295E-16	4.971970E-18
7.010000E+03	3.181093E-16	5.021492E-18
7.020000E+03	3.204106E-16	5.073123E-18
7.030000E+03	3.228550E-16	5.127225E-18
7.040000E+03	3.253282E-16	5.181994E-18
7.050000E+03	3.278212E-16	5.237288E-18
7.060000E+03	3.302961E-16	5.292500E-18
7.070000E+03	3.327246E-16	5.347173E-18
7.080000E+03	3.350919E-16	5.401056E-18
7.090000E+03	3.374009E-16	5.454188E-18
7.100000E+03	3.396753E-16	5.506941E-18
7.110000E+03	3.419261E-16	5.559490E-18
7.120000E+03	3.442616E-16	5.613593E-18
7.130000E+03	3.468137E-16	5.671418E-18
7.140000E+03	3.496212E-16	5.733630E-18
7.150000E+03	3.528450E-16	5.802910E-18
7.160000E+03	3.566103E-16	5.881379E-18
7.170000E+03	3.609938E-16	5.970377E-18
7.180000E+03	3.661645E-16	6.072792E-18
7.190000E+03	3.721399E-16	6.189022E-18
7.200000E+03	3.788853E-16	6.318597E-18
7.210000E+03	3.863853E-16	6.461362E-18
7.220000E+03	3.945150E-16	6.615323E-18
7.230000E+03	4.031182E-16	6.777938E-18
7.240000E+03	4.118350E-16	6.943200E-18
7.250000E+03	4.203221E-16	7.105320E-18
7.260000E+03	4.282774E-16	7.259142E-18
7.270000E+03	4.352360E-16	7.396689E-18
7.280000E+03	4.407301E-16	7.509856E-18
7.290000E+03	4.444703E-16	7.593498E-18
7.300000E+03	4.460447E-16	7.640324E-18
7.310000E+03	4.452836E-16	7.647131E-18
7.320000E+03	4.420887E-16	7.611915E-18
7.330000E+03	4.364893E-16	7.534856E-18
7.340000E+03	4.286376E-16	7.418276E-18
7.350000E+03	4.187918E-16	7.266358E-18
7.360000E+03	4.072901E-16	7.084725E-18
7.370000E+03	3.944746E-16	6.879129E-18
7.380000E+03	3.808332E-16	6.657932E-18
7.390000E+03	3.666664E-16	6.426297E-18
7.400000E+03	3.523643E-16	6.191015E-18
7.410000E+03	3.382569E-16	5.957886E-18
7.420000E+03	3.244983E-16	5.729661E-18
7.430000E+03	3.112939E-16	5.510027E-18
7.440000E+03	2.987516E-16	5.300973E-18
7.450000E+03	2.868968E-16	5.103042E-18
7.460000E+03	2.758118E-16	4.917795E-18
7.470000E+03	2.654529E-16	4.744553E-18
7.480000E+03	2.557641E-16	4.582412E-18
7.490000E+03	2.467686E-16	4.431876E-18
7.500000E+03	2.383771E-16	4.291432E-18
7.510000E+03	2.305927E-16	4.161213E-18
7.520000E+03	2.234007E-16	4.041035E-18
7.530000E+03	2.167999E-16	3.930957E-18
7.540000E+03	2.108023E-16	3.831271E-18
7.550000E+03	2.054305E-16	3.742471E-18
7.560000E+03	2.007151E-16	3.665197E-18
7.570000E+03	1.966687E-16	3.599765E-18
7.580000E+03	1.933700E-16	3.547708E-18
7.590000E+03	1.908271E-16	3.509272E-18
7.600000E+03	1.890405E-16	3.484566E-18
7.610000E+03	1.880424E-16	3.474283E-18
7.620000E+03	1.878277E-16	3.478432E-18
7.630000E+03	1.883942E-16	3.497077E-18
7.640000E+03	1.896555E-16	3.528712E-18
7.650000E+03	1.915658E-16	3.572575E-18
7.660000E+03	1.940340E-16	3.627051E-18
7.670000E+03	1.969247E-16	3.689678E-18
7.680000E+03	2.001492E-16	3.758850E-18
7.690000E+03	2.035399E-16	3.831457E-18
7.700000E+03	2.069218E-16	3.904220E-18
7.710000E+03	2.101948E-16	3.975253E-18
7.720000E+03	2.131804E-16	4.041159E-18
7.730000E+03	2.158207E-16	4.100803E-18
7.740000E+03	2.179933E-16	4.151811E-18
7.750000E+03	2.196863E-16	4.193897E-18
7.760000E+03	2.209017E-16	4.227040E-18
