#wls	flux	fluxerr
1.600000E+03	5.049494E-18	2.530746E-19
1.640000E+03	5.087008E-18	2.543089E-19
1.680000E+03	5.123610E-18	2.554718E-19
1.720000E+03	5.164221E-18	2.568076E-19
1.760000E+03	5.206578E-18	2.582017E-19
1.800000E+03	5.250826E-18	2.596597E-19
1.840000E+03	5.297120E-18	2.611878E-19
1.880000E+03	5.345627E-18	2.627925E-19
1.920000E+03	5.398979E-18	2.646007E-19
1.960000E+03	5.452474E-18	2.663798E-19
2.000000E+03	5.511244E-18	2.683785E-19
2.040000E+03	5.573059E-18	2.704851E-19
2.080000E+03	5.638168E-18	2.727090E-19
2.120000E+03	5.706833E-18	2.750601E-19
2.160000E+03	5.781885E-18	2.776713E-19
2.200000E+03	5.858563E-18	2.803102E-19
2.240000E+03	5.942310E-18	2.832340E-19
2.280000E+03	6.030946E-18	2.863338E-19
2.320000E+03	6.124866E-18	2.896241E-19
2.360000E+03	6.224494E-18	2.931201E-19
2.400000E+03	6.332985E-18	2.969647E-19
2.440000E+03	6.445485E-18	3.009242E-19
2.480000E+03	6.567962E-18	3.052715E-19
2.520000E+03	6.698319E-18	3.099012E-19
2.560000E+03	6.837210E-18	3.148361E-19
2.600000E+03	6.985346E-18	3.201009E-19
2.640000E+03	7.143507E-18	3.257224E-19
2.680000E+03	7.315535E-18	3.318652E-19
2.720000E+03	7.496454E-18	3.382924E-19
2.760000E+03	7.693347E-18	3.453122E-19
2.800000E+03	7.904395E-18	3.528286E-19
2.840000E+03	8.130902E-18	3.608852E-19
2.880000E+03	8.374329E-18	3.695311E-19
2.920000E+03	8.639720E-18	3.789701E-19
2.960000E+03	8.922218E-18	3.889688E-19
3.000000E+03	9.230844E-18	3.998994E-19
3.010000E+03	9.311830E-18	4.027636E-19
3.020000E+03	9.394427E-18	4.056831E-19
3.030000E+03	9.478680E-18	4.086593E-19
3.040000E+03	9.564632E-18	4.116937E-19
3.050000E+03	9.652329E-18	4.147878E-19
3.060000E+03	9.741820E-18	4.179433E-19
3.070000E+03	9.833153E-18	4.211617E-19
3.080000E+03	9.926378E-18	4.244447E-19
3.090000E+03	1.002155E-17	4.277941E-19
3.100000E+03	1.011873E-17	4.312118E-19
3.110000E+03	1.021796E-17	4.346996E-19
3.120000E+03	1.031931E-17	4.382596E-19
3.130000E+03	1.042285E-17	4.418937E-19
3.140000E+03	1.052862E-17	4.456041E-19
3.150000E+03	1.063671E-17	4.493930E-19
3.160000E+03	1.074718E-17	4.532627E-19
3.170000E+03	1.086010E-17	4.572156E-19
3.180000E+03	1.097555E-17	4.612542E-19
3.190000E+03	1.109361E-17	4.653811E-19
3.200000E+03	1.121434E-17	4.695988E-19
3.210000E+03	1.134212E-17	4.740888E-19
3.220000E+03	1.146854E-17	4.784987E-19
3.230000E+03	1.159790E-17	4.830079E-19
3.240000E+03	1.173031E-17	4.876202E-19
3.250000E+03	1.186587E-17	4.923386E-19
3.260000E+03	1.200467E-17	4.971665E-19
3.270000E+03	1.214684E-17	5.021078E-19
3.280000E+03	1.229705E-17	5.073549E-19
3.290000E+03	1.244633E-17	5.125354E-19
3.300000E+03	1.259931E-17	5.178408E-19
3.310000E+03	1.275613E-17	5.232752E-19
3.320000E+03	1.291693E-17	5.288433E-19
3.330000E+03	1.308184E-17	5.345491E-19
3.340000E+03	1.325591E-17	5.405977E-19
3.350000E+03	1.342954E-17	5.465962E-19
3.360000E+03	1.360775E-17	5.527480E-19
3.370000E+03	1.379068E-17	5.590579E-19
3.380000E+03	1.398366E-17	5.657398E-19
3.390000E+03	1.417666E-17	5.723863E-19
3.400000E+03	1.437493E-17	5.792087E-19
3.410000E+03	1.457869E-17	5.862142E-19
3.420000E+03	1.479350E-17	5.936248E-19
3.430000E+03	1.500888E-17	6.010174E-19
3.440000E+03	1.523039E-17	6.086140E-19
3.450000E+03	1.545822E-17	6.164208E-19
3.460000E+03	1.569833E-17	6.246725E-19
3.470000E+03	1.593967E-17	6.329272E-19
3.480000E+03	1.618809E-17	6.414165E-19
3.490000E+03	1.644980E-17	6.503839E-19
3.500000E+03	1.671331E-17	6.593717E-19
3.510000E+03	1.698474E-17	6.686210E-19
3.520000E+03	1.727059E-17	6.783844E-19
3.530000E+03	1.755887E-17	6.881878E-19
3.540000E+03	1.785599E-17	6.982814E-19
3.550000E+03	1.816876E-17	7.089282E-19
3.560000E+03	1.848463E-17	7.196354E-19
3.570000E+03	1.881034E-17	7.306631E-19
3.580000E+03	1.915303E-17	7.422858E-19
3.590000E+03	1.949955E-17	7.539900E-19
3.600000E+03	1.985696E-17	7.660463E-19
3.610000E+03	2.023276E-17	7.787410E-19
3.620000E+03	2.061313E-17	7.915377E-19
3.630000E+03	2.100550E-17	8.047193E-19
3.640000E+03	2.141777E-17	8.185847E-19
3.650000E+03	2.183538E-17	8.325722E-19
3.660000E+03	2.227393E-17	8.472745E-19
3.670000E+03	2.271834E-17	8.621121E-19
3.680000E+03	2.317668E-17	8.773895E-19
3.690000E+03	2.365761E-17	8.934291E-19
3.700000E+03	2.414518E-17	9.096237E-19
3.710000E+03	2.465650E-17	9.266138E-19
3.720000E+03	2.517498E-17	9.437702E-19
3.730000E+03	2.570947E-17	9.614222E-19
3.740000E+03	2.626954E-17	9.799212E-19
3.750000E+03	2.683757E-17	9.986045E-19
3.760000E+03	2.743243E-17	1.018170E-18
3.770000E+03	2.803580E-17	1.037930E-18
3.780000E+03	2.866733E-17	1.058610E-18
3.790000E+03	2.930792E-17	1.079495E-18
3.800000E+03	2.996772E-17	1.100957E-18
3.810000E+03	3.065776E-17	1.123393E-18
3.820000E+03	3.135766E-17	1.146050E-18
3.830000E+03	3.208922E-17	1.169719E-18
3.840000E+03	3.283120E-17	1.193618E-18
3.850000E+03	3.360631E-17	1.218567E-18
3.860000E+03	3.439237E-17	1.243753E-18
3.870000E+03	3.521308E-17	1.270029E-18
3.880000E+03	3.604525E-17	1.296549E-18
3.890000E+03	3.691361E-17	1.324196E-18
3.900000E+03	3.779390E-17	1.352092E-18
3.910000E+03	3.871196E-17	1.381155E-18
3.920000E+03	3.964239E-17	1.410468E-18
3.930000E+03	4.059849E-17	1.440500E-18
3.940000E+03	4.159473E-17	1.471755E-18
3.950000E+03	4.260390E-17	1.503259E-18
3.960000E+03	4.365480E-17	1.536023E-18
3.970000E+03	4.471891E-17	1.569033E-18
3.980000E+03	4.582634E-17	1.603336E-18
3.990000E+03	4.694717E-17	1.637877E-18
4.000000E+03	4.811286E-17	1.673744E-18
4.010000E+03	4.929203E-17	1.709837E-18
4.020000E+03	5.051754E-17	1.747285E-18
4.030000E+03	5.175649E-17	1.784941E-18
4.040000E+03	5.304317E-17	1.823979E-18
4.050000E+03	5.434306E-17	1.863200E-18
4.060000E+03	5.569199E-17	1.903825E-18
4.070000E+03	5.705370E-17	1.944602E-18
4.080000E+03	5.846557E-17	1.986797E-18
4.090000E+03	5.988954E-17	2.029106E-18
4.100000E+03	6.136459E-17	2.072840E-18
4.110000E+03	6.285075E-17	2.116637E-18
4.120000E+03	6.438866E-17	2.161859E-18
4.130000E+03	6.593632E-17	2.207082E-18
4.140000E+03	6.753605E-17	2.253717E-18
4.150000E+03	6.914373E-17	2.300278E-18
4.160000E+03	7.080337E-17	2.348222E-18
4.170000E+03	7.246862E-17	2.396001E-18
4.180000E+03	7.416113E-17	2.444327E-18
4.190000E+03	7.590445E-17	2.493963E-18
4.200000E+03	7.764860E-17	2.543259E-18
4.210000E+03	7.944195E-17	2.593791E-18
4.220000E+03	8.123195E-17	2.643835E-18
4.230000E+03	8.306865E-17	2.695015E-18
4.240000E+03	8.489682E-17	2.745530E-18
4.250000E+03	8.676811E-17	2.797049E-18
4.260000E+03	8.862447E-17	2.847693E-18
4.270000E+03	9.051907E-17	2.899168E-18
4.280000E+03	9.239082E-17	2.949515E-18
4.290000E+03	9.429423E-17	3.000473E-18
4.300000E+03	9.616497E-17	3.049993E-18
4.310000E+03	9.802737E-17	3.098855E-18
4.320000E+03	9.990730E-17	3.147876E-18
4.330000E+03	1.017349E-16	3.194860E-18
4.340000E+03	1.035667E-16	3.241590E-18
4.350000E+03	1.053287E-16	3.285756E-18
4.360000E+03	1.070774E-16	3.329142E-18
4.370000E+03	1.087348E-16	3.369333E-18
4.380000E+03	1.103239E-16	3.407066E-18
4.390000E+03	1.118712E-16	3.443186E-18
4.400000E+03	1.133033E-16	3.475447E-18
4.410000E+03	1.146923E-16	3.506096E-18
4.420000E+03	1.159711E-16	3.533101E-18
4.430000E+03	1.171803E-16	3.557731E-18
4.440000E+03	1.183622E-16	3.581289E-18
4.450000E+03	1.194477E-16	3.601698E-18
4.460000E+03	1.204777E-16	3.620222E-18
4.470000E+03	1.214942E-16	3.638136E-18
4.480000E+03	1.224250E-16	3.653289E-18
4.490000E+03	1.233495E-16	3.668073E-18
4.500000E+03	1.241940E-16	3.680305E-18
4.510000E+03	1.249994E-16	3.691220E-18
4.520000E+03	1.258070E-16	3.702050E-18
4.530000E+03	1.265415E-16	3.710581E-18
4.540000E+03	1.272439E-16	3.718040E-18
4.550000E+03	1.279557E-16	3.725643E-18
4.560000E+03	1.286000E-16	3.731156E-18
4.570000E+03	1.292182E-16	3.735793E-18
4.580000E+03	1.298118E-16	3.739611E-18
4.590000E+03	1.304225E-16	3.743811E-18
4.600000E+03	1.309723E-16	3.746154E-18
4.610000E+03	1.315022E-16	3.747833E-18
4.620000E+03	1.320141E-16	3.748902E-18
4.630000E+03	1.325498E-16	3.750551E-18
4.640000E+03	1.330298E-16	3.750533E-18
4.650000E+03	1.334959E-16	3.750036E-18
4.660000E+03	1.339494E-16	3.749102E-18
4.670000E+03	1.344325E-16	3.748911E-18
4.680000E+03	1.348649E-16	3.747221E-18
4.690000E+03	1.352888E-16	3.745216E-18
4.700000E+03	1.357051E-16	3.742927E-18
4.710000E+03	1.361153E-16	3.740393E-18
4.720000E+03	1.365619E-16	3.738778E-18
4.730000E+03	1.369636E-16	3.735859E-18
4.740000E+03	1.373630E-16	3.732802E-18
4.750000E+03	1.377611E-16	3.729636E-18
4.760000E+03	1.381592E-16	3.726399E-18
4.770000E+03	1.385587E-16	3.723124E-18
4.780000E+03	1.389607E-16	3.719842E-18
4.790000E+03	1.393665E-16	3.716587E-18
4.800000E+03	1.398191E-16	3.714501E-18
4.810000E+03	1.402363E-16	3.711392E-18
4.820000E+03	1.406610E-16	3.708407E-18
4.830000E+03	1.410949E-16	3.705581E-18
4.840000E+03	1.415390E-16	3.702944E-18
4.850000E+03	1.419949E-16	3.700530E-18
4.860000E+03	1.424639E-16	3.698371E-18
4.870000E+03	1.429474E-16	3.696501E-18
4.880000E+03	1.434471E-16	3.694956E-18
4.890000E+03	1.439644E-16	3.693773E-18
4.900000E+03	1.445008E-16	3.692981E-18
4.910000E+03	1.450581E-16	3.692621E-18
4.920000E+03	1.456377E-16	3.692724E-18
4.930000E+03	1.462414E-16	3.693328E-18
4.940000E+03	1.468710E-16	3.694471E-18
4.950000E+03	1.474848E-16	3.695104E-18
4.960000E+03	1.481710E-16	3.697430E-18
4.970000E+03	1.488881E-16	3.700400E-18
4.980000E+03	1.496380E-16	3.704050E-18
4.990000E+03	1.504225E-16	3.708413E-18
5.000000E+03	1.512432E-16	3.713524E-18
5.010000E+03	1.521017E-16	3.719411E-18
5.020000E+03	1.529553E-16	3.725021E-18
5.030000E+03	1.538943E-16	3.732549E-18
5.040000E+03	1.548758E-16	3.740935E-18
5.050000E+03	1.559015E-16	3.750206E-18
5.060000E+03	1.569269E-16	3.759289E-18
5.070000E+03	1.580442E-16	3.770379E-18
5.080000E+03	1.592090E-16	3.782399E-18
5.090000E+03	1.604222E-16	3.795359E-18
5.100000E+03	1.616378E-16	3.808161E-18
5.110000E+03	1.629496E-16	3.823008E-18
5.120000E+03	1.643114E-16	3.838792E-18
5.130000E+03	1.656757E-16	3.854397E-18
5.140000E+03	1.671372E-16	3.872019E-18
5.150000E+03	1.686001E-16	3.889422E-18
5.160000E+03	1.701601E-16	3.908804E-18
5.170000E+03	1.717683E-16	3.929025E-18
5.180000E+03	1.733738E-16	3.948915E-18
5.190000E+03	1.750742E-16	3.970685E-18
5.200000E+03	1.767678E-16	3.992021E-18
5.210000E+03	1.785533E-16	4.015145E-18
5.220000E+03	1.803269E-16	4.037708E-18
5.230000E+03	1.821880E-16	4.061939E-18
5.240000E+03	1.840307E-16	4.085460E-18
5.250000E+03	1.859556E-16	4.110510E-18
5.260000E+03	1.878540E-16	4.134672E-18
5.270000E+03	1.897740E-16	4.159019E-18
5.280000E+03	1.917661E-16	4.184644E-18
5.290000E+03	1.937169E-16	4.209074E-18
5.300000E+03	1.957309E-16	4.234585E-18
5.310000E+03	1.976925E-16	4.258676E-18
5.320000E+03	1.996508E-16	4.282417E-18
5.330000E+03	2.015999E-16	4.305690E-18
5.340000E+03	2.035905E-16	4.329586E-18
5.350000E+03	2.055020E-16	4.351540E-18
5.360000E+03	2.073836E-16	4.372623E-18
5.370000E+03	2.092283E-16	4.392699E-18
5.380000E+03	2.110871E-16	4.412852E-18
5.390000E+03	2.128334E-16	4.430452E-18
5.400000E+03	2.145171E-16	4.446568E-18
5.410000E+03	2.161284E-16	4.461022E-18
5.420000E+03	2.176569E-16	4.473625E-18
5.430000E+03	2.190910E-16	4.484172E-18
5.440000E+03	2.204181E-16	4.492438E-18
5.450000E+03	2.216862E-16	4.499427E-18
5.460000E+03	2.227563E-16	4.502357E-18
5.470000E+03	2.236732E-16	4.502183E-18
5.480000E+03	2.244200E-16	4.498615E-18
5.490000E+03	2.249832E-16	4.491429E-18
5.500000E+03	2.253582E-16	4.480588E-18
5.510000E+03	2.254905E-16	4.465062E-18
5.520000E+03	2.255212E-16	4.447699E-18
5.530000E+03	2.254062E-16	4.427662E-18
5.540000E+03	2.251632E-16	4.405335E-18
5.550000E+03	2.248091E-16	4.381084E-18
5.560000E+03	2.243592E-16	4.355236E-18
5.570000E+03	2.238275E-16	4.328082E-18
5.580000E+03	2.231655E-16	4.298703E-18
5.590000E+03	2.225086E-16	4.269720E-18
5.600000E+03	2.218065E-16	4.240167E-18
5.610000E+03	2.210697E-16	4.210249E-18
5.620000E+03	2.202480E-16	4.179014E-18
5.630000E+03	2.194727E-16	4.148957E-18
5.640000E+03	2.186922E-16	4.119090E-18
5.650000E+03	2.178553E-16	4.088452E-18
5.660000E+03	2.170908E-16	4.059455E-18
5.670000E+03	2.163467E-16	4.031109E-18
5.680000E+03	2.155714E-16	4.002451E-18
5.690000E+03	2.148910E-16	3.975813E-18
5.700000E+03	2.141944E-16	3.949125E-18
5.710000E+03	2.136057E-16	3.924666E-18
5.720000E+03	2.130142E-16	3.900383E-18
5.730000E+03	2.125425E-16	3.878510E-18
5.740000E+03	2.120799E-16	3.857010E-18
5.750000E+03	2.117475E-16	3.838069E-18
5.760000E+03	2.114344E-16	3.819662E-18
5.770000E+03	2.112034E-16	3.802909E-18
5.780000E+03	2.111158E-16	3.788896E-18
5.790000E+03	2.110605E-16	3.775607E-18
5.800000E+03	2.110991E-16	3.764131E-18
5.810000E+03	2.112345E-16	3.754505E-18
5.820000E+03	2.115273E-16	3.747782E-18
5.830000E+03	2.118656E-16	3.741960E-18
5.840000E+03	2.123093E-16	3.738083E-18
5.850000E+03	2.128608E-16	3.736179E-18
5.860000E+03	2.135225E-16	3.736268E-18
5.870000E+03	2.143542E-16	3.739380E-18
5.880000E+03	2.152421E-16	3.743504E-18
5.890000E+03	2.162456E-16	3.749667E-18
5.900000E+03	2.173666E-16	3.757882E-18
5.910000E+03	2.186066E-16	3.768159E-18
5.920000E+03	2.199669E-16	3.780505E-18
5.930000E+03	2.214491E-16	3.794931E-18
5.940000E+03	2.230544E-16	3.811442E-18
5.950000E+03	2.247842E-16	3.830048E-18
5.960000E+03	2.266399E-16	3.850756E-18
5.970000E+03	2.286226E-16	3.873571E-18
5.980000E+03	2.306713E-16	3.897451E-18
5.990000E+03	2.329112E-16	3.924499E-18
6.000000E+03	2.352818E-16	3.953677E-18
6.010000E+03	2.377843E-16	3.984994E-18
6.020000E+03	2.404197E-16	4.018457E-18
6.030000E+03	2.431240E-16	4.052985E-18
6.040000E+03	2.460281E-16	4.090754E-18
6.050000E+03	2.490680E-16	4.130687E-18
6.060000E+03	2.521774E-16	4.171676E-18
6.070000E+03	2.554911E-16	4.215948E-18
6.080000E+03	2.589432E-16	4.262400E-18
6.090000E+03	2.624636E-16	4.309878E-18
6.100000E+03	2.661923E-16	4.360676E-18
6.110000E+03	2.699876E-16	4.412468E-18
6.120000E+03	2.739926E-16	4.467593E-18
6.130000E+03	2.780611E-16	4.523661E-18
6.140000E+03	2.823399E-16	4.583064E-18
6.150000E+03	2.866779E-16	4.643344E-18
6.160000E+03	2.912253E-16	4.706943E-18
6.170000E+03	2.958252E-16	4.771326E-18
6.180000E+03	3.005519E-16	4.837698E-18
6.190000E+03	3.054833E-16	4.907321E-18
6.200000E+03	3.104537E-16	4.977538E-18
6.210000E+03	3.155390E-16	5.049581E-18
6.220000E+03	3.207339E-16	5.123377E-18
6.230000E+03	3.261194E-16	5.200233E-18
6.240000E+03	3.315163E-16	5.277304E-18
6.250000E+03	3.370029E-16	5.355858E-18
6.260000E+03	3.425703E-16	5.435776E-18
6.270000E+03	3.482095E-16	5.516938E-18
6.280000E+03	3.539101E-16	5.599200E-18
6.290000E+03	3.596607E-16	5.682412E-18
6.300000E+03	3.654492E-16	5.766408E-18
6.310000E+03	3.712619E-16	5.851002E-18
6.320000E+03	3.770842E-16	5.935997E-18
6.330000E+03	3.829000E-16	6.021174E-18
6.340000E+03	3.886925E-16	6.106304E-18
6.350000E+03	3.944428E-16	6.191127E-18
6.360000E+03	4.001311E-16	6.275372E-18
6.370000E+03	4.057365E-16	6.358750E-18
6.380000E+03	4.112359E-16	6.440940E-18
6.390000E+03	4.166054E-16	6.521609E-18
6.400000E+03	4.217070E-16	6.598640E-18
6.410000E+03	4.267362E-16	6.675133E-18
6.420000E+03	4.315534E-16	6.748945E-18
6.430000E+03	4.361276E-16	6.819631E-18
6.440000E+03	4.403095E-16	6.884896E-18
6.450000E+03	4.442965E-16	6.947860E-18
6.460000E+03	4.479355E-16	7.006167E-18
6.470000E+03	4.510667E-16	7.057346E-18
6.480000E+03	4.538853E-16	7.104476E-18
6.490000E+03	4.561044E-16	7.143088E-18
6.500000E+03	4.579152E-16	7.176188E-18
6.510000E+03	4.590232E-16	7.199172E-18
6.520000E+03	4.596216E-16	7.215066E-18
6.530000E+03	4.594313E-16	7.219472E-18
6.540000E+03	4.586908E-16	7.216086E-18
6.550000E+03	4.571851E-16	7.201470E-18
6.560000E+03	4.550829E-16	7.178207E-18
6.570000E+03	4.525558E-16	7.148941E-18
6.580000E+03	4.494140E-16	7.110605E-18
6.590000E+03	4.458256E-16	7.065779E-18
6.600000E+03	4.419516E-16	7.016948E-18
6.610000E+03	4.375984E-16	6.960966E-18
6.620000E+03	4.329226E-16	6.900248E-18
6.630000E+03	4.279612E-16	6.835313E-18
6.640000E+03	4.227492E-16	6.766650E-18
6.650000E+03	4.173197E-16	6.694725E-18
6.660000E+03	4.118139E-16	6.621740E-18
6.670000E+03	4.060425E-16	6.544599E-18
6.680000E+03	4.001453E-16	6.465485E-18
6.690000E+03	3.941499E-16	6.384793E-18
6.700000E+03	3.880823E-16	6.302895E-18
6.710000E+03	3.819675E-16	6.220146E-18
6.720000E+03	3.758286E-16	6.136885E-18
6.730000E+03	3.696872E-16	6.053425E-18
6.740000E+03	3.634675E-16	5.968486E-18
6.750000E+03	3.573819E-16	5.885522E-18
6.760000E+03	3.513496E-16	5.803184E-18
6.770000E+03	3.453862E-16	5.721709E-18
6.780000E+03	3.395053E-16	5.641303E-18
6.790000E+03	3.337196E-16	5.562162E-18
6.800000E+03	3.279530E-16	5.483003E-18
6.810000E+03	3.223905E-16	5.406906E-18
6.820000E+03	3.169516E-16	5.332525E-18
6.830000E+03	3.115611E-16	5.258585E-18
6.840000E+03	3.063911E-16	5.187990E-18
6.850000E+03	3.013622E-16	5.119406E-18
6.860000E+03	2.963997E-16	5.051566E-18
6.870000E+03	2.916645E-16	4.987210E-18
6.880000E+03	2.870023E-16	4.923717E-18
6.890000E+03	2.825675E-16	4.863740E-18
6.900000E+03	2.782095E-16	4.804701E-18
6.910000E+03	2.740759E-16	4.749158E-18
6.920000E+03	2.700197E-16	4.694584E-18
6.930000E+03	2.661832E-16	4.643459E-18
6.940000E+03	2.624220E-16	4.593287E-18
6.950000E+03	2.588055E-16	4.545286E-18
6.960000E+03	2.553981E-16	4.500610E-18
6.970000E+03	2.520604E-16	4.456819E-18
6.980000E+03	2.488573E-16	4.415073E-18
6.990000E+03	2.458505E-16	4.376484E-18
7.000000E+03	2.429045E-16	4.338662E-18
7.010000E+03	2.400813E-16	4.302722E-18
7.020000E+03	2.373769E-16	4.268605E-18
7.030000E+03	2.347866E-16	4.236247E-18
7.040000E+03	2.323060E-16	4.205583E-18
7.050000E+03	2.299919E-16	4.177656E-18
7.060000E+03	2.277169E-16	4.150176E-18
7.070000E+03	2.255382E-16	4.124188E-18
7.080000E+03	2.234516E-16	4.099627E-18
7.090000E+03	2.214521E-16	4.076420E-18
7.100000E+03	2.195354E-16	4.054497E-18
7.110000E+03	2.176973E-16	4.033794E-18
7.120000E+03	2.159336E-16	4.014243E-18
7.130000E+03	2.142398E-16	3.995772E-18
7.140000E+03	2.126118E-16	3.978316E-18
7.150000E+03	2.109897E-16	3.960759E-18
7.160000E+03	2.094822E-16	3.945150E-18
7.170000E+03	2.080293E-16	3.930372E-18
7.180000E+03	2.066272E-16	3.916362E-18
7.190000E+03	2.052729E-16	3.903074E-18
7.200000E+03	2.039632E-16	3.890452E-18
7.210000E+03	2.026413E-16	3.877417E-18
7.220000E+03	2.014129E-16	3.865997E-18
7.230000E+03	2.002216E-16	3.855117E-18
7.240000E+03	1.990119E-16	3.843718E-18
7.250000E+03	1.978888E-16	3.833828E-18
7.260000E+03	1.967977E-16	3.824401E-18
7.270000E+03	1.956850E-16	3.814399E-18
7.280000E+03	1.946551E-16	3.805858E-18
7.290000E+03	1.936030E-16	3.796736E-18
7.300000E+03	1.926327E-16	3.789075E-18
7.310000E+03	1.916411E-16	3.780853E-18
7.320000E+03	1.907318E-16	3.774121E-18
7.330000E+03	1.898034E-16	3.766880E-18
7.340000E+03	1.889593E-16	3.761185E-18
7.350000E+03	1.880995E-16	3.755057E-18
7.360000E+03	1.873272E-16	3.750559E-18
7.370000E+03	1.865439E-16	3.745732E-18
7.380000E+03	1.858025E-16	3.741638E-18
7.390000E+03	1.851555E-16	3.739347E-18
7.400000E+03	1.845063E-16	3.736921E-18
7.410000E+03	1.839079E-16	3.735434E-18
7.420000E+03	1.834130E-16	3.735975E-18
7.430000E+03	1.829259E-16	3.736606E-18
7.440000E+03	1.825001E-16	3.738425E-18
7.450000E+03	1.821387E-16	3.741511E-18
7.460000E+03	1.818456E-16	3.745955E-18
7.470000E+03	1.816735E-16	3.752860E-18
7.480000E+03	1.815277E-16	3.760288E-18
7.490000E+03	1.814611E-16	3.769342E-18
7.500000E+03	1.814771E-16	3.780110E-18
7.510000E+03	1.815791E-16	3.792681E-18
7.520000E+03	1.817704E-16	3.807138E-18
7.530000E+03	1.820544E-16	3.823573E-18
7.540000E+03	1.824341E-16	3.842067E-18
7.550000E+03	1.829121E-16	3.862694E-18
7.560000E+03	1.834915E-16	3.885540E-18
7.570000E+03	1.841745E-16	3.910671E-18
7.580000E+03	1.849634E-16	3.938159E-18
7.590000E+03	1.858603E-16	3.968068E-18
7.600000E+03	1.868671E-16	4.000462E-18
7.610000E+03	1.879852E-16	4.035394E-18
7.620000E+03	1.891643E-16	4.071807E-18
7.630000E+03	1.905081E-16	4.111948E-18
7.640000E+03	1.919661E-16	4.154764E-18
7.650000E+03	1.935384E-16	4.200277E-18
7.660000E+03	1.952250E-16	4.248516E-18
7.670000E+03	1.969717E-16	4.298320E-18
7.680000E+03	1.988847E-16	4.352031E-18
7.690000E+03	2.009095E-16	4.408489E-18
7.700000E+03	2.030445E-16	4.467685E-18
7.710000E+03	2.052313E-16	4.528353E-18
7.720000E+03	2.075787E-16	4.592923E-18
7.730000E+03	2.100282E-16	4.660127E-18
7.740000E+03	2.125178E-16	4.728617E-18
7.750000E+03	2.151588E-16	4.800891E-18
7.760000E+03	2.178290E-16	4.874246E-18
