#wls	flux	fluxerr
1.592832E+03	1.338757E-16	5.738777E-18
1.632653E+03	1.367150E-16	5.844141E-18
1.672474E+03	1.395072E-16	5.946402E-18
1.712295E+03	1.422414E-16	6.045080E-18
1.752115E+03	1.449073E-16	6.139731E-18
1.791936E+03	1.474952E-16	6.229933E-18
1.831757E+03	1.500231E-16	6.316448E-18
1.871578E+03	1.524303E-16	6.396714E-18
1.911399E+03	1.547641E-16	6.472732E-18
1.951220E+03	1.569642E-16	6.541988E-18
1.991040E+03	1.590818E-16	6.606628E-18
2.030861E+03	1.610857E-16	6.665370E-18
2.070682E+03	1.629728E-16	6.718113E-18
2.110503E+03	1.647405E-16	6.764771E-18
2.150324E+03	1.663863E-16	6.805269E-18
2.190144E+03	1.679073E-16	6.839520E-18
2.229965E+03	1.693295E-16	6.868618E-18
2.269786E+03	1.705885E-16	6.889987E-18
2.309607E+03	1.717385E-16	6.905866E-18
2.349428E+03	1.727425E-16	6.914813E-18
2.389248E+03	1.735931E-16	6.916586E-18
2.429069E+03	1.742831E-16	6.910974E-18
2.468890E+03	1.748080E-16	6.897866E-18
2.508711E+03	1.751667E-16	6.877309E-18
2.548532E+03	1.753658E-16	6.849640E-18
2.588352E+03	1.754516E-16	6.816747E-18
2.628173E+03	1.753896E-16	6.777359E-18
2.667994E+03	1.752807E-16	6.735445E-18
2.707815E+03	1.751454E-16	6.691807E-18
2.747636E+03	1.750443E-16	6.648763E-18
2.787456E+03	1.750452E-16	6.608846E-18
2.827277E+03	1.752198E-16	6.574672E-18
2.867098E+03	1.756411E-16	6.548840E-18
2.906919E+03	1.763815E-16	6.533839E-18
2.946740E+03	1.775421E-16	6.533153E-18
2.986560E+03	1.791285E-16	6.546652E-18
2.996516E+03	1.796195E-16	6.553223E-18
3.006471E+03	1.801440E-16	6.560900E-18
3.016426E+03	1.806716E-16	6.568571E-18
3.026381E+03	1.812659E-16	6.578546E-18
3.036336E+03	1.818964E-16	6.589706E-18
3.046292E+03	1.825323E-16	6.600929E-18
3.056247E+03	1.832380E-16	6.614534E-18
3.066202E+03	1.839824E-16	6.629393E-18
3.076157E+03	1.847343E-16	6.644375E-18
3.086112E+03	1.855585E-16	6.661800E-18
3.096068E+03	1.864240E-16	6.680543E-18
3.106023E+03	1.872988E-16	6.699454E-18
3.115978E+03	1.882485E-16	6.720870E-18
3.125933E+03	1.892414E-16	6.743644E-18
3.135889E+03	1.902782E-16	6.767794E-18
3.145844E+03	1.913263E-16	6.792153E-18
3.155799E+03	1.924521E-16	6.819073E-18
3.165754E+03	1.936236E-16	6.847401E-18
3.175709E+03	1.948073E-16	6.875944E-18
3.185665E+03	1.960708E-16	6.907083E-18
3.195620E+03	1.973811E-16	6.939639E-18
3.205575E+03	1.987384E-16	6.973612E-18
3.215530E+03	2.001085E-16	7.007788E-18
3.225485E+03	2.015604E-16	7.044578E-18
3.235441E+03	2.030601E-16	7.082778E-18
3.245396E+03	2.046077E-16	7.122376E-18
3.255351E+03	2.061675E-16	7.162128E-18
3.265306E+03	2.078104E-16	7.204485E-18
3.275261E+03	2.095012E-16	7.248208E-18
3.285217E+03	2.112397E-16	7.293279E-18
3.295172E+03	2.130257E-16	7.339683E-18
3.305127E+03	2.148219E-16	7.386121E-18
3.315082E+03	2.167016E-16	7.435110E-18
3.325037E+03	2.186278E-16	7.485362E-18
3.334993E+03	2.206002E-16	7.536853E-18
3.344948E+03	2.225796E-16	7.588240E-18
3.354903E+03	2.246421E-16	7.642102E-18
3.364858E+03	2.267488E-16	7.697104E-18
3.374813E+03	2.288991E-16	7.753214E-18
3.384769E+03	2.310923E-16	7.810396E-18
3.394724E+03	2.333275E-16	7.868609E-18
3.404679E+03	2.355634E-16	7.926453E-18
3.414634E+03	2.378797E-16	7.986599E-18
3.424589E+03	2.402351E-16	8.047651E-18
3.434545E+03	2.426288E-16	8.109568E-18
3.444500E+03	2.450598E-16	8.172305E-18
3.454455E+03	2.474844E-16	8.234400E-18
3.464410E+03	2.499861E-16	8.298622E-18
3.474365E+03	2.525217E-16	8.363523E-18
3.484321E+03	2.550898E-16	8.429053E-18
3.494276E+03	2.576894E-16	8.495160E-18
3.504231E+03	2.603192E-16	8.561801E-18
3.514186E+03	2.629331E-16	8.627450E-18
3.524141E+03	2.656192E-16	8.694994E-18
3.534097E+03	2.683316E-16	8.762917E-18
3.544052E+03	2.710693E-16	8.831177E-18
3.554007E+03	2.738307E-16	8.899716E-18
3.563962E+03	2.766145E-16	8.968486E-18
3.573917E+03	2.794192E-16	9.037433E-18
3.583873E+03	2.821956E-16	9.104957E-18
3.593828E+03	2.850379E-16	9.174102E-18
3.603783E+03	2.878970E-16	9.243271E-18
3.613738E+03	2.907714E-16	9.312411E-18
3.623693E+03	2.936596E-16	9.381469E-18
3.633649E+03	2.965601E-16	9.450392E-18
3.643604E+03	2.994710E-16	9.519121E-18
3.653559E+03	3.023395E-16	9.585971E-18
3.663514E+03	3.052662E-16	9.654136E-18
3.673469E+03	3.081982E-16	9.721933E-18
3.683425E+03	3.111336E-16	9.789300E-18
3.693380E+03	3.140706E-16	9.856177E-18
3.703335E+03	3.170070E-16	9.922494E-18
3.713290E+03	3.199407E-16	9.988183E-18
3.723245E+03	3.228144E-16	1.005146E-17
3.733201E+03	3.257352E-16	1.011568E-17
3.743156E+03	3.286461E-16	1.017904E-17
3.753111E+03	3.315447E-16	1.024148E-17
3.763066E+03	3.344282E-16	1.030292E-17
3.773021E+03	3.372937E-16	1.036327E-17
3.782977E+03	3.401385E-16	1.042245E-17
3.792932E+03	3.429013E-16	1.047860E-17
3.802887E+03	3.456951E-16	1.053517E-17
3.812842E+03	3.484589E-16	1.059030E-17
3.822797E+03	3.511895E-16	1.064392E-17
3.832753E+03	3.538838E-16	1.069592E-17
3.842708E+03	3.565383E-16	1.074621E-17
3.852663E+03	3.590891E-16	1.079289E-17
3.862618E+03	3.616539E-16	1.083951E-17
3.872573E+03	3.641693E-16	1.088417E-17
3.882529E+03	3.666319E-16	1.092677E-17
3.892484E+03	3.690388E-16	1.096726E-17
3.902439E+03	3.713866E-16	1.100554E-17
3.912394E+03	3.736727E-16	1.104155E-17
3.922349E+03	3.758307E-16	1.107335E-17
3.932305E+03	3.779848E-16	1.110462E-17
3.942260E+03	3.800693E-16	1.113345E-17
3.952215E+03	3.820824E-16	1.115979E-17
3.962170E+03	3.840219E-16	1.118361E-17
3.972125E+03	3.858864E-16	1.120488E-17
3.982081E+03	3.876090E-16	1.122169E-17
3.992036E+03	3.893194E-16	1.123781E-17
4.001991E+03	3.909517E-16	1.125136E-17
4.011946E+03	3.925058E-16	1.126235E-17
4.021901E+03	3.939814E-16	1.127080E-17
4.031857E+03	3.953128E-16	1.127485E-17
4.041812E+03	3.966332E-16	1.127834E-17
4.051767E+03	3.978777E-16	1.127943E-17
4.061722E+03	3.990478E-16	1.127817E-17
4.071677E+03	4.001453E-16	1.127465E-17
4.081633E+03	4.011050E-16	1.126705E-17
4.091588E+03	4.020642E-16	1.125926E-17
4.101543E+03	4.029587E-16	1.124948E-17
4.111498E+03	4.037915E-16	1.123782E-17
4.121453E+03	4.044983E-16	1.122252E-17
4.131409E+03	4.052187E-16	1.120746E-17
4.141364E+03	4.058889E-16	1.119088E-17
4.151319E+03	4.065133E-16	1.117294E-17
4.161274E+03	4.070281E-16	1.115188E-17
4.171229E+03	4.075744E-16	1.113160E-17
4.181185E+03	4.080889E-16	1.111036E-17
4.191140E+03	4.085768E-16	1.108833E-17
4.201095E+03	4.089745E-16	1.106378E-17
4.211050E+03	4.094243E-16	1.104058E-17
4.221005E+03	4.098631E-16	1.101703E-17
4.230961E+03	4.102964E-16	1.099328E-17
4.240916E+03	4.106607E-16	1.096763E-17
4.250871E+03	4.110991E-16	1.094391E-17
4.260826E+03	4.115485E-16	1.092045E-17
4.270781E+03	4.119455E-16	1.089555E-17
4.280737E+03	4.124337E-16	1.087302E-17
4.290692E+03	4.129498E-16	1.085118E-17
4.300647E+03	4.134997E-16	1.083017E-17
4.310602E+03	4.140202E-16	1.080835E-17
4.320557E+03	4.146556E-16	1.078947E-17
4.330513E+03	4.153427E-16	1.077188E-17
4.340468E+03	4.160181E-16	1.075392E-17
4.350423E+03	4.168266E-16	1.073934E-17
4.360378E+03	4.176346E-16	1.072466E-17
4.370333E+03	4.185857E-16	1.071357E-17
4.380289E+03	4.196124E-16	1.070431E-17
4.390244E+03	4.206450E-16	1.069510E-17
4.400199E+03	4.218227E-16	1.068947E-17
4.410154E+03	4.230740E-16	1.068557E-17
4.420110E+03	4.243269E-16	1.068159E-17
4.430065E+03	4.257209E-16	1.068102E-17
4.440020E+03	4.271127E-16	1.068024E-17
4.449975E+03	4.286427E-16	1.068275E-17
4.459930E+03	4.302385E-16	1.068672E-17
4.469886E+03	4.318268E-16	1.069032E-17
4.479841E+03	4.335498E-16	1.069706E-17
4.489796E+03	4.352619E-16	1.070331E-17
4.499751E+03	4.371064E-16	1.071261E-17
4.509706E+03	4.389369E-16	1.072132E-17
4.519662E+03	4.408979E-16	1.073299E-17
4.529617E+03	4.428416E-16	1.074398E-17
4.539572E+03	4.449139E-16	1.075783E-17
4.549527E+03	4.469661E-16	1.077093E-17
4.559482E+03	4.491450E-16	1.078679E-17
4.569438E+03	4.513010E-16	1.080182E-17
4.579393E+03	4.535823E-16	1.081955E-17
4.589348E+03	4.558379E-16	1.083636E-17
4.599303E+03	4.582178E-16	1.085581E-17
4.609258E+03	4.605696E-16	1.087428E-17
4.619214E+03	4.630450E-16	1.089533E-17
4.629169E+03	4.654903E-16	1.091533E-17
4.639124E+03	4.680590E-16	1.093787E-17
4.649079E+03	4.705959E-16	1.095932E-17
4.659034E+03	4.731781E-16	1.098148E-17
4.668990E+03	4.758842E-16	1.100613E-17
4.678945E+03	4.785572E-16	1.102964E-17
4.688900E+03	4.813550E-16	1.105565E-17
4.698855E+03	4.841193E-16	1.108049E-17
4.708810E+03	4.869296E-16	1.110599E-17
4.718766E+03	4.898673E-16	1.113400E-17
4.728721E+03	4.927716E-16	1.116083E-17
4.738676E+03	4.958054E-16	1.119017E-17
4.748631E+03	4.988064E-16	1.121834E-17
4.758586E+03	5.018566E-16	1.124720E-17
4.768542E+03	5.049571E-16	1.127674E-17
4.778497E+03	5.081924E-16	1.130884E-17
4.788452E+03	5.113964E-16	1.133979E-17
4.798407E+03	5.146532E-16	1.137145E-17
4.808362E+03	5.180495E-16	1.140572E-17
4.818318E+03	5.214154E-16	1.143884E-17
4.828273E+03	5.248369E-16	1.147269E-17
4.838228E+03	5.283148E-16	1.150729E-17
4.848183E+03	5.319373E-16	1.154454E-17
4.858138E+03	5.355304E-16	1.158064E-17
4.868094E+03	5.391817E-16	1.161749E-17
4.878049E+03	5.428915E-16	1.165508E-17
4.888004E+03	5.467502E-16	1.169533E-17
4.897959E+03	5.505782E-16	1.173438E-17
4.907914E+03	5.544651E-16	1.177415E-17
4.917870E+03	5.584104E-16	1.181462E-17
4.927825E+03	5.624138E-16	1.185576E-17
4.937780E+03	5.665679E-16	1.189951E-17
4.947735E+03	5.706860E-16	1.194194E-17
4.957690E+03	5.748594E-16	1.198495E-17
4.967646E+03	5.790872E-16	1.202852E-17
4.977601E+03	5.833675E-16	1.207260E-17
4.987556E+03	5.876986E-16	1.211715E-17
4.997511E+03	5.920786E-16	1.216212E-17
5.007466E+03	5.965050E-16	1.220745E-17
5.017422E+03	6.009755E-16	1.225309E-17
5.027377E+03	6.055867E-16	1.230099E-17
5.037332E+03	6.101373E-16	1.234707E-17
5.047287E+03	6.147228E-16	1.239325E-17
5.057242E+03	6.193396E-16	1.243947E-17
5.067198E+03	6.239838E-16	1.248565E-17
5.077153E+03	6.286516E-16	1.253170E-17
5.087108E+03	6.333387E-16	1.257755E-17
5.097063E+03	6.380405E-16	1.262311E-17
5.107018E+03	6.427522E-16	1.266829E-17
5.116974E+03	6.474690E-16	1.271299E-17
5.126929E+03	6.521858E-16	1.275713E-17
5.136884E+03	6.568973E-16	1.280061E-17
5.146839E+03	6.615980E-16	1.284332E-17
5.156794E+03	6.662824E-16	1.288519E-17
5.166750E+03	6.709446E-16	1.292610E-17
5.176705E+03	6.754684E-16	1.296383E-17
5.186660E+03	6.800685E-16	1.300254E-17
5.196615E+03	6.846292E-16	1.304002E-17
5.206570E+03	6.891443E-16	1.307615E-17
5.216526E+03	6.936084E-16	1.311087E-17
5.226481E+03	6.980154E-16	1.314408E-17
5.236436E+03	7.023599E-16	1.317570E-17
5.246391E+03	7.066363E-16	1.320565E-17
5.256346E+03	7.107230E-16	1.323169E-17
5.266302E+03	7.148469E-16	1.325809E-17
5.276257E+03	7.188878E-16	1.328262E-17
5.286212E+03	7.228410E-16	1.330523E-17
5.296167E+03	7.267025E-16	1.332588E-17
5.306122E+03	7.304687E-16	1.334454E-17
5.316078E+03	7.340161E-16	1.335899E-17
5.326033E+03	7.375818E-16	1.337358E-17
5.335988E+03	7.410438E-16	1.338612E-17
5.345943E+03	7.444004E-16	1.339663E-17
5.355898E+03	7.475282E-16	1.340291E-17
5.365854E+03	7.506703E-16	1.340937E-17
5.375809E+03	7.537048E-16	1.341386E-17
5.385764E+03	7.565082E-16	1.341422E-17
5.395719E+03	7.593282E-16	1.341489E-17
5.405674E+03	7.620423E-16	1.341372E-17
5.415630E+03	7.646518E-16	1.341076E-17
5.425585E+03	7.670329E-16	1.340390E-17
5.435540E+03	7.694369E-16	1.339757E-17
5.445495E+03	7.717404E-16	1.338962E-17
5.455450E+03	7.738180E-16	1.337795E-17
5.465406E+03	7.759230E-16	1.336695E-17
5.475361E+03	7.778027E-16	1.335230E-17
5.485316E+03	7.797108E-16	1.333840E-17
5.495271E+03	7.815204E-16	1.332310E-17
5.505226E+03	7.831032E-16	1.330422E-17
5.515182E+03	7.847145E-16	1.328611E-17
5.525137E+03	7.860976E-16	1.326444E-17
5.535092E+03	7.875084E-16	1.324354E-17
5.545047E+03	7.886894E-16	1.321907E-17
5.555002E+03	7.898975E-16	1.319535E-17
5.564958E+03	7.910035E-16	1.317023E-17
5.574913E+03	7.918783E-16	1.314157E-17
5.584868E+03	7.927802E-16	1.311366E-17
5.594823E+03	7.934510E-16	1.308223E-17
5.604778E+03	7.941501E-16	1.305158E-17
5.614734E+03	7.946198E-16	1.301747E-17
5.624689E+03	7.949905E-16	1.298206E-17
5.634644E+03	7.953935E-16	1.294749E-17
5.644599E+03	7.955714E-16	1.290956E-17
5.654555E+03	7.957854E-16	1.287253E-17
5.664510E+03	7.957781E-16	1.283223E-17
5.674465E+03	7.958115E-16	1.279290E-17
5.684420E+03	7.956285E-16	1.275039E-17
5.694375E+03	7.954907E-16	1.270893E-17
5.704331E+03	7.951415E-16	1.266440E-17
5.714286E+03	7.947130E-16	1.261891E-17
5.724241E+03	7.943371E-16	1.257458E-17
5.734196E+03	7.937573E-16	1.252732E-17
5.744151E+03	7.931054E-16	1.247924E-17
5.754107E+03	7.925128E-16	1.243239E-17
5.764062E+03	7.917234E-16	1.238277E-17
5.774017E+03	7.908682E-16	1.233242E-17
5.783972E+03	7.900780E-16	1.228340E-17
5.793927E+03	7.890968E-16	1.223170E-17
5.803883E+03	7.880551E-16	1.217938E-17
5.813838E+03	7.870824E-16	1.212843E-17
5.823793E+03	7.859235E-16	1.207492E-17
5.833748E+03	7.847078E-16	1.202084E-17
5.843703E+03	7.834364E-16	1.196622E-17
5.853659E+03	7.822372E-16	1.191301E-17
5.863614E+03	7.808562E-16	1.185734E-17
5.873569E+03	7.794215E-16	1.180117E-17
5.883524E+03	7.779334E-16	1.174450E-17
5.893479E+03	7.765188E-16	1.168926E-17
5.903435E+03	7.749248E-16	1.163164E-17
5.913390E+03	7.732783E-16	1.157355E-17
5.923345E+03	7.715792E-16	1.151500E-17
5.933300E+03	7.698277E-16	1.145601E-17
5.943255E+03	7.681488E-16	1.139842E-17
5.953211E+03	7.662919E-16	1.133853E-17
5.963166E+03	7.643822E-16	1.127821E-17
5.973121E+03	7.624196E-16	1.121745E-17
5.983076E+03	7.604040E-16	1.115628E-17
5.993031E+03	7.583350E-16	1.109468E-17
6.002987E+03	7.563357E-16	1.103447E-17
6.012942E+03	7.541592E-16	1.097205E-17
6.022897E+03	7.519287E-16	1.090923E-17
6.032852E+03	7.496442E-16	1.084601E-17
6.042807E+03	7.473052E-16	1.078241E-17
6.052763E+03	7.449118E-16	1.071843E-17
6.062718E+03	7.424639E-16	1.065408E-17
6.072673E+03	7.399611E-16	1.058938E-17
6.082628E+03	7.374037E-16	1.052432E-17
6.092583E+03	7.347916E-16	1.045893E-17
6.102539E+03	7.321249E-16	1.039323E-17
6.112494E+03	7.294038E-16	1.032721E-17
6.122449E+03	7.266287E-16	1.026090E-17
6.132404E+03	7.237998E-16	1.019432E-17
6.142359E+03	7.209177E-16	1.012749E-17
6.152315E+03	7.179832E-16	1.006043E-17
6.162270E+03	7.149970E-16	9.993162E-18
6.172225E+03	7.119601E-16	9.925715E-18
6.182180E+03	7.088736E-16	9.858117E-18
6.192135E+03	7.057390E-16	9.790399E-18
6.202091E+03	7.025581E-16	9.722599E-18
6.212046E+03	6.993324E-16	9.654750E-18
6.222001E+03	6.960642E-16	9.586899E-18
6.231956E+03	6.927559E-16	9.519086E-18
6.241911E+03	6.894101E-16	9.451361E-18
6.251867E+03	6.860299E-16	9.383777E-18
6.261822E+03	6.826184E-16	9.316387E-18
6.271777E+03	6.791793E-16	9.249252E-18
6.281732E+03	6.757166E-16	9.182435E-18
6.291687E+03	6.722343E-16	9.116002E-18
6.301643E+03	6.687373E-16	9.050025E-18
6.311598E+03	6.652304E-16	8.984580E-18
6.321553E+03	6.616113E-16	8.918293E-18
6.331508E+03	6.581014E-16	8.854161E-18
6.341463E+03	6.545985E-16	8.790807E-18
6.351419E+03	6.511089E-16	8.728322E-18
6.361374E+03	6.476390E-16	8.666798E-18
6.371329E+03	6.441959E-16	8.606333E-18
6.381284E+03	6.406821E-16	8.545632E-18
6.391239E+03	6.373146E-16	8.487592E-18
6.401195E+03	6.339959E-16	8.430913E-18
6.411150E+03	6.307341E-16	8.375706E-18
6.421105E+03	6.275373E-16	8.322080E-18
6.431060E+03	6.244140E-16	8.270146E-18
6.441015E+03	6.212716E-16	8.218682E-18
6.450971E+03	6.183217E-16	8.170488E-18
6.460926E+03	6.154717E-16	8.124336E-18
6.470881E+03	6.127304E-16	8.080341E-18
6.480836E+03	6.100067E-16	8.037283E-18
6.490791E+03	6.075066E-16	7.997842E-18
6.500747E+03	6.051358E-16	7.960742E-18
6.510702E+03	6.028986E-16	7.926004E-18
6.520657E+03	6.006997E-16	7.892345E-18
6.530612E+03	5.987365E-16	7.862328E-18
6.540567E+03	5.969112E-16	7.834635E-18
6.550523E+03	5.952235E-16	7.809235E-18
6.560478E+03	5.935765E-16	7.784824E-18
6.570433E+03	5.921636E-16	7.763916E-18
6.580388E+03	5.908880E-16	7.745209E-18
6.590343E+03	5.896536E-16	7.727419E-18
6.600299E+03	5.886530E-16	7.713046E-18
6.610254E+03	5.877905E-16	7.700808E-18
6.620209E+03	5.869708E-16	7.689434E-18
6.630164E+03	5.863859E-16	7.681414E-18
6.640119E+03	5.859406E-16	7.675480E-18
6.650075E+03	5.855402E-16	7.670368E-18
6.660030E+03	5.853762E-16	7.668564E-18
6.669985E+03	5.853536E-16	7.668805E-18
6.679940E+03	5.853777E-16	7.669827E-18
6.689895E+03	5.856399E-16	7.674119E-18
6.699851E+03	5.859499E-16	7.679167E-18
6.709806E+03	5.864988E-16	7.687457E-18
6.719761E+03	5.871917E-16	7.697727E-18
6.729716E+03	5.879331E-16	7.708705E-18
6.739671E+03	5.889144E-16	7.722885E-18
6.749627E+03	5.899439E-16	7.737731E-18
6.759582E+03	5.912135E-16	7.755748E-18
6.769537E+03	5.926269E-16	7.775652E-18
6.779492E+03	5.940867E-16	7.796149E-18
6.789447E+03	5.957855E-16	7.819751E-18
6.799403E+03	5.975284E-16	7.843882E-18
6.809358E+03	5.995087E-16	7.871062E-18
6.819313E+03	6.015296E-16	7.898694E-18
6.829268E+03	6.037853E-16	7.929309E-18
6.839223E+03	6.060770E-16	7.960281E-18
6.849179E+03	6.085998E-16	7.994156E-18
6.859134E+03	6.111528E-16	8.028280E-18
6.869089E+03	6.139319E-16	8.065211E-18
6.879044E+03	6.167339E-16	8.102261E-18
6.889000E+03	6.197560E-16	8.142006E-18
6.898955E+03	6.227924E-16	8.181725E-18
6.908910E+03	6.260413E-16	8.224009E-18
6.918865E+03	6.292944E-16	8.266102E-18
6.928820E+03	6.327514E-16	8.310612E-18
6.938776E+03	6.362008E-16	8.354746E-18
6.948731E+03	6.398441E-16	8.401135E-18
6.958686E+03	6.434668E-16	8.446944E-18
6.968641E+03	6.472720E-16	8.494826E-18
6.978596E+03	6.510424E-16	8.541911E-18
6.988552E+03	6.549828E-16	8.590871E-18
6.998507E+03	6.588725E-16	8.638797E-18
7.008462E+03	6.628105E-16	8.686972E-18
7.018417E+03	6.668977E-16	8.736704E-18
7.028372E+03	6.709089E-16	8.785027E-18
7.038328E+03	6.750546E-16	8.834682E-18
7.048283E+03	6.791063E-16	8.882668E-18
7.058238E+03	6.831653E-16	8.930296E-18
7.068193E+03	6.873352E-16	8.978908E-18
7.078148E+03	6.913835E-16	9.025452E-18
7.088104E+03	6.955267E-16	9.072748E-18
7.098059E+03	6.995297E-16	9.117714E-18
7.108014E+03	7.034965E-16	9.161701E-18
7.117969E+03	7.075348E-16	9.206100E-18
7.127924E+03	7.114051E-16	9.247788E-18
7.137880E+03	7.152144E-16	9.288150E-18
7.147835E+03	7.190723E-16	9.328603E-18
7.157790E+03	7.227364E-16	9.365997E-18
7.167745E+03	7.263163E-16	9.401752E-18
7.177700E+03	7.299242E-16	9.437318E-18
7.187656E+03	7.333150E-16	9.469523E-18
7.197611E+03	7.366011E-16	9.499822E-18
7.207566E+03	7.398979E-16	9.529704E-18
7.217521E+03	7.429576E-16	9.555979E-18
7.227476E+03	7.458960E-16	9.580146E-18
7.237432E+03	7.488308E-16	9.603720E-18
7.247387E+03	7.515131E-16	9.623515E-18
7.257342E+03	7.540612E-16	9.641059E-18
7.267297E+03	7.564719E-16	9.656323E-18
7.277252E+03	7.588667E-16	9.670867E-18
7.287208E+03	7.609951E-16	9.681509E-18
7.297163E+03	7.629790E-16	9.689819E-18
7.307118E+03	7.648170E-16	9.695798E-18
7.317073E+03	7.666340E-16	9.701042E-18
7.327028E+03	7.681780E-16	9.702380E-18
7.336984E+03	7.695744E-16	9.701419E-18
7.346939E+03	7.708232E-16	9.698182E-18
7.356894E+03	7.720515E-16	9.694289E-18
7.366849E+03	7.730068E-16	9.686588E-18
7.376804E+03	7.738165E-16	9.676708E-18
7.386760E+03	7.744818E-16	9.664688E-18
7.396715E+03	7.750038E-16	9.650570E-18
7.406670E+03	7.755112E-16	9.635982E-18
7.416625E+03	7.757508E-16	9.617803E-18
7.426580E+03	7.758513E-16	9.597665E-18
7.436536E+03	7.758139E-16	9.575614E-18
7.446491E+03	7.756402E-16	9.551701E-18
7.456446E+03	7.753311E-16	9.525971E-18
7.466401E+03	7.750152E-16	9.500033E-18
7.476356E+03	7.744384E-16	9.470804E-18
7.486312E+03	7.737289E-16	9.439893E-18
7.496267E+03	7.728871E-16	9.407339E-18
7.506222E+03	7.719130E-16	9.373183E-18
7.516177E+03	7.708067E-16	9.337459E-18
7.526132E+03	7.695676E-16	9.300200E-18
7.536088E+03	7.683214E-16	9.262961E-18
7.546043E+03	7.668141E-16	9.222714E-18
7.555998E+03	7.651711E-16	9.181014E-18
7.565953E+03	7.633907E-16	9.137882E-18
7.575908E+03	7.614711E-16	9.093336E-18
7.585864E+03	7.594102E-16	9.047394E-18
7.595819E+03	7.572056E-16	9.000069E-18
7.605774E+03	7.548550E-16	8.951374E-18
7.615729E+03	7.523557E-16	8.901321E-18
7.625684E+03	7.497048E-16	8.849919E-18
7.635640E+03	7.468998E-16	8.797178E-18
7.645595E+03	7.439376E-16	8.743107E-18
7.655550E+03	7.409378E-16	8.689150E-18
7.665505E+03	7.376531E-16	8.632444E-18
7.675460E+03	7.342034E-16	8.574444E-18
7.685416E+03	7.305867E-16	8.515164E-18
7.695371E+03	7.268009E-16	8.454621E-18
7.705326E+03	7.228445E-16	8.392839E-18
7.715281E+03	7.187165E-16	8.329841E-18
7.725236E+03	7.144161E-16	8.265658E-18
