#wls	flux	fluxerr
1.576355E+03	1.136241E-17	3.310602E-22
1.615764E+03	1.202953E-17	3.504976E-22
1.655172E+03	1.267557E-17	3.693209E-22
1.694581E+03	1.329114E-17	3.872563E-22
1.733990E+03	1.386406E-17	4.039491E-22
1.773399E+03	1.436541E-17	4.185566E-22
1.812808E+03	1.475730E-17	4.299751E-22
1.852217E+03	1.499421E-17	4.368777E-22
1.891626E+03	1.502824E-17	4.378693E-22
1.931034E+03	1.482822E-17	4.320412E-22
1.970443E+03	1.440769E-17	4.197887E-22
2.009852E+03	1.386118E-17	4.038651E-22
2.049261E+03	1.338239E-17	3.899149E-22
2.088670E+03	1.323735E-17	3.856891E-22
2.128079E+03	1.368574E-17	3.987533E-22
2.167488E+03	1.490788E-17	4.343622E-22
2.206897E+03	1.696632E-17	4.943379E-22
2.246305E+03	1.981618E-17	5.773726E-22
2.285714E+03	2.335486E-17	6.804768E-22
2.325123E+03	2.746717E-17	8.002947E-22
2.364532E+03	3.205700E-17	9.340258E-22
2.403941E+03	3.706307E-17	1.079885E-21
2.443350E+03	4.245957E-17	1.237119E-21
2.482759E+03	4.825201E-17	1.405890E-21
2.522167E+03	5.446173E-17	1.586819E-21
2.561576E+03	6.112630E-17	1.781000E-21
2.600985E+03	6.828427E-17	1.989558E-21
2.640394E+03	7.596880E-17	2.213457E-21
2.679803E+03	8.421431E-17	2.453701E-21
2.719212E+03	9.303883E-17	2.710816E-21
2.758621E+03	1.024449E-16	2.984875E-21
2.798030E+03	1.124121E-16	3.275282E-21
2.837438E+03	1.228985E-16	3.580818E-21
2.876847E+03	1.338586E-16	3.900155E-21
2.916256E+03	1.452602E-16	4.232355E-21
2.955665E+03	1.570584E-16	4.576111E-21
2.965517E+03	1.600606E-16	4.663585E-21
2.975369E+03	1.630874E-16	4.751774E-21
2.985222E+03	1.661283E-16	4.840376E-21
2.995074E+03	1.691884E-16	4.929536E-21
3.004926E+03	1.722880E-16	5.019847E-21
3.014778E+03	1.754331E-16	5.111484E-21
3.024631E+03	1.786241E-16	5.204457E-21
3.034483E+03	1.818549E-16	5.298592E-21
3.044335E+03	1.851159E-16	5.393606E-21
3.054187E+03	1.884072E-16	5.489500E-21
3.064039E+03	1.917285E-16	5.586272E-21
3.073892E+03	1.950682E-16	5.683576E-21
3.083744E+03	1.984221E-16	5.781299E-21
3.093596E+03	2.017825E-16	5.879209E-21
3.103448E+03	2.051417E-16	5.977081E-21
3.113300E+03	2.084956E-16	6.074804E-21
3.123153E+03	2.118409E-16	6.172271E-21
3.133005E+03	2.151618E-16	6.269031E-21
3.142857E+03	2.184629E-16	6.365213E-21
3.152709E+03	2.217329E-16	6.460489E-21
3.162562E+03	2.249687E-16	6.554768E-21
3.172414E+03	2.281633E-16	6.647848E-21
3.182266E+03	2.313062E-16	6.739419E-21
3.192118E+03	2.344027E-16	6.829641E-21
3.201970E+03	2.374351E-16	6.917992E-21
3.211823E+03	2.404094E-16	7.004652E-21
3.221675E+03	2.433203E-16	7.089466E-21
3.231527E+03	2.461553E-16	7.172068E-21
3.241379E+03	2.489219E-16	7.252675E-21
3.251232E+03	2.516086E-16	7.330957E-21
3.261084E+03	2.542165E-16	7.406939E-21
3.270936E+03	2.567431E-16	7.480556E-21
3.280788E+03	2.591910E-16	7.551879E-21
3.290640E+03	2.615558E-16	7.620779E-21
3.300493E+03	2.638377E-16	7.687265E-21
3.310345E+03	2.660382E-16	7.751379E-21
3.316256E+03	2.384324E-16	6.947047E-21
3.318227E+03	2.406628E-16	7.012032E-21
3.320197E+03	2.412092E-16	7.027955E-21
3.322167E+03	2.430100E-16	7.080423E-21
3.324138E+03	2.463022E-16	7.176346E-21
3.326108E+03	2.465552E-16	7.183716E-21
3.328079E+03	2.489474E-16	7.253415E-21
3.330049E+03	2.506338E-16	7.302552E-21
3.332020E+03	2.509454E-16	7.311631E-21
3.333990E+03	2.513155E-16	7.322412E-21
3.335961E+03	2.506032E-16	7.301661E-21
3.337931E+03	2.482760E-16	7.233855E-21
3.339901E+03	2.466152E-16	7.185465E-21
3.341872E+03	2.461140E-16	7.170862E-21
3.343842E+03	2.448629E-16	7.134408E-21
3.345813E+03	2.423286E-16	7.060568E-21
3.347783E+03	2.417633E-16	7.044097E-21
3.349754E+03	2.420056E-16	7.051156E-21
3.351724E+03	2.419315E-16	7.048997E-21
3.353695E+03	2.434362E-16	7.092838E-21
3.355665E+03	2.418401E-16	7.046333E-21
3.357635E+03	2.443523E-16	7.119530E-21
3.359606E+03	2.438213E-16	7.104058E-21
3.361576E+03	2.483127E-16	7.234922E-21
3.363547E+03	2.534600E-16	7.384896E-21
3.365517E+03	2.568095E-16	7.482488E-21
3.367488E+03	2.622996E-16	7.642448E-21
3.369458E+03	2.645642E-16	7.708432E-21
3.371429E+03	2.624502E-16	7.646836E-21
3.373399E+03	2.612258E-16	7.611163E-21
3.375369E+03	2.587899E-16	7.540189E-21
3.377340E+03	2.591093E-16	7.549495E-21
3.379310E+03	2.600634E-16	7.577294E-21
3.381281E+03	2.609976E-16	7.604514E-21
3.383251E+03	2.633621E-16	7.673407E-21
3.385222E+03	2.677943E-16	7.802546E-21
3.387192E+03	2.712552E-16	7.903381E-21
3.389163E+03	2.716950E-16	7.916197E-21
3.391133E+03	2.762725E-16	8.049569E-21
3.393103E+03	2.817284E-16	8.208532E-21
3.395074E+03	2.826881E-16	8.236496E-21
3.397044E+03	2.816363E-16	8.205849E-21
3.399015E+03	2.863011E-16	8.341763E-21
3.400985E+03	2.909087E-16	8.476012E-21
3.402956E+03	2.912123E-16	8.484859E-21
3.404926E+03	2.953847E-16	8.606427E-21
3.406897E+03	2.967662E-16	8.646680E-21
3.408867E+03	2.975093E-16	8.668329E-21
3.410837E+03	2.974137E-16	8.665543E-21
3.412808E+03	2.973370E-16	8.663309E-21
3.414778E+03	2.948823E-16	8.591788E-21
3.416749E+03	2.946236E-16	8.584251E-21
3.418719E+03	2.949239E-16	8.593000E-21
3.420690E+03	2.967036E-16	8.644855E-21
3.422660E+03	2.969038E-16	8.650687E-21
3.424631E+03	2.976234E-16	8.671655E-21
3.426601E+03	2.990638E-16	8.713622E-21
3.428571E+03	3.023070E-16	8.808116E-21
3.430542E+03	3.051707E-16	8.891555E-21
3.432512E+03	3.075352E-16	8.960446E-21
3.434483E+03	3.088979E-16	9.000151E-21
3.436453E+03	3.108627E-16	9.057397E-21
3.438424E+03	3.128679E-16	9.115823E-21
3.440394E+03	3.138308E-16	9.143877E-21
3.442365E+03	3.128465E-16	9.115197E-21
3.444335E+03	3.110777E-16	9.063663E-21
3.446305E+03	3.119788E-16	9.089916E-21
3.448276E+03	3.128600E-16	9.115591E-21
3.450246E+03	3.101435E-16	9.036441E-21
3.452217E+03	3.089526E-16	9.001743E-21
3.454187E+03	3.112393E-16	9.068371E-21
3.456158E+03	3.120184E-16	9.091070E-21
3.458128E+03	3.144875E-16	9.163010E-21
3.460099E+03	3.162535E-16	9.214464E-21
3.462069E+03	3.159660E-16	9.206089E-21
3.464039E+03	3.162016E-16	9.212953E-21
3.466010E+03	3.165373E-16	9.222734E-21
3.467980E+03	3.190494E-16	9.295927E-21
3.469951E+03	3.209377E-16	9.350946E-21
3.471921E+03	3.207093E-16	9.344289E-21
3.473892E+03	3.233040E-16	9.419890E-21
3.475862E+03	3.234180E-16	9.423210E-21
3.477833E+03	3.230273E-16	9.411829E-21
3.479803E+03	3.231405E-16	9.415126E-21
3.481773E+03	3.223242E-16	9.391343E-21
3.483744E+03	3.218708E-16	9.378131E-21
3.485714E+03	3.232553E-16	9.418470E-21
3.487685E+03	3.234276E-16	9.423492E-21
3.489655E+03	3.233976E-16	9.422617E-21
3.491626E+03	3.236905E-16	9.431151E-21
3.493596E+03	3.245899E-16	9.457357E-21
3.495567E+03	3.264606E-16	9.511860E-21
3.497537E+03	3.253570E-16	9.479706E-21
3.499507E+03	3.249204E-16	9.466984E-21
3.501478E+03	3.244629E-16	9.453655E-21
3.503448E+03	3.250176E-16	9.469816E-21
3.505419E+03	3.254102E-16	9.481256E-21
3.507389E+03	3.290450E-16	9.587160E-21
3.509360E+03	3.278571E-16	9.552549E-21
3.511330E+03	3.274385E-16	9.540352E-21
3.513300E+03	3.261471E-16	9.502728E-21
3.515271E+03	3.248346E-16	9.464486E-21
3.517241E+03	3.220598E-16	9.383638E-21
3.519212E+03	3.190195E-16	9.295054E-21
3.521182E+03	3.167485E-16	9.228887E-21
3.523153E+03	3.180104E-16	9.265653E-21
3.525123E+03	3.174032E-16	9.247960E-21
3.527094E+03	3.176086E-16	9.253944E-21
3.529064E+03	3.177324E-16	9.257554E-21
3.531034E+03	3.172662E-16	9.243968E-21
3.533005E+03	3.171251E-16	9.239857E-21
3.534975E+03	3.148885E-16	9.174691E-21
3.536946E+03	3.171875E-16	9.241677E-21
3.538916E+03	3.173305E-16	9.245841E-21
3.540887E+03	3.170661E-16	9.238139E-21
3.542857E+03	3.173715E-16	9.247036E-21
3.544828E+03	3.170046E-16	9.236347E-21
3.546798E+03	3.141722E-16	9.153820E-21
3.548768E+03	3.123163E-16	9.099747E-21
3.550739E+03	3.127423E-16	9.112157E-21
3.552709E+03	3.126584E-16	9.109714E-21
3.554680E+03	3.124315E-16	9.103104E-21
3.556650E+03	3.113273E-16	9.070930E-21
3.558621E+03	3.100590E-16	9.033978E-21
3.560591E+03	3.079533E-16	8.972625E-21
3.562562E+03	3.080714E-16	8.976066E-21
3.564532E+03	3.069439E-16	8.943214E-21
3.566502E+03	3.072044E-16	8.950805E-21
3.568473E+03	3.082617E-16	8.981610E-21
3.570443E+03	3.095031E-16	9.017778E-21
3.572414E+03	3.118284E-16	9.085531E-21
3.574384E+03	3.122329E-16	9.097317E-21
3.576355E+03	3.129445E-16	9.118048E-21
3.578325E+03	3.149241E-16	9.175727E-21
3.580296E+03	3.165776E-16	9.223903E-21
3.582266E+03	3.171467E-16	9.240486E-21
3.584236E+03	3.165700E-16	9.223683E-21
3.586207E+03	3.151327E-16	9.181804E-21
3.588177E+03	3.130599E-16	9.121410E-21
3.590148E+03	3.125222E-16	9.105746E-21
3.592118E+03	3.116155E-16	9.079326E-21
3.594089E+03	3.104212E-16	9.044530E-21
3.596059E+03	3.076270E-16	8.963116E-21
3.598030E+03	3.058159E-16	8.910347E-21
3.600000E+03	3.049268E-16	8.884441E-21
3.601970E+03	3.037908E-16	8.851342E-21
3.603941E+03	3.027159E-16	8.820025E-21
3.605911E+03	2.992800E-16	8.719914E-21
3.607882E+03	2.963145E-16	8.633511E-21
3.609852E+03	2.951751E-16	8.600314E-21
3.611823E+03	2.948157E-16	8.589841E-21
3.613793E+03	2.946409E-16	8.584750E-21
3.615764E+03	2.948360E-16	8.590433E-21
3.617734E+03	2.951133E-16	8.598512E-21
3.619704E+03	2.947945E-16	8.589223E-21
3.621675E+03	2.947222E-16	8.587117E-21
3.623645E+03	2.951230E-16	8.598795E-21
3.625616E+03	2.965939E-16	8.641652E-21
3.627586E+03	2.971394E-16	8.657544E-21
3.629557E+03	2.973557E-16	8.663848E-21
3.631527E+03	2.975928E-16	8.670754E-21
3.633498E+03	2.990450E-16	8.713068E-21
3.635468E+03	3.011160E-16	8.773408E-21
3.637438E+03	3.040534E-16	8.858993E-21
3.639409E+03	3.066830E-16	8.935609E-21
3.641379E+03	3.098087E-16	9.026682E-21
3.643350E+03	3.107504E-16	9.054119E-21
3.645320E+03	3.128885E-16	9.116416E-21
3.647291E+03	3.156881E-16	9.197984E-21
3.649261E+03	3.199125E-16	9.321069E-21
3.651232E+03	3.234994E-16	9.425578E-21
3.653202E+03	3.262210E-16	9.504873E-21
3.655172E+03	3.277669E-16	9.549917E-21
3.657143E+03	3.304288E-16	9.627473E-21
3.659113E+03	3.332369E-16	9.709292E-21
3.661084E+03	3.337110E-16	9.723104E-21
3.663054E+03	3.338960E-16	9.728496E-21
3.665025E+03	3.342053E-16	9.737507E-21
3.666995E+03	3.362931E-16	9.798337E-21
3.668966E+03	3.377204E-16	9.839924E-21
3.670936E+03	3.369341E-16	9.817013E-21
3.672906E+03	3.365617E-16	9.806163E-21
3.674877E+03	3.362718E-16	9.797718E-21
3.676847E+03	3.370172E-16	9.819436E-21
3.678818E+03	3.347599E-16	9.753666E-21
3.680788E+03	3.324393E-16	9.686051E-21
3.682759E+03	3.317755E-16	9.666711E-21
3.684729E+03	3.276912E-16	9.547711E-21
3.686700E+03	3.256576E-16	9.488458E-21
3.688670E+03	3.225863E-16	9.398973E-21
3.690640E+03	3.179163E-16	9.262904E-21
3.692611E+03	3.132026E-16	9.125564E-21
3.694581E+03	3.094413E-16	9.015976E-21
3.696552E+03	3.062178E-16	8.922055E-21
3.698522E+03	3.019340E-16	8.797239E-21
3.700493E+03	2.961735E-16	8.629399E-21
3.702463E+03	2.914696E-16	8.492347E-21
3.704433E+03	2.856830E-16	8.323746E-21
3.706404E+03	2.778153E-16	8.094509E-21
3.708374E+03	2.705881E-16	7.883936E-21
3.710345E+03	2.627751E-16	7.656294E-21
3.712315E+03	2.556239E-16	7.447933E-21
3.714286E+03	2.483235E-16	7.235226E-21
3.716256E+03	2.416021E-16	7.039392E-21
3.718227E+03	2.350648E-16	6.848918E-21
3.720197E+03	2.296278E-16	6.690503E-21
3.722167E+03	2.251876E-16	6.561134E-21
3.724138E+03	2.207662E-16	6.432308E-21
3.726108E+03	2.155716E-16	6.280957E-21
3.728079E+03	2.104369E-16	6.131353E-21
3.730049E+03	2.044242E-16	5.956164E-21
3.732020E+03	1.994511E-16	5.811265E-21
3.733990E+03	1.945589E-16	5.668725E-21
3.735961E+03	1.890029E-16	5.506845E-21
3.737931E+03	1.837530E-16	5.353882E-21
3.739901E+03	1.787030E-16	5.206742E-21
3.741872E+03	1.742329E-16	5.076501E-21
3.743842E+03	1.694264E-16	4.936459E-21
3.745813E+03	1.651962E-16	4.813205E-21
3.747783E+03	1.628841E-16	4.745839E-21
3.749754E+03	1.609220E-16	4.688671E-21
3.751724E+03	1.573638E-16	4.584998E-21
3.753695E+03	1.554809E-16	4.530138E-21
3.755665E+03	1.564272E-16	4.557709E-21
3.757635E+03	1.561417E-16	4.549390E-21
3.759606E+03	1.560193E-16	4.545825E-21
3.761576E+03	1.563847E-16	4.556471E-21
3.763547E+03	1.559652E-16	4.544246E-21
3.765517E+03	1.562659E-16	4.553010E-21
3.767488E+03	1.577150E-16	4.595230E-21
3.769458E+03	1.586933E-16	4.623735E-21
3.771429E+03	1.596492E-16	4.651587E-21
3.773399E+03	1.598593E-16	4.657707E-21
3.775369E+03	1.611559E-16	4.695485E-21
3.777340E+03	1.617673E-16	4.713299E-21
3.779310E+03	1.634366E-16	4.761938E-21
3.781281E+03	1.654386E-16	4.820266E-21
3.783251E+03	1.689154E-16	4.921569E-21
3.785222E+03	1.707982E-16	4.976427E-21
3.787192E+03	1.722053E-16	5.017424E-21
3.789163E+03	1.728610E-16	5.036528E-21
3.791133E+03	1.754150E-16	5.110941E-21
3.793103E+03	1.786726E-16	5.205855E-21
3.795074E+03	1.806766E-16	5.264244E-21
3.797044E+03	1.827785E-16	5.325487E-21
3.799015E+03	1.850289E-16	5.391056E-21
3.800985E+03	1.876995E-16	5.468866E-21
3.802956E+03	1.911063E-16	5.568127E-21
3.804926E+03	1.937359E-16	5.644745E-21
3.806897E+03	1.944882E-16	5.666665E-21
3.808867E+03	1.964862E-16	5.724879E-21
3.810837E+03	1.996909E-16	5.818250E-21
3.812808E+03	2.029754E-16	5.913948E-21
3.814778E+03	2.057662E-16	5.995263E-21
3.816749E+03	2.082128E-16	6.066548E-21
3.818719E+03	2.113571E-16	6.158160E-21
3.820690E+03	2.144335E-16	6.247796E-21
3.822660E+03	2.189050E-16	6.378079E-21
3.824631E+03	2.225345E-16	6.483828E-21
3.826601E+03	2.276868E-16	6.633947E-21
3.828571E+03	2.322083E-16	6.765686E-21
3.830542E+03	2.358448E-16	6.871641E-21
3.832512E+03	2.401599E-16	6.997368E-21
3.834483E+03	2.443296E-16	7.118856E-21
3.836453E+03	2.493054E-16	7.263832E-21
3.838424E+03	2.537552E-16	7.393483E-21
3.840394E+03	2.596044E-16	7.563907E-21
3.842365E+03	2.645891E-16	7.709143E-21
3.844335E+03	2.680310E-16	7.809426E-21
3.846305E+03	2.714961E-16	7.910387E-21
3.848276E+03	2.761710E-16	8.046596E-21
3.850246E+03	2.799586E-16	8.156952E-21
3.852217E+03	2.837696E-16	8.267991E-21
3.854187E+03	2.881555E-16	8.395780E-21
3.856158E+03	2.926713E-16	8.527353E-21
3.858128E+03	2.964684E-16	8.637988E-21
3.860099E+03	3.011380E-16	8.774042E-21
3.862069E+03	3.064049E-16	8.927499E-21
3.864039E+03	3.101459E-16	9.036499E-21
3.866010E+03	3.140380E-16	9.149898E-21
3.867980E+03	3.191648E-16	9.299275E-21
3.869951E+03	3.245074E-16	9.454939E-21
3.871921E+03	3.293214E-16	9.595200E-21
3.873892E+03	3.341386E-16	9.735556E-21
3.875862E+03	3.375761E-16	9.835711E-21
3.877833E+03	3.423348E-16	9.974363E-21
3.879803E+03	3.447340E-16	1.004427E-20
3.881773E+03	3.458782E-16	1.007760E-20
3.883744E+03	3.488977E-16	1.016558E-20
3.885714E+03	3.513866E-16	1.023810E-20
3.887685E+03	3.534083E-16	1.029700E-20
3.889655E+03	3.542586E-16	1.032178E-20
3.891626E+03	3.565812E-16	1.038945E-20
3.893596E+03	3.596515E-16	1.047891E-20
3.895567E+03	3.615081E-16	1.053300E-20
3.897537E+03	3.635788E-16	1.059333E-20
3.899507E+03	3.670388E-16	1.069414E-20
3.901478E+03	3.704371E-16	1.079316E-20
3.903448E+03	3.717440E-16	1.083124E-20
3.905419E+03	3.741843E-16	1.090234E-20
3.907389E+03	3.771389E-16	1.098842E-20
3.909360E+03	3.795613E-16	1.105900E-20
3.911330E+03	3.822847E-16	1.113835E-20
3.913300E+03	3.851169E-16	1.122087E-20
3.915271E+03	3.887212E-16	1.132589E-20
3.917241E+03	3.929483E-16	1.144905E-20
3.919212E+03	3.978423E-16	1.159164E-20
3.921182E+03	4.011969E-16	1.168938E-20
3.923153E+03	4.036755E-16	1.176160E-20
3.925123E+03	4.081489E-16	1.189194E-20
3.927094E+03	4.126682E-16	1.202361E-20
3.929064E+03	4.157746E-16	1.211412E-20
3.931034E+03	4.185615E-16	1.219532E-20
3.933005E+03	4.213504E-16	1.227658E-20
3.934975E+03	4.240552E-16	1.235539E-20
3.936946E+03	4.268690E-16	1.243737E-20
3.938916E+03	4.280953E-16	1.247310E-20
3.940887E+03	4.289359E-16	1.249759E-20
3.942857E+03	4.313029E-16	1.256656E-20
3.944828E+03	4.336502E-16	1.263495E-20
3.946798E+03	4.354613E-16	1.268772E-20
3.948768E+03	4.365853E-16	1.272047E-20
3.950739E+03	4.370433E-16	1.273381E-20
3.952709E+03	4.370925E-16	1.273525E-20
3.954680E+03	4.369699E-16	1.273167E-20
3.956650E+03	4.368686E-16	1.272872E-20
3.958621E+03	4.359918E-16	1.270317E-20
3.960591E+03	4.355459E-16	1.269018E-20
3.962562E+03	4.340217E-16	1.264577E-20
3.964532E+03	4.329710E-16	1.261516E-20
3.966502E+03	4.316611E-16	1.257700E-20
3.968473E+03	4.309115E-16	1.255515E-20
3.970443E+03	4.290173E-16	1.249996E-20
3.972414E+03	4.270145E-16	1.244161E-20
3.974384E+03	4.239087E-16	1.235112E-20
3.976355E+03	4.188136E-16	1.220267E-20
3.978325E+03	4.144500E-16	1.207553E-20
3.980296E+03	4.105378E-16	1.196154E-20
3.982266E+03	4.073586E-16	1.186891E-20
3.984236E+03	4.023819E-16	1.172391E-20
3.986207E+03	3.975537E-16	1.158323E-20
3.988177E+03	3.924628E-16	1.143490E-20
3.990148E+03	3.881268E-16	1.130857E-20
3.992118E+03	3.849141E-16	1.121496E-20
3.994089E+03	3.813530E-16	1.111120E-20
3.996059E+03	3.777029E-16	1.100485E-20
3.998030E+03	3.753512E-16	1.093633E-20
4.000000E+03	3.717406E-16	1.083113E-20
4.001970E+03	3.676068E-16	1.071069E-20
4.003941E+03	3.643170E-16	1.061484E-20
4.005911E+03	3.613508E-16	1.052841E-20
4.007882E+03	3.581004E-16	1.043371E-20
4.009852E+03	3.545438E-16	1.033008E-20
4.011823E+03	3.532448E-16	1.029223E-20
4.013793E+03	3.536186E-16	1.030312E-20
4.015764E+03	3.526013E-16	1.027348E-20
4.017734E+03	3.513008E-16	1.023559E-20
4.019704E+03	3.517616E-16	1.024902E-20
4.021675E+03	3.509824E-16	1.022632E-20
4.023645E+03	3.512038E-16	1.023277E-20
4.025616E+03	3.503150E-16	1.020687E-20
4.027586E+03	3.503406E-16	1.020762E-20
4.029557E+03	3.517395E-16	1.024837E-20
4.031527E+03	3.517436E-16	1.024849E-20
4.033498E+03	3.509413E-16	1.022512E-20
4.035468E+03	3.504875E-16	1.021190E-20
4.037438E+03	3.508188E-16	1.022155E-20
4.039409E+03	3.519363E-16	1.025411E-20
4.041379E+03	3.522903E-16	1.026442E-20
4.043350E+03	3.529503E-16	1.028365E-20
4.045320E+03	3.529337E-16	1.028317E-20
4.047291E+03	3.525452E-16	1.027185E-20
4.049261E+03	3.510853E-16	1.022931E-20
4.051232E+03	3.503682E-16	1.020842E-20
4.053202E+03	3.505256E-16	1.021300E-20
4.055172E+03	3.493047E-16	1.017743E-20
4.057143E+03	3.482140E-16	1.014565E-20
4.059113E+03	3.488308E-16	1.016362E-20
4.061084E+03	3.496672E-16	1.018799E-20
4.063054E+03	3.496493E-16	1.018747E-20
4.065025E+03	3.493906E-16	1.017993E-20
4.066995E+03	3.476844E-16	1.013022E-20
4.068966E+03	3.470740E-16	1.011244E-20
4.070936E+03	3.468579E-16	1.010614E-20
4.072906E+03	3.446662E-16	1.004228E-20
4.074877E+03	3.439884E-16	1.002253E-20
4.076847E+03	3.443643E-16	1.003349E-20
4.078818E+03	3.432464E-16	1.000091E-20
4.080788E+03	3.419738E-16	9.963835E-21
4.082759E+03	3.407006E-16	9.926739E-21
4.084729E+03	3.405917E-16	9.923566E-21
4.086700E+03	3.409450E-16	9.933861E-21
4.088670E+03	3.410122E-16	9.935819E-21
4.090640E+03	3.402652E-16	9.914053E-21
4.092611E+03	3.395178E-16	9.892276E-21
4.094581E+03	3.399592E-16	9.905140E-21
4.096552E+03	3.409957E-16	9.935339E-21
4.098522E+03	3.418567E-16	9.960424E-21
4.100493E+03	3.429165E-16	9.991302E-21
4.102463E+03	3.439331E-16	1.002092E-20
4.104433E+03	3.443321E-16	1.003255E-20
4.106404E+03	3.440477E-16	1.002426E-20
4.108374E+03	3.438730E-16	1.001917E-20
4.110345E+03	3.435883E-16	1.001087E-20
4.112315E+03	3.439216E-16	1.002059E-20
4.114286E+03	3.441004E-16	1.002580E-20
4.116256E+03	3.447877E-16	1.004582E-20
4.118227E+03	3.446351E-16	1.004138E-20
4.120197E+03	3.431773E-16	9.998900E-21
4.122167E+03	3.417408E-16	9.957046E-21
4.124138E+03	3.410776E-16	9.937724E-21
4.126108E+03	3.407465E-16	9.928075E-21
4.128079E+03	3.404814E-16	9.920351E-21
4.130049E+03	3.393741E-16	9.888090E-21
4.132020E+03	3.389532E-16	9.875825E-21
4.133990E+03	3.396183E-16	9.895203E-21
4.135961E+03	3.395519E-16	9.893268E-21
4.137931E+03	3.391525E-16	9.881634E-21
4.139901E+03	3.379318E-16	9.846066E-21
4.141872E+03	3.375094E-16	9.833759E-21
4.143842E+03	3.371533E-16	9.823383E-21
4.145813E+03	3.365970E-16	9.807174E-21
4.147783E+03	3.360846E-16	9.792246E-21
4.149754E+03	3.353496E-16	9.770830E-21
4.151724E+03	3.338135E-16	9.726074E-21
4.153695E+03	3.326323E-16	9.691657E-21
4.155665E+03	3.316727E-16	9.663698E-21
4.157635E+03	3.316695E-16	9.663605E-21
4.159606E+03	3.312209E-16	9.650535E-21
4.161576E+03	3.313065E-16	9.653030E-21
4.163547E+03	3.314144E-16	9.656172E-21
4.165517E+03	3.307868E-16	9.637885E-21
4.167488E+03	3.299357E-16	9.613088E-21
4.169458E+03	3.312027E-16	9.650003E-21
4.171429E+03	3.320688E-16	9.675238E-21
4.173399E+03	3.327792E-16	9.695937E-21
4.175369E+03	3.332667E-16	9.710142E-21
4.177340E+03	3.343574E-16	9.741921E-21
4.179310E+03	3.333936E-16	9.713839E-21
4.181281E+03	3.346413E-16	9.750191E-21
