#wls	flux	fluxerr
1.576355E+03	5.268997E-19	2.510018E-20
1.615764E+03	5.401779E-19	2.560318E-20
1.655172E+03	5.504219E-19	2.595365E-20
1.694581E+03	5.573589E-19	2.614083E-20
1.733990E+03	5.605248E-19	2.614537E-20
1.773399E+03	5.590463E-19	2.592958E-20
1.812808E+03	5.519492E-19	2.545217E-20
1.852217E+03	5.381361E-19	2.466743E-20
1.891626E+03	5.166735E-19	2.353858E-20
1.931034E+03	4.876781E-19	2.207770E-20
1.970443E+03	4.525027E-19	2.035260E-20
2.009852E+03	4.151457E-19	1.854801E-20
2.049261E+03	3.816503E-19	1.693470E-20
2.088670E+03	3.589473E-19	1.581513E-20
2.128079E+03	3.523985E-19	1.541412E-20
2.167488E+03	3.642185E-19	1.581246E-20
2.206897E+03	3.929340E-19	1.692845E-20
2.246305E+03	4.350080E-19	1.859343E-20
2.285714E+03	4.856711E-19	2.059071E-20
2.325123E+03	5.404138E-19	2.272068E-20
2.364532E+03	5.960972E-19	2.484700E-20
2.403941E+03	6.502798E-19	2.686658E-20
2.443350E+03	7.019534E-19	2.873862E-20
2.482759E+03	7.506235E-19	3.044473E-20
2.522167E+03	7.960838E-19	3.197900E-20
2.561576E+03	8.386841E-19	3.335807E-20
2.600985E+03	8.785249E-19	3.458836E-20
2.640394E+03	9.159700E-19	3.568651E-20
2.679803E+03	9.511192E-19	3.665848E-20
2.719212E+03	9.843033E-19	3.751900E-20
2.758621E+03	1.015696E-18	3.827642E-20
2.798030E+03	1.045444E-18	3.893788E-20
2.837438E+03	1.073817E-18	3.951484E-20
2.876847E+03	1.100938E-18	4.001305E-20
2.916256E+03	1.126930E-18	4.043818E-20
2.955665E+03	1.151790E-18	4.079122E-20
2.965517E+03	1.157880E-18	4.087014E-20
2.975369E+03	1.164012E-18	4.094863E-20
2.985222E+03	1.170045E-18	4.102170E-20
2.995074E+03	1.176014E-18	4.109058E-20
3.004926E+03	1.182173E-18	4.116418E-20
3.014778E+03	1.188639E-18	4.124642E-20
3.024631E+03	1.195089E-18	4.132610E-20
3.034483E+03	1.201797E-18	4.141258E-20
3.044335E+03	1.208723E-18	4.150440E-20
3.054187E+03	1.215748E-18	4.159744E-20
3.064039E+03	1.222848E-18	4.169085E-20
3.073892E+03	1.230150E-18	4.178884E-20
3.083744E+03	1.237489E-18	4.188582E-20
3.093596E+03	1.244997E-18	4.198619E-20
3.103448E+03	1.252517E-18	4.208458E-20
3.113300E+03	1.260185E-18	4.218558E-20
3.123153E+03	1.267848E-18	4.228400E-20
3.133005E+03	1.275502E-18	4.237970E-20
3.142857E+03	1.283291E-18	4.247747E-20
3.152709E+03	1.291216E-18	4.257729E-20
3.162562E+03	1.298986E-18	4.266949E-20
3.172414E+03	1.307046E-18	4.276875E-20
3.182266E+03	1.315109E-18	4.286557E-20
3.192118E+03	1.323184E-18	4.296021E-20
3.201970E+03	1.331428E-18	4.305780E-20
3.211823E+03	1.339706E-18	4.315389E-20
3.221675E+03	1.348182E-18	4.325372E-20
3.231527E+03	1.356722E-18	4.335295E-20
3.241379E+03	1.365495E-18	4.345690E-20
3.251232E+03	1.374371E-18	4.356135E-20
3.261084E+03	1.383520E-18	4.367168E-20
3.270936E+03	1.392817E-18	4.378381E-20
3.280788E+03	1.402437E-18	4.390314E-20
3.290640E+03	1.412256E-18	4.402573E-20
3.300493E+03	1.422454E-18	4.415703E-20
3.310345E+03	1.432909E-18	4.429318E-20
3.320197E+03	1.443806E-18	4.443969E-20
3.330049E+03	1.455026E-18	4.459279E-20
3.339901E+03	1.466756E-18	4.475806E-20
3.349754E+03	1.478881E-18	4.493178E-20
3.359606E+03	1.491592E-18	4.511958E-20
3.369458E+03	1.504778E-18	4.531785E-20
3.379310E+03	1.518632E-18	4.553225E-20
3.389163E+03	1.533046E-18	4.575921E-20
3.399015E+03	1.548218E-18	4.600446E-20
3.408867E+03	1.564198E-18	4.626912E-20
3.418719E+03	1.580879E-18	4.654971E-20
3.428571E+03	1.598310E-18	4.684740E-20
3.438424E+03	1.616700E-18	4.716801E-20
3.448276E+03	1.636106E-18	4.751276E-20
3.458128E+03	1.656423E-18	4.787823E-20
3.467980E+03	1.677707E-18	4.826567E-20
3.477833E+03	1.700179E-18	4.868096E-20
3.487685E+03	1.723900E-18	4.912539E-20
3.497537E+03	1.748768E-18	4.959557E-20
3.507389E+03	1.775011E-18	5.009745E-20
3.517241E+03	1.802528E-18	5.062762E-20
3.527094E+03	1.831552E-18	5.119209E-20
3.536946E+03	1.861982E-18	5.178744E-20
3.546798E+03	1.894062E-18	5.241983E-20
3.556650E+03	1.927700E-18	5.308605E-20
3.566502E+03	1.963155E-18	5.379258E-20
3.576355E+03	2.000336E-18	5.453618E-20
3.586207E+03	2.039512E-18	5.532345E-20
3.596059E+03	2.080592E-18	5.615113E-20
3.605911E+03	2.123856E-18	5.702591E-20
3.615764E+03	2.169401E-18	5.794956E-20
3.625616E+03	2.217138E-18	5.891869E-20
3.635468E+03	2.267161E-18	5.993496E-20
3.645320E+03	2.319771E-18	6.100529E-20
3.655172E+03	2.374873E-18	6.212617E-20
3.665025E+03	2.432779E-18	6.330471E-20
3.674877E+03	2.493608E-18	6.454278E-20
3.684729E+03	2.557045E-18	6.583112E-20
3.694581E+03	2.623853E-18	6.718818E-20
3.704433E+03	2.693719E-18	6.860466E-20
3.714286E+03	2.766760E-18	7.008222E-20
3.724138E+03	2.843328E-18	7.162848E-20
3.733990E+03	2.923320E-18	7.323939E-20
3.743842E+03	3.007101E-18	7.492271E-20
3.753695E+03	3.094560E-18	7.667414E-20
3.763547E+03	3.186081E-18	7.850166E-20
3.773399E+03	3.281544E-18	8.040070E-20
3.783251E+03	3.381072E-18	8.237268E-20
3.793103E+03	3.485075E-18	8.442595E-20
3.802956E+03	3.593416E-18	8.655539E-20
3.812808E+03	3.706509E-18	8.876921E-20
3.822660E+03	3.824206E-18	9.106206E-20
3.832512E+03	3.946938E-18	9.344230E-20
3.842365E+03	4.074544E-18	9.590419E-20
3.852217E+03	4.207140E-18	9.844857E-20
3.862069E+03	4.345176E-18	1.010840E-19
3.871921E+03	4.488458E-18	1.038039E-19
3.881773E+03	4.637101E-18	1.066089E-19
3.891626E+03	4.791570E-18	1.095077E-19
3.901478E+03	4.951628E-18	1.124926E-19
3.911330E+03	5.117763E-18	1.155727E-19
3.921182E+03	5.289312E-18	1.187308E-19
3.931034E+03	5.467142E-18	1.219843E-19
3.940887E+03	5.651364E-18	1.253334E-19
3.950739E+03	5.841246E-18	1.287597E-19
3.960591E+03	6.037689E-18	1.322810E-19
3.970443E+03	6.240353E-18	1.358875E-19
3.980296E+03	6.449748E-18	1.395882E-19
3.990148E+03	6.665489E-18	1.433726E-19
4.000000E+03	6.887132E-18	1.472291E-19
4.009852E+03	7.115661E-18	1.511766E-19
4.019704E+03	7.351142E-18	1.552144E-19
4.029557E+03	7.592577E-18	1.593193E-19
4.039409E+03	7.841002E-18	1.635112E-19
4.049261E+03	8.095897E-18	1.677773E-19
4.059113E+03	8.357243E-18	1.721152E-19
4.068966E+03	8.625005E-18	1.765225E-19
4.078818E+03	8.899130E-18	1.809963E-19
4.088670E+03	9.179561E-18	1.855339E-19
4.098522E+03	9.466842E-18	1.901448E-19
4.108374E+03	9.759638E-18	1.948004E-19
4.118227E+03	1.005910E-17	1.995226E-19
4.128079E+03	1.036378E-17	2.042815E-19
4.137931E+03	1.067485E-17	2.090990E-19
4.147783E+03	1.099148E-17	2.139576E-19
4.157635E+03	1.131270E-17	2.188381E-19
4.167488E+03	1.163970E-17	2.237627E-19
4.177340E+03	1.197149E-17	2.287119E-19
4.187192E+03	1.230696E-17	2.336642E-19
4.197044E+03	1.264729E-17	2.386420E-19
4.206897E+03	1.299049E-17	2.436080E-19
4.216749E+03	1.333770E-17	2.485839E-19
4.226601E+03	1.368675E-17	2.535301E-19
4.236453E+03	1.403789E-17	2.584519E-19
4.246305E+03	1.439047E-17	2.633387E-19
4.256158E+03	1.474377E-17	2.681789E-19
4.266010E+03	1.509701E-17	2.729600E-19
4.275862E+03	1.544932E-17	2.776687E-19
4.285714E+03	1.579886E-17	2.822741E-19
4.295567E+03	1.614556E-17	2.867784E-19
4.305419E+03	1.648849E-17	2.911679E-19
4.315271E+03	1.682671E-17	2.954299E-19
4.325123E+03	1.715842E-17	2.995365E-19
4.334975E+03	1.748514E-17	3.035183E-19
4.344828E+03	1.780469E-17	3.073416E-19
4.354680E+03	1.811707E-17	3.110108E-19
4.364532E+03	1.842452E-17	3.145687E-19
4.374384E+03	1.872518E-17	3.179875E-19
4.384236E+03	1.901930E-17	3.212758E-19
4.394089E+03	1.930935E-17	3.244794E-19
4.403941E+03	1.959234E-17	3.275519E-19
4.413793E+03	1.987187E-17	3.305573E-19
4.423645E+03	2.014597E-17	3.334668E-19
4.433498E+03	2.041601E-17	3.363065E-19
4.443350E+03	2.068103E-17	3.390644E-19
4.453202E+03	2.094234E-17	3.417656E-19
4.463054E+03	2.120008E-17	3.444151E-19
4.472906E+03	2.145315E-17	3.469974E-19
4.482759E+03	2.170156E-17	3.495151E-19
4.492611E+03	2.194649E-17	3.519891E-19
4.502463E+03	2.218785E-17	3.544205E-19
4.512315E+03	2.242433E-17	3.567897E-19
4.522167E+03	2.265569E-17	3.590955E-19
4.532020E+03	2.288290E-17	3.613551E-19
4.541872E+03	2.310441E-17	3.635459E-19
4.551724E+03	2.332105E-17	3.656830E-19
4.561576E+03	2.353236E-17	3.677609E-19
4.571429E+03	2.373531E-17	3.697341E-19
4.581281E+03	2.393177E-17	3.716339E-19
4.591133E+03	2.412108E-17	3.734518E-19
4.600985E+03	2.430124E-17	3.751586E-19
4.610837E+03	2.447147E-17	3.767441E-19
4.620690E+03	2.463224E-17	3.782176E-19
4.630542E+03	2.478151E-17	3.795494E-19
4.640394E+03	2.491860E-17	3.807311E-19
4.650246E+03	2.504428E-17	3.817758E-19
4.660099E+03	2.515713E-17	3.826636E-19
4.669951E+03	2.525889E-17	3.834224E-19
4.679803E+03	2.534899E-17	3.840447E-19
4.689655E+03	2.542828E-17	3.845445E-19
4.699507E+03	2.549774E-17	3.849374E-19
4.709360E+03	2.555962E-17	3.852582E-19
4.719212E+03	2.561364E-17	3.855030E-19
4.729064E+03	2.566079E-17	3.856870E-19
4.738916E+03	2.570327E-17	3.858438E-19
4.748768E+03	2.574072E-17	3.859675E-19
4.758621E+03	2.577396E-17	3.860710E-19
4.768473E+03	2.580508E-17	3.861852E-19
4.778325E+03	2.583356E-17	3.863020E-19
4.788177E+03	2.586008E-17	3.864317E-19
4.798030E+03	2.588530E-17	3.865838E-19
4.807882E+03	2.591109E-17	3.867859E-19
4.817734E+03	2.593548E-17	3.870076E-19
4.827586E+03	2.596280E-17	3.873121E-19
4.837438E+03	2.598973E-17	3.876486E-19
4.847291E+03	2.601923E-17	3.880602E-19
4.857143E+03	2.605044E-17	3.885326E-19
4.866995E+03	2.608373E-17	3.890699E-19
4.876847E+03	2.611941E-17	3.896759E-19
4.886700E+03	2.615904E-17	3.903725E-19
4.896552E+03	2.620164E-17	3.911437E-19
4.906404E+03	2.624742E-17	3.919917E-19
4.916256E+03	2.629661E-17	3.929188E-19
4.926108E+03	2.635064E-17	3.939452E-19
4.935961E+03	2.640843E-17	3.950539E-19
4.945813E+03	2.647011E-17	3.962458E-19
4.955665E+03	2.653708E-17	3.975409E-19
4.965517E+03	2.660694E-17	3.989022E-19
4.975369E+03	2.668230E-17	4.003680E-19
4.985222E+03	2.676325E-17	4.019390E-19
4.995074E+03	2.684737E-17	4.035778E-19
5.004926E+03	2.693724E-17	4.053225E-19
5.014778E+03	2.703166E-17	4.071543E-19
5.024631E+03	2.713070E-17	4.090736E-19
5.034483E+03	2.723441E-17	4.110804E-19
5.044335E+03	2.734412E-17	4.131941E-19
5.054187E+03	2.745860E-17	4.153956E-19
5.064039E+03	2.757789E-17	4.176849E-19
5.073892E+03	2.770331E-17	4.200815E-19
5.083744E+03	2.783363E-17	4.225662E-19
5.093596E+03	2.796887E-17	4.251386E-19
5.103448E+03	2.810906E-17	4.277989E-19
5.113300E+03	2.825551E-17	4.305665E-19
5.123153E+03	2.840694E-17	4.334215E-19
5.133005E+03	2.856335E-17	4.363635E-19
5.142857E+03	2.872472E-17	4.393917E-19
5.152709E+03	2.889234E-17	4.425256E-19
5.162562E+03	2.906486E-17	4.457440E-19
5.172414E+03	2.924220E-17	4.490457E-19
5.182266E+03	2.942562E-17	4.524492E-19
5.192118E+03	2.961365E-17	4.559320E-19
5.201970E+03	2.980613E-17	4.594913E-19
5.211823E+03	3.000424E-17	4.631448E-19
5.221675E+03	3.020638E-17	4.668676E-19
5.231527E+03	3.041225E-17	4.706551E-19
5.241379E+03	3.062290E-17	4.745227E-19
5.251232E+03	3.083654E-17	4.784427E-19
5.261084E+03	3.105267E-17	4.824071E-19
5.270936E+03	3.127075E-17	4.864070E-19
5.280788E+03	3.149155E-17	4.904541E-19
5.290640E+03	3.171436E-17	4.945372E-19
5.300493E+03	3.193552E-17	4.985985E-19
5.310345E+03	3.215695E-17	5.026680E-19
5.320197E+03	3.237623E-17	5.067070E-19
5.330049E+03	3.259368E-17	5.107203E-19
5.339901E+03	3.280665E-17	5.146658E-19
5.349754E+03	3.301530E-17	5.185449E-19
5.359606E+03	3.321680E-17	5.223123E-19
5.369458E+03	3.340973E-17	5.259446E-19
5.379310E+03	3.359265E-17	5.294180E-19
5.389163E+03	3.376567E-17	5.327334E-19
5.399015E+03	3.392753E-17	5.358695E-19
5.408867E+03	3.407559E-17	5.387837E-19
5.418719E+03	3.420919E-17	5.414643E-19
5.428571E+03	3.432865E-17	5.439152E-19
5.438424E+03	3.443774E-17	5.461951E-19
5.448276E+03	3.453271E-17	5.482438E-19
5.458128E+03	3.461769E-17	5.501255E-19
5.467980E+03	3.469220E-17	5.518322E-19
5.477833E+03	3.475894E-17	5.534061E-19
5.487685E+03	3.481903E-17	5.548647E-19
5.497537E+03	3.487050E-17	5.561755E-19
5.507389E+03	3.491905E-17	5.574297E-19
5.517241E+03	3.496106E-17	5.585688E-19
5.527094E+03	3.500058E-17	5.596575E-19
5.536946E+03	3.503853E-17	5.607101E-19
5.546798E+03	3.507416E-17	5.617149E-19
5.556650E+03	3.510982E-17	5.627094E-19
5.566502E+03	3.514464E-17	5.636796E-19
5.576355E+03	3.518083E-17	5.646611E-19
5.586207E+03	3.521742E-17	5.656385E-19
5.596059E+03	3.525648E-17	5.666453E-19
5.605911E+03	3.529692E-17	5.676641E-19
5.615764E+03	3.534071E-17	5.687271E-19
5.625616E+03	3.538664E-17	5.698151E-19
5.635468E+03	3.543660E-17	5.709587E-19
5.645320E+03	3.548927E-17	5.721372E-19
5.655172E+03	3.554643E-17	5.733798E-19
5.665025E+03	3.560665E-17	5.746639E-19
5.674877E+03	3.567324E-17	5.760431E-19
5.684729E+03	3.574149E-17	5.774424E-19
5.694581E+03	3.581461E-17	5.789138E-19
5.704433E+03	3.589257E-17	5.804576E-19
5.714286E+03	3.597533E-17	5.820736E-19
5.724138E+03	3.606115E-17	5.837346E-19
5.733990E+03	3.614990E-17	5.854388E-19
5.743842E+03	3.624299E-17	5.872099E-19
5.753695E+03	3.634019E-17	5.890450E-19
5.763547E+03	3.644125E-17	5.909404E-19
5.773399E+03	3.654423E-17	5.928659E-19
5.783251E+03	3.665042E-17	5.948431E-19
5.793103E+03	3.675783E-17	5.968404E-19
5.802956E+03	3.686770E-17	5.988786E-19
5.812808E+03	3.697959E-17	6.009520E-19
5.822660E+03	3.709145E-17	6.030275E-19
5.832512E+03	3.720443E-17	6.051252E-19
5.842365E+03	3.731807E-17	6.072385E-19
5.852217E+03	3.743020E-17	6.093329E-19
5.862069E+03	3.754198E-17	6.114284E-19
5.871921E+03	3.765289E-17	6.135176E-19
5.881773E+03	3.776070E-17	6.155651E-19
5.891626E+03	3.786657E-17	6.175908E-19
5.901478E+03	3.796993E-17	6.195866E-19
5.911330E+03	3.806851E-17	6.215166E-19
5.921182E+03	3.816514E-17	6.234280E-19
5.931034E+03	3.825582E-17	6.252564E-19
5.940887E+03	3.833990E-17	6.269925E-19
5.950739E+03	3.842019E-17	6.286833E-19
5.960591E+03	3.849257E-17	6.302623E-19
5.970443E+03	3.855805E-17	6.317473E-19
5.980296E+03	3.861416E-17	6.330987E-19
5.990148E+03	3.866354E-17	6.343610E-19
6.000000E+03	3.870189E-17	6.354644E-19
6.009852E+03	3.873000E-17	6.364229E-19
6.019704E+03	3.874687E-17	6.372208E-19
6.029557E+03	3.874967E-17	6.378126E-19
6.039409E+03	3.873901E-17	6.382086E-19
6.049261E+03	3.871364E-17	6.383892E-19
6.059113E+03	3.867233E-17	6.383341E-19
6.068966E+03	3.861383E-17	6.380235E-19
6.078818E+03	3.853529E-17	6.374101E-19
6.088670E+03	3.843756E-17	6.365080E-19
6.098522E+03	3.832012E-17	6.353085E-19
6.108374E+03	3.818321E-17	6.338147E-19
6.118227E+03	3.802815E-17	6.320458E-19
6.128079E+03	3.785491E-17	6.299990E-19
6.137931E+03	3.766886E-17	6.277609E-19
6.147783E+03	3.746856E-17	6.253055E-19
6.157635E+03	3.725774E-17	6.226925E-19
6.167488E+03	3.703829E-17	6.199513E-19
6.177340E+03	3.681032E-17	6.170816E-19
6.187192E+03	3.657881E-17	6.141651E-19
6.197044E+03	3.634191E-17	6.111687E-19
6.206897E+03	3.610427E-17	6.081691E-19
6.216749E+03	3.586379E-17	6.051293E-19
6.226601E+03	3.562319E-17	6.020937E-19
6.236453E+03	3.538342E-17	5.990771E-19
6.246305E+03	3.514533E-17	5.960924E-19
6.256158E+03	3.490804E-17	5.931241E-19
6.266010E+03	3.467542E-17	5.902364E-19
6.275862E+03	3.444483E-17	5.873838E-19
6.285714E+03	3.421993E-17	5.846278E-19
6.295567E+03	3.399798E-17	5.819210E-19
6.305419E+03	3.378092E-17	5.792957E-19
6.315271E+03	3.356903E-17	5.767564E-19
6.325123E+03	3.336257E-17	5.743069E-19
6.334975E+03	3.316172E-17	5.719500E-19
6.344828E+03	3.296664E-17	5.696881E-19
6.354680E+03	3.277744E-17	5.675228E-19
6.364532E+03	3.259270E-17	5.654293E-19
6.374384E+03	3.241550E-17	5.634607E-19
6.384236E+03	3.224435E-17	5.615910E-19
6.394089E+03	3.207776E-17	5.597944E-19
6.403941E+03	3.191871E-17	5.581224E-19
6.413793E+03	3.176420E-17	5.565229E-19
6.423645E+03	3.161714E-17	5.550466E-19
6.433498E+03	3.147454E-17	5.536412E-19
6.443350E+03	3.133779E-17	5.523312E-19
6.453202E+03	3.120832E-17	5.511416E-19
6.463054E+03	3.108311E-17	5.500197E-19
6.472906E+03	3.096356E-17	5.489901E-19
6.482759E+03	3.084961E-17	5.480515E-19
6.492611E+03	3.074261E-17	5.472287E-19
6.502463E+03	3.063964E-17	5.464696E-19
6.512315E+03	3.054206E-17	5.457987E-19
6.522167E+03	3.044984E-17	5.452156E-19
6.532020E+03	3.036293E-17	5.447198E-19
6.541872E+03	3.028273E-17	5.443366E-19
6.551724E+03	3.020639E-17	5.440150E-19
6.561576E+03	3.013530E-17	5.437805E-19
6.571429E+03	3.006950E-17	5.436339E-19
6.581281E+03	3.000900E-17	5.435760E-19
6.591133E+03	2.995527E-17	5.436336E-19
6.600985E+03	2.990554E-17	5.437568E-19
6.610837E+03	2.986129E-17	5.439733E-19
6.620690E+03	2.982263E-17	5.442850E-19
6.630542E+03	2.978966E-17	5.446945E-19
6.640394E+03	2.976393E-17	5.452306E-19
6.650246E+03	2.974275E-17	5.458446E-19
6.660099E+03	2.972770E-17	5.465661E-19
6.669951E+03	2.972038E-17	5.474247E-19
6.679803E+03	2.971812E-17	5.483726E-19
6.689655E+03	2.972255E-17	5.494400E-19
6.699507E+03	2.973530E-17	5.506579E-19
6.709360E+03	2.975376E-17	5.519786E-19
6.719212E+03	2.978097E-17	5.534595E-19
6.729064E+03	2.981434E-17	5.550531E-19
6.738916E+03	2.985693E-17	5.568173E-19
6.748768E+03	2.990614E-17	5.587043E-19
6.758621E+03	2.996502E-17	5.607724E-19
6.768473E+03	3.003095E-17	5.629732E-19
6.778325E+03	3.010701E-17	5.653656E-19
6.788177E+03	3.019050E-17	5.678999E-19
6.798030E+03	3.028451E-17	5.706353E-19
6.807882E+03	3.038777E-17	5.735491E-19
6.817734E+03	3.049895E-17	5.766170E-19
6.827586E+03	3.062110E-17	5.798983E-19
6.837438E+03	3.075287E-17	5.833684E-19
6.847291E+03	3.089283E-17	5.870016E-19
6.857143E+03	3.104402E-17	5.908566E-19
6.866995E+03	3.120495E-17	5.949067E-19
6.876847E+03	3.137561E-17	5.991531E-19
6.886700E+03	3.155597E-17	6.035962E-19
6.896552E+03	3.174438E-17	6.082061E-19
6.906404E+03	3.194379E-17	6.130408E-19
6.916256E+03	3.215253E-17	6.180696E-19
6.926108E+03	3.237041E-17	6.232903E-19
6.935961E+03	3.259721E-17	6.287001E-19
6.945813E+03	3.283107E-17	6.342646E-19
6.955665E+03	3.307488E-17	6.400413E-19
6.965517E+03	3.332672E-17	6.459946E-19
6.975369E+03	3.358626E-17	6.521192E-19
6.985222E+03	3.385309E-17	6.584095E-19
6.995074E+03	3.412515E-17	6.648262E-19
7.004926E+03	3.440530E-17	6.714271E-19
7.014778E+03	3.469144E-17	6.781726E-19
7.024631E+03	3.498307E-17	6.850544E-19
7.034483E+03	3.527795E-17	6.920306E-19
7.044335E+03	3.557900E-17	6.991596E-19
7.054187E+03	3.588395E-17	7.063988E-19
7.064039E+03	3.619045E-17	7.137033E-19
7.073892E+03	3.650148E-17	7.211336E-19
7.083744E+03	3.681286E-17	7.286084E-19
7.093596E+03	3.712759E-17	7.361889E-19
7.103448E+03	3.744140E-17	7.437919E-19
7.113300E+03	3.775548E-17	7.514425E-19
7.123153E+03	3.806917E-17	7.591293E-19
7.133005E+03	3.838372E-17	7.668783E-19
7.142857E+03	3.869466E-17	7.746021E-19
7.152709E+03	3.900318E-17	7.823256E-19
7.162562E+03	3.930856E-17	7.900361E-19
7.172414E+03	3.961009E-17	7.977202E-19
7.182266E+03	3.990500E-17	8.053235E-19
7.192118E+03	4.019648E-17	8.129116E-19
7.201970E+03	4.047971E-17	8.203882E-19
7.211823E+03	4.075787E-17	8.278185E-19
7.221675E+03	4.102600E-17	8.351030E-19
7.231527E+03	4.128520E-17	8.422646E-19
7.241379E+03	4.153657E-17	8.493266E-19
7.251232E+03	4.177491E-17	8.561831E-19
7.261084E+03	4.199908E-17	8.628112E-19
7.270936E+03	4.221214E-17	8.692733E-19
7.280788E+03	4.241076E-17	8.755012E-19
7.290640E+03	4.259149E-17	8.814234E-19
7.300493E+03	4.275509E-17	8.870546E-19
7.310345E+03	4.290228E-17	8.924090E-19
7.320197E+03	4.302723E-17	8.973642E-19
7.330049E+03	4.312833E-17	9.018846E-19
7.339901E+03	4.320831E-17	9.060253E-19
7.349754E+03	4.326334E-17	9.097037E-19
7.359606E+03	4.328957E-17	9.128357E-19
7.369458E+03	4.328762E-17	9.154308E-19
7.379310E+03	4.325607E-17	9.174551E-19
7.389163E+03	4.319376E-17	9.188793E-19
7.399015E+03	4.309770E-17	9.196352E-19
7.408867E+03	4.297248E-17	9.198149E-19
7.418719E+03	4.281507E-17	9.193488E-19
7.428571E+03	4.262947E-17	9.183167E-19
7.438424E+03	4.241770E-17	9.167568E-19
7.448276E+03	4.217974E-17	9.146624E-19
7.458128E+03	4.192211E-17	9.121676E-19
7.467980E+03	4.164265E-17	9.092186E-19
7.477833E+03	4.134558E-17	9.059008E-19
7.487685E+03	4.103071E-17	9.022039E-19
7.497537E+03	4.070411E-17	8.982552E-19
7.507389E+03	4.036324E-17	8.939930E-19
7.517241E+03	4.001173E-17	8.894927E-19
7.527094E+03	3.965100E-17	8.847808E-19
7.536946E+03	3.928029E-17	8.798353E-19
7.546798E+03	3.890280E-17	8.747234E-19
7.556650E+03	3.851956E-17	8.694642E-19
7.566502E+03	3.813150E-17	8.640748E-19
7.576355E+03	3.773746E-17	8.585253E-19
7.586207E+03	3.734212E-17	8.529186E-19
7.596059E+03	3.694221E-17	8.471770E-19
7.605911E+03	3.653836E-17	8.413113E-19
7.615764E+03	3.613489E-17	8.354184E-19
7.625616E+03	3.572847E-17	8.294185E-19
7.635468E+03	3.532139E-17	8.233623E-19
7.645320E+03	3.491216E-17	8.172124E-19
