#wls	flux	fluxerr
1.576355E+03	4.464944E-19	1.308095E-20
1.615764E+03	4.560783E-19	1.331532E-20
1.655172E+03	4.628272E-19	1.346413E-20
1.694581E+03	4.666979E-19	1.352692E-20
1.733990E+03	4.671733E-19	1.348966E-20
1.773399E+03	4.638137E-19	1.334076E-20
1.812808E+03	4.556310E-19	1.305323E-20
1.852217E+03	4.418819E-19	1.260756E-20
1.891626E+03	4.219009E-19	1.198688E-20
1.931034E+03	3.958388E-19	1.119786E-20
1.970443E+03	3.650514E-19	1.028110E-20
2.009852E+03	3.327326E-19	9.328192E-21
2.049261E+03	3.038164E-19	8.477651E-21
2.088670E+03	2.837386E-19	7.879332E-21
2.128079E+03	2.764938E-19	7.640225E-21
2.167488E+03	2.834896E-19	7.793800E-21
2.206897E+03	3.034349E-19	8.298687E-21
2.246305E+03	3.330542E-19	9.060017E-21
2.285714E+03	3.685388E-19	9.970227E-21
2.325123E+03	4.063675E-19	1.093161E-20
2.364532E+03	4.439148E-19	1.187250E-20
2.403941E+03	4.796191E-19	1.275115E-20
2.443350E+03	5.124867E-19	1.354181E-20
2.482759E+03	5.422876E-19	1.423949E-20
2.522167E+03	5.691287E-19	1.484820E-20
2.561576E+03	5.931060E-19	1.537164E-20
2.600985E+03	6.144711E-19	1.581753E-20
2.640394E+03	6.334977E-19	1.619401E-20
2.679803E+03	6.504567E-19	1.650902E-20
2.719212E+03	6.656065E-19	1.677003E-20
2.758621E+03	6.792989E-19	1.698667E-20
2.798030E+03	6.916662E-19	1.716294E-20
2.837438E+03	7.029396E-19	1.730516E-20
2.876847E+03	7.134610E-19	1.742223E-20
2.916256E+03	7.232569E-19	1.751514E-20
2.955665E+03	7.328047E-19	1.759572E-20
2.965517E+03	7.352341E-19	1.761590E-20
2.975369E+03	7.375462E-19	1.763287E-20
2.985222E+03	7.399667E-19	1.765203E-20
2.995074E+03	7.424095E-19	1.767132E-20
3.004926E+03	7.449470E-19	1.769246E-20
3.014778E+03	7.475421E-19	1.771455E-20
3.024631E+03	7.504000E-19	1.774242E-20
3.034483E+03	7.533999E-19	1.777320E-20
3.044335E+03	7.565191E-19	1.780631E-20
3.054187E+03	7.598889E-19	1.784483E-20
3.064039E+03	7.632729E-19	1.788317E-20
3.073892E+03	7.667718E-19	1.792368E-20
3.083744E+03	7.703776E-19	1.796615E-20
3.093596E+03	7.741966E-19	1.801305E-20
3.103448E+03	7.781112E-19	1.806160E-20
3.113300E+03	7.820033E-19	1.810905E-20
3.123153E+03	7.860991E-19	1.816064E-20
3.133005E+03	7.902842E-19	1.821368E-20
3.142857E+03	7.945596E-19	1.826819E-20
3.152709E+03	7.988116E-19	1.832155E-20
3.162562E+03	8.032747E-19	1.837911E-20
3.172414E+03	8.079550E-19	1.844098E-20
3.182266E+03	8.126251E-19	1.850196E-20
3.192118E+03	8.174082E-19	1.856483E-20
3.201970E+03	8.223121E-19	1.862975E-20
3.211823E+03	8.274647E-19	1.869959E-20
3.221675E+03	8.326391E-19	1.876920E-20
3.231527E+03	8.380845E-19	1.884417E-20
3.241379E+03	8.435734E-19	1.891935E-20
3.251232E+03	8.493591E-19	1.900039E-20
3.261084E+03	8.553359E-19	1.908490E-20
3.270936E+03	8.615188E-19	1.917316E-20
3.280788E+03	8.678011E-19	1.926278E-20
3.290640E+03	8.744447E-19	1.935952E-20
3.300493E+03	8.813451E-19	1.946103E-20
3.310345E+03	8.886470E-19	1.957044E-20
3.320197E+03	8.961208E-19	1.968263E-20
3.330049E+03	9.039122E-19	1.980077E-20
3.339901E+03	9.120437E-19	1.992529E-20
3.349754E+03	9.206676E-19	2.005945E-20
3.359606E+03	9.295526E-19	2.019814E-20
3.369458E+03	9.389835E-19	2.034746E-20
3.379310E+03	9.487278E-19	2.050232E-20
3.389163E+03	9.590771E-19	2.066892E-20
3.399015E+03	9.699321E-19	2.084504E-20
3.408867E+03	9.813255E-19	2.103127E-20
3.418719E+03	9.931555E-19	2.122534E-20
3.428571E+03	1.005730E-18	2.143374E-20
3.438424E+03	1.018953E-18	2.165428E-20
3.448276E+03	1.032864E-18	2.188769E-20
3.458128E+03	1.047506E-18	2.213476E-20
3.467980E+03	1.063069E-18	2.239935E-20
3.477833E+03	1.079313E-18	2.267624E-20
3.487685E+03	1.096429E-18	2.296932E-20
3.497537E+03	1.114469E-18	2.327952E-20
3.507389E+03	1.133640E-18	2.361095E-20
3.517241E+03	1.153691E-18	2.395823E-20
3.527094E+03	1.174987E-18	2.432874E-20
3.536946E+03	1.197269E-18	2.471690E-20
3.546798E+03	1.220913E-18	2.513027E-20
3.556650E+03	1.245648E-18	2.556304E-20
3.566502E+03	1.271859E-18	2.602287E-20
3.576355E+03	1.299435E-18	2.650727E-20
3.586207E+03	1.328433E-18	2.701710E-20
3.596059E+03	1.358908E-18	2.755321E-20
3.605911E+03	1.390732E-18	2.811278E-20
3.615764E+03	1.424328E-18	2.870406E-20
3.625616E+03	1.459575E-18	2.932433E-20
3.635468E+03	1.496539E-18	2.997454E-20
3.645320E+03	1.535282E-18	3.065567E-20
3.655172E+03	1.575873E-18	3.136875E-20
3.665025E+03	1.618593E-18	3.211902E-20
3.674877E+03	1.663097E-18	3.289927E-20
3.684729E+03	1.709667E-18	3.371473E-20
3.694581E+03	1.758382E-18	3.456658E-20
3.704433E+03	1.809557E-18	3.546060E-20
3.714286E+03	1.862813E-18	3.638896E-20
3.724138E+03	1.918466E-18	3.735740E-20
3.733990E+03	1.976859E-18	3.837219E-20
3.743842E+03	2.037583E-18	3.942490E-20
3.753695E+03	2.100980E-18	4.052172E-20
3.763547E+03	2.167426E-18	4.166939E-20
3.773399E+03	2.236474E-18	4.285881E-20
3.783251E+03	2.308789E-18	4.410224E-20
3.793103E+03	2.383899E-18	4.539009E-20
3.802956E+03	2.462506E-18	4.673522E-20
3.812808E+03	2.544429E-18	4.813357E-20
3.822660E+03	2.629445E-18	4.958040E-20
3.832512E+03	2.718323E-18	5.108959E-20
3.842365E+03	2.810502E-18	5.264999E-20
3.852217E+03	2.906793E-18	5.427617E-20
3.862069E+03	3.006970E-18	5.596323E-20
3.871921E+03	3.110761E-18	5.770548E-20
3.881773E+03	3.219047E-18	5.951861E-20
3.891626E+03	3.331569E-18	6.139708E-20
3.901478E+03	3.448012E-18	6.333443E-20
3.911330E+03	3.569333E-18	6.534755E-20
3.921182E+03	3.695225E-18	6.743005E-20
3.931034E+03	3.825805E-18	6.958328E-20
3.940887E+03	3.960682E-18	7.179947E-20
3.950739E+03	4.100918E-18	7.409715E-20
3.960591E+03	4.246137E-18	7.646866E-20
3.970443E+03	4.395891E-18	7.890524E-20
3.980296E+03	4.551324E-18	8.142667E-20
3.990148E+03	4.711989E-18	8.402413E-20
4.000000E+03	4.877354E-18	8.668743E-20
4.009852E+03	5.048650E-18	8.943768E-20
4.019704E+03	5.225343E-18	9.226463E-20
4.029557E+03	5.406820E-18	9.515673E-20
4.039409E+03	5.594382E-18	9.813618E-20
4.049261E+03	5.787404E-18	1.011913E-19
4.059113E+03	5.985159E-18	1.043086E-19
4.068966E+03	6.189033E-18	1.075116E-19
4.078818E+03	6.397518E-18	1.107736E-19
4.088670E+03	6.612066E-18	1.141190E-19
4.098522E+03	6.831026E-18	1.175187E-19
4.108374E+03	7.055900E-18	1.209981E-19
4.118227E+03	7.284901E-18	1.245259E-19
4.128079E+03	7.519588E-18	1.281285E-19
4.137931E+03	7.758018E-18	1.317722E-19
4.147783E+03	8.000850E-18	1.354681E-19
4.157635E+03	8.248836E-18	1.392284E-19
4.167488E+03	8.499791E-18	1.430161E-19
4.177340E+03	8.754381E-18	1.468423E-19
4.187192E+03	9.012292E-18	1.507016E-19
4.197044E+03	9.274278E-18	1.546066E-19
4.206897E+03	9.537829E-18	1.585155E-19
4.216749E+03	9.803621E-18	1.624397E-19
4.226601E+03	1.007124E-17	1.663725E-19
4.236453E+03	1.034024E-17	1.703072E-19
4.246305E+03	1.061019E-17	1.742367E-19
4.256158E+03	1.088061E-17	1.781538E-19
4.266010E+03	1.114973E-17	1.820301E-19
4.275862E+03	1.141960E-17	1.858998E-19
4.285714E+03	1.168845E-17	1.897350E-19
4.295567E+03	1.195579E-17	1.935281E-19
4.305419E+03	1.221971E-17	1.972495E-19
4.315271E+03	1.248249E-17	2.009368E-19
4.325123E+03	1.274083E-17	2.045381E-19
4.334975E+03	1.299717E-17	2.080937E-19
4.344828E+03	1.324818E-17	2.115515E-19
4.354680E+03	1.349497E-17	2.149304E-19
4.364532E+03	1.373875E-17	2.182511E-19
4.374384E+03	1.397615E-17	2.214612E-19
4.384236E+03	1.420841E-17	2.245819E-19
4.394089E+03	1.443531E-17	2.276110E-19
4.403941E+03	1.465663E-17	2.305464E-19
4.413793E+03	1.487218E-17	2.333867E-19
4.423645E+03	1.508011E-17	2.361042E-19
4.433498E+03	1.528366E-17	2.387510E-19
4.443350E+03	1.548105E-17	2.413008E-19
4.453202E+03	1.567045E-17	2.437263E-19
4.463054E+03	1.585529E-17	2.460824E-19
4.472906E+03	1.603202E-17	2.483148E-19
4.482759E+03	1.620418E-17	2.504798E-19
4.492611E+03	1.636820E-17	2.525229E-19
4.502463E+03	1.652590E-17	2.544734E-19
4.512315E+03	1.667733E-17	2.563331E-19
4.522167E+03	1.682257E-17	2.581040E-19
4.532020E+03	1.696172E-17	2.597884E-19
4.541872E+03	1.709489E-17	2.613889E-19
4.551724E+03	1.722220E-17	2.629083E-19
4.561576E+03	1.734189E-17	2.643203E-19
4.571429E+03	1.745794E-17	2.656864E-19
4.581281E+03	1.756670E-17	2.669517E-19
4.591133E+03	1.767028E-17	2.681487E-19
4.600985E+03	1.777083E-17	2.693108E-19
4.610837E+03	1.786470E-17	2.703831E-19
4.620690E+03	1.795405E-17	2.713991E-19
4.630542E+03	1.803914E-17	2.723627E-19
4.640394E+03	1.812021E-17	2.732782E-19
4.650246E+03	1.819555E-17	2.741202E-19
4.660099E+03	1.826932E-17	2.749518E-19
4.669951E+03	1.833978E-17	2.757470E-19
4.679803E+03	1.840514E-17	2.764792E-19
4.689655E+03	1.846759E-17	2.771816E-19
4.699507E+03	1.852933E-17	2.778875E-19
4.709360E+03	1.858659E-17	2.785405E-19
4.719212E+03	1.864158E-17	2.791739E-19
4.729064E+03	1.869452E-17	2.797911E-19
4.738916E+03	1.874562E-17	2.803957E-19
4.748768E+03	1.879313E-17	2.809613E-19
4.758621E+03	1.884128E-17	2.815516E-19
4.768473E+03	1.888630E-17	2.821101E-19
4.778325E+03	1.893245E-17	2.827007E-19
4.788177E+03	1.897594E-17	2.832668E-19
4.798030E+03	1.901903E-17	2.838422E-19
4.807882E+03	1.906196E-17	2.844306E-19
4.817734E+03	1.910496E-17	2.850355E-19
4.827586E+03	1.914828E-17	2.856604E-19
4.837438E+03	1.919215E-17	2.863084E-19
4.847291E+03	1.923477E-17	2.869526E-19
4.857143E+03	1.928041E-17	2.876566E-19
4.866995E+03	1.932523E-17	2.883628E-19
4.876847E+03	1.937147E-17	2.891045E-19
4.886700E+03	1.941933E-17	2.898846E-19
4.896552E+03	1.946900E-17	2.907058E-19
4.906404E+03	1.952067E-17	2.915705E-19
4.916256E+03	1.957451E-17	2.924814E-19
4.926108E+03	1.963068E-17	2.934408E-19
4.935961E+03	1.968728E-17	2.944200E-19
4.945813E+03	1.974858E-17	2.954827E-19
4.955665E+03	1.981057E-17	2.965691E-19
4.965517E+03	1.987545E-17	2.977117E-19
4.975369E+03	1.994334E-17	2.989124E-19
4.985222E+03	2.001433E-17	3.001724E-19
4.995074E+03	2.008852E-17	3.014932E-19
5.004926E+03	2.016599E-17	3.028759E-19
5.014778E+03	2.024470E-17	3.042899E-19
5.024631E+03	2.032891E-17	3.057994E-19
5.034483E+03	2.041446E-17	3.073413E-19
5.044335E+03	2.050348E-17	3.089481E-19
5.054187E+03	2.059813E-17	3.106523E-19
5.064039E+03	2.069417E-17	3.123897E-19
5.073892E+03	2.079369E-17	3.141924E-19
5.083744E+03	2.089455E-17	3.160275E-19
5.093596E+03	2.100101E-17	3.179598E-19
5.103448E+03	2.111087E-17	3.199562E-19
5.113300E+03	2.122190E-17	3.219826E-19
5.123153E+03	2.133618E-17	3.240707E-19
5.133005E+03	2.145584E-17	3.262530E-19
5.142857E+03	2.157635E-17	3.284608E-19
5.152709E+03	2.169980E-17	3.307259E-19
5.162562E+03	2.182382E-17	3.330120E-19
5.172414E+03	2.195271E-17	3.353850E-19
5.182266E+03	2.208408E-17	3.378084E-19
5.192118E+03	2.221546E-17	3.402445E-19
5.201970E+03	2.235120E-17	3.427597E-19
5.211823E+03	2.248649E-17	3.452808E-19
5.221675E+03	2.262339E-17	3.478391E-19
5.231527E+03	2.276164E-17	3.504306E-19
5.241379E+03	2.290098E-17	3.530512E-19
5.251232E+03	2.304112E-17	3.556968E-19
5.261084E+03	2.318177E-17	3.583625E-19
5.270936E+03	2.332024E-17	3.610070E-19
5.280788E+03	2.346096E-17	3.636986E-19
5.290640E+03	2.359884E-17	3.663583E-19
5.300493E+03	2.373594E-17	3.690178E-19
5.310345E+03	2.387434E-17	3.717097E-19
5.320197E+03	2.400887E-17	3.743532E-19
5.330049E+03	2.414162E-17	3.769806E-19
5.339901E+03	2.426980E-17	3.795481E-19
5.349754E+03	2.439804E-17	3.821277E-19
5.359606E+03	2.452356E-17	3.846759E-19
5.369458E+03	2.464360E-17	3.871489E-19
5.379310E+03	2.476290E-17	3.896208E-19
5.389163E+03	2.487623E-17	3.920090E-19
5.399015E+03	2.498589E-17	3.943494E-19
5.408867E+03	2.509173E-17	3.966392E-19
5.418719E+03	2.519366E-17	3.988765E-19
5.428571E+03	2.529160E-17	4.010597E-19
5.438424E+03	2.538554E-17	4.031883E-19
5.448276E+03	2.547294E-17	4.052213E-19
5.458128E+03	2.555898E-17	4.072409E-19
5.467980E+03	2.563862E-17	4.091663E-19
5.477833E+03	2.571716E-17	4.110817E-19
5.487685E+03	2.578955E-17	4.129061E-19
5.497537E+03	2.585857E-17	4.146834E-19
5.507389E+03	2.592443E-17	4.164165E-19
5.517241E+03	2.598733E-17	4.181087E-19
5.527094E+03	2.604750E-17	4.197632E-19
5.536946E+03	2.610519E-17	4.213836E-19
5.546798E+03	2.616063E-17	4.229735E-19
5.556650E+03	2.621144E-17	4.244941E-19
5.566502E+03	2.626314E-17	4.260344E-19
5.576355E+03	2.631069E-17	4.275125E-19
5.586207E+03	2.635697E-17	4.289751E-19
5.596059E+03	2.640487E-17	4.304692E-19
5.605911E+03	2.644931E-17	4.319115E-19
5.615764E+03	2.649316E-17	4.333489E-19
5.625616E+03	2.653661E-17	4.347845E-19
5.635468E+03	2.657987E-17	4.362215E-19
5.645320E+03	2.662041E-17	4.376184E-19
5.655172E+03	2.666376E-17	4.390658E-19
5.665025E+03	2.670737E-17	4.405222E-19
5.674877E+03	2.674868E-17	4.419450E-19
5.684729E+03	2.679048E-17	4.433803E-19
5.694581E+03	2.683555E-17	4.448740E-19
5.704433E+03	2.687855E-17	4.463381E-19
5.714286E+03	2.692223E-17	4.478179E-19
5.724138E+03	2.696662E-17	4.493138E-19
5.733990E+03	2.701170E-17	4.508261E-19
5.743842E+03	2.705748E-17	4.523544E-19
5.753695E+03	2.710390E-17	4.538982E-19
5.763547E+03	2.715091E-17	4.554565E-19
5.773399E+03	2.719844E-17	4.570282E-19
5.783251E+03	2.724363E-17	4.585654E-19
5.793103E+03	2.729184E-17	4.601583E-19
5.802956E+03	2.733744E-17	4.617121E-19
5.812808E+03	2.738301E-17	4.632700E-19
5.822660E+03	2.743113E-17	4.648760E-19
5.832512E+03	2.747608E-17	4.664333E-19
5.842365E+03	2.752038E-17	4.679845E-19
5.852217E+03	2.756381E-17	4.695257E-19
5.862069E+03	2.760610E-17	4.710524E-19
5.871921E+03	2.764696E-17	4.725598E-19
5.881773E+03	2.768613E-17	4.740429E-19
5.891626E+03	2.772328E-17	4.754964E-19
5.901478E+03	2.775809E-17	4.769145E-19
5.911330E+03	2.778744E-17	4.782436E-19
5.921182E+03	2.781657E-17	4.795734E-19
5.931034E+03	2.783955E-17	4.808014E-19
5.940887E+03	2.786161E-17	4.820179E-19
5.950739E+03	2.787678E-17	4.831195E-19
5.960591E+03	2.789032E-17	4.841967E-19
5.970443E+03	2.789625E-17	4.851456E-19
5.980296E+03	2.789704E-17	4.860086E-19
5.990148E+03	2.789234E-17	4.867791E-19
6.000000E+03	2.788180E-17	4.874509E-19
6.009852E+03	2.786513E-17	4.880180E-19
6.019704E+03	2.784202E-17	4.884749E-19
6.029557E+03	2.781221E-17	4.888164E-19
6.039409E+03	2.777546E-17	4.890376E-19
6.049261E+03	2.773156E-17	4.891344E-19
6.059113E+03	2.768035E-17	4.891032E-19
6.068966E+03	2.761892E-17	4.888921E-19
6.078818E+03	2.755277E-17	4.885976E-19
6.088670E+03	2.747633E-17	4.881202E-19
6.098522E+03	2.739515E-17	4.875582E-19
6.108374E+03	2.730384E-17	4.868146E-19
6.118227E+03	2.720812E-17	4.859904E-19
6.128079E+03	2.710277E-17	4.849916E-19
6.137931E+03	2.699085E-17	4.838720E-19
6.147783E+03	2.687543E-17	4.826860E-19
6.157635E+03	2.675148E-17	4.813424E-19
6.167488E+03	2.662215E-17	4.798970E-19
6.177340E+03	2.648788E-17	4.783571E-19
6.187192E+03	2.634915E-17	4.767305E-19
6.197044E+03	2.620641E-17	4.750252E-19
6.206897E+03	2.606018E-17	4.732494E-19
6.216749E+03	2.591091E-17	4.714115E-19
6.226601E+03	2.575911E-17	4.695198E-19
6.236453E+03	2.560526E-17	4.675828E-19
6.246305E+03	2.544982E-17	4.656086E-19
6.256158E+03	2.529071E-17	4.635587E-19
6.266010E+03	2.513350E-17	4.615350E-19
6.275862E+03	2.497605E-17	4.594981E-19
6.285714E+03	2.481627E-17	4.574093E-19
6.295567E+03	2.465960E-17	4.553686E-19
6.305419E+03	2.450141E-17	4.532906E-19
6.315271E+03	2.434705E-17	4.512742E-19
6.325123E+03	2.419190E-17	4.492339E-19
6.334975E+03	2.404121E-17	4.472672E-19
6.344828E+03	2.389039E-17	4.452888E-19
6.354680E+03	2.374459E-17	4.433947E-19
6.364532E+03	2.359923E-17	4.414999E-19
6.374384E+03	2.345699E-17	4.396545E-19
6.384236E+03	2.331809E-17	4.378627E-19
6.394089E+03	2.318275E-17	4.361289E-19
6.403941E+03	2.305350E-17	4.345012E-19
6.413793E+03	2.292582E-17	4.328949E-19
6.423645E+03	2.280223E-17	4.313575E-19
6.433498E+03	2.268289E-17	4.298926E-19
6.443350E+03	2.256794E-17	4.285029E-19
6.453202E+03	2.245749E-17	4.271915E-19
6.463054E+03	2.235167E-17	4.259607E-19
6.472906E+03	2.225059E-17	4.248132E-19
6.482759E+03	2.215207E-17	4.237081E-19
6.492611E+03	2.206075E-17	4.227339E-19
6.502463E+03	2.197442E-17	4.218493E-19
6.512315E+03	2.189317E-17	4.210565E-19
6.522167E+03	2.181706E-17	4.203570E-19
6.532020E+03	2.174395E-17	4.197101E-19
6.541872E+03	2.167832E-17	4.192027E-19
6.551724E+03	2.161802E-17	4.187937E-19
6.561576E+03	2.156089E-17	4.184420E-19
6.571429E+03	2.151139E-17	4.182343E-19
6.581281E+03	2.146516E-17	4.180868E-19
6.591133E+03	2.142664E-17	4.180861E-19
6.600985E+03	2.139147E-17	4.181482E-19
6.610837E+03	2.136409E-17	4.183598E-19
6.620690E+03	2.134015E-17	4.186367E-19
6.630542E+03	2.132405E-17	4.190659E-19
6.640394E+03	2.131146E-17	4.195626E-19
6.650246E+03	2.130461E-17	4.201712E-19
6.660099E+03	2.130352E-17	4.208927E-19
6.669951E+03	2.131039E-17	4.217713E-19
6.679803E+03	2.132090E-17	4.227223E-19
6.689655E+03	2.133726E-17	4.237896E-19
6.699507E+03	2.135949E-17	4.249744E-19
6.709360E+03	2.138980E-17	4.263214E-19
6.719212E+03	2.142385E-17	4.277447E-19
6.729064E+03	2.146383E-17	4.292886E-19
6.738916E+03	2.150978E-17	4.309543E-19
6.748768E+03	2.156170E-17	4.327424E-19
6.758621E+03	2.161961E-17	4.346542E-19
6.768473E+03	2.168351E-17	4.366903E-19
6.778325E+03	2.175342E-17	4.388515E-19
6.788177E+03	2.182934E-17	4.411385E-19
6.798030E+03	2.191126E-17	4.435518E-19
6.807882E+03	2.199692E-17	4.460462E-19
6.817734E+03	2.209082E-17	4.487133E-19
6.827586E+03	2.219069E-17	4.515081E-19
6.837438E+03	2.229651E-17	4.544304E-19
6.847291E+03	2.240823E-17	4.574803E-19
6.857143E+03	2.252352E-17	4.606102E-19
6.866995E+03	2.264693E-17	4.639143E-19
6.876847E+03	2.277612E-17	4.673450E-19
6.886700E+03	2.290865E-17	4.708529E-19
6.896552E+03	2.304915E-17	4.745338E-19
6.906404E+03	2.319280E-17	4.782889E-19
6.916256E+03	2.334427E-17	4.822152E-19
6.926108E+03	2.349864E-17	4.862116E-19
6.935961E+03	2.366062E-17	4.903762E-19
6.945813E+03	2.382519E-17	4.946056E-19
6.955665E+03	2.399712E-17	4.989992E-19
6.965517E+03	2.417129E-17	5.034510E-19
6.975369E+03	2.435249E-17	5.080613E-19
6.985222E+03	2.453548E-17	5.127216E-19
6.995074E+03	2.472254E-17	5.174797E-19
7.004926E+03	2.491345E-17	5.223312E-19
7.014778E+03	2.511052E-17	5.273254E-19
7.024631E+03	2.530829E-17	5.323479E-19
7.034483E+03	2.550903E-17	5.374469E-19
7.044335E+03	2.571240E-17	5.426154E-19
7.054187E+03	2.591806E-17	5.478464E-19
7.064039E+03	2.612562E-17	5.531322E-19
7.073892E+03	2.633466E-17	5.584643E-19
7.083744E+03	2.654478E-17	5.638339E-19
7.093596E+03	2.675549E-17	5.692313E-19
7.103448E+03	2.696632E-17	5.746462E-19
7.113300E+03	2.717675E-17	5.800677E-19
7.123153E+03	2.738623E-17	5.854843E-19
7.133005E+03	2.759419E-17	5.908838E-19
7.142857E+03	2.780005E-17	5.962533E-19
7.152709E+03	2.800023E-17	6.015160E-19
7.162562E+03	2.819993E-17	6.067833E-19
7.172414E+03	2.839554E-17	6.119775E-19
7.182266E+03	2.858338E-17	6.170186E-19
7.192118E+03	2.876867E-17	6.220190E-19
7.201970E+03	2.894769E-17	6.268980E-19
7.211823E+03	2.911662E-17	6.315719E-19
7.221675E+03	2.928075E-17	6.361551E-19
7.231527E+03	2.943316E-17	6.404963E-19
7.241379E+03	2.957920E-17	6.447109E-19
7.251232E+03	2.971184E-17	6.486451E-19
7.261084E+03	2.983336E-17	6.523476E-19
7.270936E+03	2.994611E-17	6.558685E-19
7.280788E+03	3.004298E-17	6.590512E-19
7.290640E+03	3.012634E-17	6.619460E-19
7.300493E+03	3.019541E-17	6.645347E-19
7.310345E+03	3.024948E-17	6.667999E-19
7.320197E+03	3.028785E-17	6.687251E-19
7.330049E+03	3.031309E-17	6.703651E-19
7.339901E+03	3.031821E-17	6.715640E-19
7.349754E+03	3.030589E-17	6.723793E-19
7.359606E+03	3.027250E-17	6.727283E-19
7.369458E+03	3.022410E-17	6.727436E-19
7.379310E+03	3.015722E-17	6.723468E-19
7.389163E+03	3.007174E-17	6.715328E-19
7.399015E+03	2.996761E-17	6.702989E-19
7.408867E+03	2.984499E-17	6.686465E-19
7.418719E+03	2.970107E-17	6.665105E-19
7.428571E+03	2.954263E-17	6.640411E-19
7.438424E+03	2.936394E-17	6.611071E-19
7.448276E+03	2.917190E-17	6.578623E-19
7.458128E+03	2.896103E-17	6.541807E-19
7.467980E+03	2.873828E-17	6.502178E-19
7.477833E+03	2.849834E-17	6.458514E-19
7.487685E+03	2.824817E-17	6.412375E-19
7.497537E+03	2.798261E-17	6.362577E-19
7.507389E+03	2.770561E-17	6.309996E-19
7.517241E+03	2.742103E-17	6.255503E-19
7.527094E+03	2.712388E-17	6.197945E-19
7.536946E+03	2.681804E-17	6.138194E-19
7.546798E+03	2.650441E-17	6.076447E-19
7.556650E+03	2.618388E-17	6.012895E-19
7.566502E+03	2.585731E-17	5.947728E-19
7.576355E+03	2.552553E-17	5.881130E-19
7.586207E+03	2.518934E-17	5.813277E-19
7.596059E+03	2.484951E-17	5.744342E-19
7.605911E+03	2.450415E-17	5.673880E-19
7.615764E+03	2.415929E-17	5.603280E-19
7.625616E+03	2.381290E-17	5.532076E-19
7.635468E+03	2.346309E-17	5.459819E-19
7.645320E+03	2.311556E-17	5.387837E-19
