#wls	flux	fluxerr
1.576355E+03	3.220585E-19	1.167878E-20
1.615764E+03	3.283649E-19	1.186170E-20
1.655172E+03	3.326064E-19	1.196743E-20
1.694581E+03	3.346483E-19	1.199196E-20
1.733990E+03	3.343080E-19	1.192970E-20
1.773399E+03	3.311739E-19	1.176706E-20
1.812808E+03	3.246191E-19	1.148319E-20
1.852217E+03	3.140848E-19	1.106007E-20
1.891626E+03	2.991862E-19	1.048621E-20
1.931034E+03	2.800630E-19	9.768808E-21
1.970443E+03	2.576565E-19	8.942871E-21
2.009852E+03	2.342511E-19	8.089222E-21
2.049261E+03	2.133672E-19	7.329593E-21
2.088670E+03	1.987242E-19	6.789944E-21
2.128079E+03	1.931752E-19	6.563938E-21
2.167488E+03	1.976011E-19	6.676250E-21
2.206897E+03	2.109684E-19	7.086334E-21
2.246305E+03	2.310127E-19	7.713116E-21
2.285714E+03	2.550240E-19	8.462370E-21
2.325123E+03	2.805530E-19	9.250555E-21
2.364532E+03	3.058469E-19	1.001895E-20
2.403941E+03	3.298101E-19	1.073169E-20
2.443350E+03	3.517853E-19	1.136808E-20
2.482759E+03	3.717187E-19	1.192740E-20
2.522167E+03	3.896031E-19	1.241054E-20
2.561576E+03	4.056736E-19	1.282609E-20
2.600985E+03	4.200814E-19	1.317985E-20
2.640394E+03	4.330569E-19	1.348000E-20
2.679803E+03	4.448301E-19	1.373449E-20
2.719212E+03	4.557002E-19	1.395323E-20
2.758621E+03	4.658071E-19	1.414099E-20
2.798030E+03	4.754389E-19	1.430690E-20
2.837438E+03	4.846428E-19	1.445261E-20
2.876847E+03	4.937878E-19	1.458924E-20
2.916256E+03	5.030938E-19	1.472316E-20
2.955665E+03	5.126217E-19	1.485588E-20
2.965517E+03	5.151011E-19	1.489065E-20
2.975369E+03	5.176192E-19	1.492603E-20
2.985222E+03	5.201801E-19	1.496213E-20
2.995074E+03	5.228013E-19	1.499943E-20
3.004926E+03	5.255348E-19	1.503941E-20
3.014778E+03	5.284346E-19	1.508359E-20
3.024631E+03	5.314896E-19	1.513161E-20
3.034483E+03	5.346945E-19	1.518328E-20
3.044335E+03	5.380346E-19	1.523815E-20
3.054187E+03	5.416139E-19	1.529913E-20
3.064039E+03	5.452470E-19	1.536094E-20
3.073892E+03	5.490159E-19	1.542586E-20
3.083744E+03	5.529160E-19	1.549374E-20
3.093596E+03	5.569437E-19	1.556445E-20
3.103448E+03	5.610965E-19	1.563787E-20
3.113300E+03	5.654661E-19	1.571654E-20
3.123153E+03	5.698660E-19	1.579522E-20
3.133005E+03	5.743900E-19	1.587650E-20
3.142857E+03	5.790395E-19	1.596039E-20
3.152709E+03	5.839126E-19	1.604956E-20
3.162562E+03	5.888216E-19	1.613879E-20
3.172414E+03	5.938662E-19	1.623081E-20
3.182266E+03	5.990515E-19	1.632573E-20
3.192118E+03	6.044820E-19	1.642633E-20
3.201970E+03	6.099671E-19	1.652741E-20
3.211823E+03	6.157134E-19	1.663453E-20
3.221675E+03	6.215282E-19	1.674242E-20
3.231527E+03	6.275202E-19	1.685400E-20
3.241379E+03	6.338024E-19	1.697223E-20
3.251232E+03	6.401791E-19	1.709183E-20
3.261084E+03	6.468692E-19	1.721860E-20
3.270936E+03	6.536746E-19	1.734719E-20
3.280788E+03	6.607117E-19	1.748066E-20
3.290640E+03	6.681028E-19	1.762218E-20
3.300493E+03	6.756451E-19	1.776631E-20
3.310345E+03	6.835721E-19	1.791916E-20
3.320197E+03	6.916777E-19	1.807522E-20
3.330049E+03	7.002015E-19	1.824069E-20
3.339901E+03	7.089343E-19	1.841005E-20
3.349754E+03	7.181224E-19	1.858960E-20
3.359606E+03	7.276708E-19	1.877678E-20
3.369458E+03	7.374793E-19	1.896891E-20
3.379310E+03	7.478048E-19	1.917253E-20
3.389163E+03	7.584284E-19	1.938191E-20
3.399015E+03	7.696151E-19	1.960370E-20
3.408867E+03	7.811405E-19	1.983208E-20
3.418719E+03	7.932789E-19	2.007390E-20
3.428571E+03	8.059303E-19	2.032647E-20
3.438424E+03	8.189887E-19	2.058701E-20
3.448276E+03	8.327423E-19	2.086262E-20
3.458128E+03	8.470884E-19	2.115056E-20
3.467980E+03	8.619175E-19	2.144795E-20
3.477833E+03	8.775337E-19	2.176221E-20
3.487685E+03	8.938317E-19	2.209054E-20
3.497537E+03	9.106976E-19	2.242994E-20
3.507389E+03	9.284532E-19	2.278818E-20
3.517241E+03	9.469895E-19	2.316235E-20
3.527094E+03	9.661878E-19	2.354937E-20
3.536946E+03	9.863897E-19	2.395734E-20
3.546798E+03	1.007482E-18	2.438329E-20
3.556650E+03	1.029504E-18	2.482792E-20
3.566502E+03	1.052328E-18	2.528792E-20
3.576355E+03	1.076328E-18	2.577203E-20
3.586207E+03	1.101382E-18	2.627706E-20
3.596059E+03	1.127535E-18	2.680379E-20
3.605911E+03	1.154649E-18	2.734867E-20
3.615764E+03	1.183134E-18	2.792113E-20
3.625616E+03	1.212859E-18	2.851775E-20
3.635468E+03	1.243875E-18	2.913938E-20
3.645320E+03	1.276031E-18	2.978218E-20
3.655172E+03	1.309779E-18	3.045637E-20
3.665025E+03	1.344977E-18	3.115824E-20
3.674877E+03	1.381682E-18	3.188873E-20
3.684729E+03	1.419950E-18	3.264876E-20
3.694581E+03	1.459611E-18	3.343405E-20
3.704433E+03	1.501180E-18	3.425598E-20
3.714286E+03	1.544495E-18	3.511039E-20
3.724138E+03	1.589620E-18	3.599828E-20
3.733990E+03	1.636620E-18	3.692068E-20
3.743842E+03	1.685297E-18	3.787265E-20
3.753695E+03	1.736240E-18	3.886699E-20
3.763547E+03	1.789262E-18	3.989894E-20
3.773399E+03	1.844433E-18	4.096953E-20
3.783251E+03	1.901823E-18	4.207984E-20
3.793103E+03	1.961199E-18	4.322412E-20
3.802956E+03	2.023237E-18	4.441678E-20
3.812808E+03	2.087714E-18	4.565228E-20
3.822660E+03	2.154704E-18	4.693164E-20
3.832512E+03	2.223933E-18	4.824832E-20
3.842365E+03	2.296159E-18	4.961818E-20
3.852217E+03	2.371120E-18	5.103487E-20
3.862069E+03	2.448888E-18	5.249930E-20
3.871921E+03	2.529537E-18	5.401239E-20
3.881773E+03	2.612732E-18	5.556635E-20
3.891626E+03	2.699341E-18	5.717902E-20
3.901478E+03	2.789040E-18	5.884276E-20
3.911330E+03	2.881894E-18	6.055826E-20
3.921182E+03	2.977504E-18	6.231648E-20
3.931034E+03	3.076838E-18	6.413702E-20
3.940887E+03	3.179505E-18	6.601096E-20
3.950739E+03	3.285557E-18	6.793864E-20
3.960591E+03	3.394516E-18	6.990953E-20
3.970443E+03	3.507456E-18	7.194511E-20
3.980296E+03	3.623907E-18	7.403492E-20
3.990148E+03	3.743893E-18	7.617878E-20
4.000000E+03	3.866845E-18	7.836449E-20
4.009852E+03	3.993946E-18	8.061538E-20
4.019704E+03	4.124630E-18	8.291930E-20
4.029557E+03	4.258234E-18	8.526231E-20
4.039409E+03	4.396039E-18	8.766955E-20
4.049261E+03	4.537384E-18	9.012710E-20
4.059113E+03	4.681516E-18	9.261950E-20
4.068966E+03	4.829808E-18	9.517348E-20
4.078818E+03	4.981501E-18	9.777346E-20
4.088670E+03	5.135743E-18	1.004023E-19
4.098522E+03	5.293995E-18	1.030882E-19
4.108374E+03	5.455402E-18	1.058141E-19
4.118227E+03	5.618991E-18	1.085609E-19
4.128079E+03	5.786336E-18	1.113586E-19
4.137931E+03	5.955545E-18	1.141707E-19
4.147783E+03	6.128260E-18	1.170285E-19
4.157635E+03	6.302476E-18	1.198937E-19
4.167488E+03	6.479893E-18	1.227985E-19
4.177340E+03	6.658377E-18	1.257026E-19
4.187192E+03	6.839712E-18	1.286398E-19
4.197044E+03	7.021620E-18	1.315673E-19
4.206897E+03	7.205970E-18	1.345206E-19
4.216749E+03	7.390356E-18	1.374550E-19
4.226601E+03	7.576726E-18	1.404072E-19
4.236453E+03	7.762542E-18	1.433306E-19
4.246305E+03	7.949851E-18	1.462636E-19
4.256158E+03	8.135977E-18	1.491577E-19
4.266010E+03	8.321808E-18	1.520299E-19
4.275862E+03	8.508324E-18	1.548990E-19
4.285714E+03	8.692676E-18	1.577138E-19
4.295567E+03	8.877163E-18	1.605170E-19
4.305419E+03	9.058820E-18	1.632562E-19
4.315271E+03	9.238665E-18	1.659507E-19
4.325123E+03	9.416422E-18	1.685969E-19
4.334975E+03	9.593268E-18	1.712169E-19
4.344828E+03	9.766108E-18	1.737567E-19
4.354680E+03	9.936144E-18	1.762392E-19
4.364532E+03	1.010319E-17	1.786622E-19
4.374384E+03	1.026860E-17	1.810512E-19
4.384236E+03	1.042917E-17	1.833508E-19
4.394089E+03	1.058626E-17	1.855866E-19
4.403941E+03	1.073976E-17	1.877580E-19
4.413793E+03	1.088955E-17	1.898646E-19
4.423645E+03	1.103557E-17	1.919062E-19
4.433498E+03	1.117773E-17	1.938831E-19
4.443350E+03	1.131601E-17	1.957960E-19
4.453202E+03	1.145207E-17	1.976754E-19
4.463054E+03	1.158251E-17	1.994634E-19
4.472906E+03	1.170905E-17	2.011907E-19
4.482759E+03	1.183170E-17	2.028589E-19
4.492611E+03	1.194874E-17	2.044391E-19
4.502463E+03	1.206380E-17	2.059945E-19
4.512315E+03	1.217519E-17	2.074970E-19
4.522167E+03	1.228302E-17	2.089493E-19
4.532020E+03	1.238741E-17	2.103542E-19
4.541872E+03	1.248849E-17	2.117147E-19
4.551724E+03	1.258641E-17	2.130339E-19
4.561576E+03	1.268134E-17	2.143152E-19
4.571429E+03	1.277153E-17	2.155300E-19
4.581281E+03	1.286095E-17	2.167458E-19
4.591133E+03	1.294791E-17	2.179342E-19
4.600985E+03	1.303258E-17	2.190990E-19
4.610837E+03	1.311322E-17	2.202112E-19
4.620690E+03	1.319388E-17	2.213395E-19
4.630542E+03	1.327087E-17	2.224220E-19
4.640394E+03	1.334829E-17	2.235279E-19
4.650246E+03	1.342434E-17	2.246276E-19
4.660099E+03	1.349718E-17	2.256903E-19
4.669951E+03	1.357093E-17	2.267854E-19
4.679803E+03	1.364169E-17	2.278480E-19
4.689655E+03	1.371358E-17	2.289471E-19
4.699507E+03	1.378266E-17	2.300171E-19
4.709360E+03	1.385305E-17	2.311271E-19
4.719212E+03	1.392075E-17	2.322107E-19
4.729064E+03	1.398787E-17	2.333031E-19
4.738916E+03	1.405652E-17	2.344400E-19
4.748768E+03	1.412264E-17	2.355536E-19
4.758621E+03	1.418835E-17	2.366796E-19
4.768473E+03	1.425578E-17	2.378536E-19
4.778325E+03	1.432080E-17	2.390069E-19
4.788177E+03	1.438555E-17	2.401754E-19
4.798030E+03	1.445005E-17	2.413599E-19
4.807882E+03	1.451436E-17	2.425611E-19
4.817734E+03	1.458065E-17	2.438156E-19
4.827586E+03	1.464469E-17	2.450527E-19
4.837438E+03	1.470865E-17	2.463084E-19
4.847291E+03	1.477257E-17	2.475831E-19
4.857143E+03	1.483648E-17	2.488773E-19
4.866995E+03	1.490041E-17	2.501915E-19
4.876847E+03	1.496440E-17	2.515260E-19
4.886700E+03	1.502848E-17	2.528813E-19
4.896552E+03	1.509268E-17	2.542576E-19
4.906404E+03	1.515703E-17	2.556554E-19
4.916256E+03	1.521933E-17	2.570374E-19
4.926108E+03	1.528405E-17	2.584787E-19
4.935961E+03	1.534900E-17	2.599423E-19
4.945813E+03	1.541420E-17	2.614283E-19
4.955665E+03	1.547966E-17	2.629370E-19
4.965517E+03	1.554315E-17	2.644299E-19
4.975369E+03	1.560919E-17	2.659839E-19
4.985222E+03	1.567555E-17	2.675609E-19
4.995074E+03	1.573994E-17	2.691216E-19
5.004926E+03	1.580694E-17	2.707441E-19
5.014778E+03	1.587427E-17	2.723892E-19
5.024631E+03	1.593962E-17	2.740171E-19
5.034483E+03	1.600760E-17	2.757070E-19
5.044335E+03	1.607358E-17	2.773786E-19
5.054187E+03	1.614219E-17	2.791120E-19
5.064039E+03	1.620875E-17	2.808260E-19
5.073892E+03	1.627557E-17	2.825603E-19
5.083744E+03	1.634500E-17	2.843558E-19
5.093596E+03	1.641231E-17	2.861296E-19
5.103448E+03	1.647980E-17	2.879221E-19
5.113300E+03	1.654987E-17	2.897746E-19
5.123153E+03	1.661769E-17	2.916028E-19
5.133005E+03	1.668560E-17	2.934474E-19
5.142857E+03	1.675359E-17	2.953077E-19
5.152709E+03	1.682405E-17	2.972261E-19
5.162562E+03	1.689208E-17	2.991157E-19
5.172414E+03	1.696006E-17	3.010184E-19
5.182266E+03	1.702795E-17	3.029333E-19
5.192118E+03	1.709572E-17	3.048596E-19
5.201970E+03	1.716333E-17	3.067963E-19
5.211823E+03	1.723074E-17	3.087425E-19
5.221675E+03	1.729790E-17	3.106974E-19
5.231527E+03	1.736479E-17	3.126601E-19
5.241379E+03	1.743138E-17	3.146299E-19
5.251232E+03	1.749763E-17	3.166059E-19
5.261084E+03	1.756352E-17	3.185875E-19
5.270936E+03	1.762903E-17	3.205742E-19
5.280788E+03	1.769159E-17	3.225189E-19
5.290640E+03	1.775628E-17	3.245138E-19
5.300493E+03	1.782056E-17	3.265125E-19
5.310345E+03	1.788443E-17	3.285148E-19
5.320197E+03	1.794531E-17	3.304728E-19
5.330049E+03	1.800837E-17	3.324818E-19
5.339901E+03	1.807105E-17	3.344942E-19
5.349754E+03	1.813076E-17	3.364618E-19
5.359606E+03	1.819276E-17	3.384817E-19
5.369458E+03	1.825183E-17	3.404570E-19
5.379310E+03	1.831324E-17	3.424855E-19
5.389163E+03	1.837178E-17	3.444696E-19
5.399015E+03	1.843274E-17	3.465083E-19
5.408867E+03	1.849084E-17	3.485022E-19
5.418719E+03	1.855138E-17	3.505507E-19
5.428571E+03	1.860897E-17	3.525523E-19
5.438424E+03	1.866889E-17	3.546065E-19
5.448276E+03	1.872571E-17	3.566099E-19
5.458128E+03	1.878200E-17	3.586114E-19
5.467980E+03	1.884039E-17	3.606607E-19
5.477833E+03	1.889537E-17	3.626525E-19
5.487685E+03	1.894956E-17	3.646364E-19
5.497537E+03	1.900287E-17	3.666106E-19
5.507389E+03	1.905522E-17	3.685731E-19
5.517241E+03	1.910927E-17	3.705754E-19
5.527094E+03	1.915949E-17	3.725098E-19
5.536946E+03	1.920853E-17	3.744278E-19
5.546798E+03	1.925634E-17	3.763278E-19
5.556650E+03	1.930286E-17	3.782085E-19
5.566502E+03	1.934805E-17	3.800686E-19
5.576355E+03	1.939187E-17	3.819072E-19
5.586207E+03	1.943428E-17	3.837231E-19
5.596059E+03	1.947524E-17	3.855153E-19
5.605911E+03	1.951473E-17	3.872831E-19
5.615764E+03	1.955273E-17	3.890257E-19
5.625616E+03	1.958921E-17	3.907423E-19
5.635468E+03	1.962414E-17	3.924322E-19
5.645320E+03	1.965471E-17	3.940383E-19
5.655172E+03	1.968652E-17	3.956728E-19
5.665025E+03	1.971674E-17	3.972787E-19
5.674877E+03	1.974537E-17	3.988557E-19
5.684729E+03	1.976955E-17	4.003458E-19
5.694581E+03	1.979494E-17	4.018629E-19
5.704433E+03	1.981871E-17	4.033495E-19
5.714286E+03	1.983797E-17	4.047468E-19
5.724138E+03	1.985843E-17	4.061703E-19
5.733990E+03	1.987720E-17	4.075614E-19
5.743842E+03	1.989143E-17	4.088612E-19
5.753695E+03	1.990681E-17	4.101859E-19
5.763547E+03	1.991761E-17	4.114175E-19
5.773399E+03	1.992952E-17	4.126731E-19
5.783251E+03	1.993681E-17	4.138341E-19
5.793103E+03	1.994516E-17	4.150179E-19
5.802956E+03	1.994886E-17	4.161053E-19
5.812808E+03	1.995357E-17	4.172145E-19
5.822660E+03	1.995359E-17	4.182255E-19
5.832512E+03	1.995458E-17	4.192572E-19
5.842365E+03	1.995082E-17	4.201889E-19
5.852217E+03	1.994515E-17	4.210799E-19
5.862069E+03	1.994040E-17	4.219898E-19
5.871921E+03	1.993084E-17	4.227975E-19
5.881773E+03	1.991930E-17	4.235623E-19
5.891626E+03	1.990578E-17	4.242839E-19
5.901478E+03	1.989312E-17	4.250226E-19
5.911330E+03	1.987560E-17	4.256564E-19
5.921182E+03	1.985608E-17	4.262458E-19
5.931034E+03	1.983456E-17	4.267904E-19
5.940887E+03	1.981103E-17	4.272903E-19
5.950739E+03	1.978835E-17	4.278063E-19
5.960591E+03	1.976087E-17	4.282166E-19
5.970443E+03	1.973143E-17	4.285825E-19
5.980296E+03	1.970009E-17	4.289044E-19
5.990148E+03	1.966686E-17	4.291827E-19
6.000000E+03	1.963179E-17	4.294183E-19
6.009852E+03	1.959493E-17	4.296119E-19
6.019704E+03	1.955634E-17	4.297645E-19
6.029557E+03	1.951606E-17	4.298772E-19
6.039409E+03	1.947417E-17	4.299513E-19
6.049261E+03	1.943075E-17	4.299884E-19
6.059113E+03	1.938586E-17	4.299896E-19
6.068966E+03	1.933958E-17	4.299568E-19
6.078818E+03	1.929199E-17	4.298914E-19
6.088670E+03	1.924042E-17	4.297336E-19
6.098522E+03	1.919044E-17	4.296077E-19
6.108374E+03	1.913936E-17	4.294538E-19
6.118227E+03	1.908724E-17	4.292726E-19
6.128079E+03	1.903412E-17	4.290649E-19
6.137931E+03	1.897733E-17	4.287701E-19
6.147783E+03	1.892236E-17	4.285118E-19
6.157635E+03	1.886652E-17	4.282292E-19
6.167488E+03	1.880986E-17	4.279233E-19
6.177340E+03	1.874977E-17	4.275341E-19
6.187192E+03	1.869168E-17	4.271850E-19
6.197044E+03	1.863294E-17	4.268159E-19
6.206897E+03	1.857099E-17	4.263675E-19
6.216749E+03	1.851121E-17	4.259632E-19
6.226601E+03	1.845102E-17	4.255437E-19
6.236453E+03	1.838788E-17	4.250499E-19
6.246305E+03	1.832714E-17	4.246054E-19
6.256158E+03	1.826364E-17	4.240908E-19
6.266010E+03	1.820272E-17	4.236296E-19
6.275862E+03	1.813926E-17	4.231029E-19
6.285714E+03	1.807855E-17	4.226340E-19
6.295567E+03	1.801554E-17	4.221045E-19
6.305419E+03	1.795548E-17	4.216376E-19
6.315271E+03	1.789335E-17	4.211153E-19
6.325123E+03	1.783438E-17	4.206608E-19
6.334975E+03	1.777357E-17	4.201563E-19
6.344828E+03	1.771612E-17	4.197248E-19
6.354680E+03	1.765707E-17	4.192487E-19
6.364532E+03	1.759908E-17	4.187909E-19
6.374384E+03	1.754476E-17	4.184140E-19
6.384236E+03	1.748918E-17	4.180008E-19
6.394089E+03	1.743498E-17	4.176142E-19
6.403941E+03	1.738475E-17	4.173163E-19
6.413793E+03	1.733361E-17	4.169905E-19
6.423645E+03	1.728414E-17	4.166988E-19
6.433498E+03	1.723892E-17	4.165036E-19
6.443350E+03	1.719309E-17	4.162883E-19
6.453202E+03	1.714922E-17	4.161146E-19
6.463054E+03	1.710740E-17	4.159851E-19
6.472906E+03	1.707016E-17	4.159619E-19
6.482759E+03	1.703267E-17	4.159278E-19
6.492611E+03	1.699748E-17	4.159448E-19
6.502463E+03	1.696465E-17	4.160150E-19
6.512315E+03	1.693426E-17	4.161404E-19
6.522167E+03	1.690638E-17	4.163232E-19
6.532020E+03	1.688348E-17	4.166249E-19
6.541872E+03	1.686079E-17	4.169281E-19
6.551724E+03	1.684078E-17	4.172941E-19
6.561576E+03	1.682351E-17	4.177249E-19
6.571429E+03	1.680904E-17	4.182219E-19
6.581281E+03	1.679740E-17	4.187868E-19
6.591133E+03	1.678864E-17	4.194211E-19
6.600985E+03	1.678281E-17	4.201264E-19
6.610837E+03	1.677993E-17	4.209036E-19
6.620690E+03	1.678005E-17	4.217545E-19
6.630542E+03	1.678319E-17	4.226799E-19
6.640394E+03	1.678938E-17	4.236813E-19
6.650246E+03	1.679864E-17	4.247593E-19
6.660099E+03	1.681100E-17	4.259152E-19
6.669951E+03	1.682647E-17	4.271498E-19
6.679803E+03	1.684505E-17	4.284637E-19
6.689655E+03	1.686677E-17	4.298578E-19
6.699507E+03	1.689162E-17	4.313325E-19
6.709360E+03	1.691961E-17	4.328884E-19
6.719212E+03	1.694830E-17	4.344633E-19
6.729064E+03	1.698254E-17	4.361825E-19
6.738916E+03	1.701991E-17	4.379836E-19
6.748768E+03	1.706037E-17	4.398667E-19
6.758621E+03	1.710391E-17	4.418318E-19
6.768473E+03	1.715051E-17	4.438788E-19
6.778325E+03	1.719766E-17	4.459431E-19
6.788177E+03	1.725027E-17	4.481524E-19
6.798030E+03	1.730584E-17	4.504421E-19
6.807882E+03	1.736431E-17	4.528115E-19
6.817734E+03	1.742313E-17	4.551941E-19
6.827586E+03	1.748724E-17	4.577196E-19
6.837438E+03	1.755410E-17	4.603217E-19
6.847291E+03	1.762362E-17	4.629987E-19
6.857143E+03	1.769319E-17	4.656822E-19
6.866995E+03	1.776780E-17	4.685038E-19
6.876847E+03	1.784482E-17	4.713951E-19
6.886700E+03	1.792159E-17	4.742854E-19
6.896552E+03	1.800314E-17	4.773085E-19
6.906404E+03	1.808419E-17	4.803246E-19
6.916256E+03	1.816981E-17	4.834689E-19
6.926108E+03	1.825729E-17	4.866694E-19
6.935961E+03	1.834382E-17	4.898519E-19
6.945813E+03	1.843456E-17	4.931536E-19
6.955665E+03	1.852404E-17	4.964289E-19
6.965517E+03	1.861743E-17	4.998163E-19
6.975369E+03	1.870919E-17	5.031676E-19
6.985222E+03	1.880452E-17	5.066226E-19
6.995074E+03	1.889782E-17	5.100305E-19
7.004926E+03	1.899433E-17	5.135330E-19
7.014778E+03	1.908835E-17	5.169762E-19
7.024631E+03	1.918519E-17	5.205035E-19
7.034483E+03	1.927908E-17	5.239585E-19
7.044335E+03	1.937533E-17	5.274859E-19
7.054187E+03	1.946811E-17	5.309266E-19
7.064039E+03	1.956278E-17	5.344268E-19
7.073892E+03	1.965344E-17	5.378250E-19
7.083744E+03	1.974262E-17	5.411905E-19
7.093596E+03	1.983293E-17	5.445944E-19
7.103448E+03	1.991834E-17	5.478714E-19
7.113300E+03	2.000433E-17	5.511716E-19
7.123153E+03	2.008482E-17	5.543272E-19
7.133005E+03	2.016238E-17	5.574090E-19
7.142857E+03	2.023673E-17	5.604085E-19
7.152709E+03	2.031051E-17	5.633986E-19
7.162562E+03	2.037753E-17	5.662072E-19
7.172414E+03	2.044043E-17	5.689070E-19
7.182266E+03	2.050188E-17	5.715720E-19
7.192118E+03	2.055563E-17	5.740276E-19
7.201970E+03	2.060437E-17	5.763476E-19
7.211823E+03	2.064781E-17	5.785236E-19
7.221675E+03	2.068567E-17	5.805468E-19
7.231527E+03	2.072069E-17	5.824940E-19
7.241379E+03	2.074661E-17	5.841878E-19
7.251232E+03	2.076616E-17	5.857049E-19
7.261084E+03	2.077913E-17	5.870381E-19
7.270936E+03	2.078531E-17	5.881805E-19
7.280788E+03	2.078449E-17	5.891254E-19
7.290640E+03	2.077650E-17	5.898669E-19
7.300493E+03	2.076419E-17	5.904855E-19
7.310345E+03	2.074138E-17	5.908044E-19
7.320197E+03	2.071098E-17	5.909051E-19
7.330049E+03	2.067289E-17	5.907839E-19
7.339901E+03	2.062704E-17	5.904378E-19
7.349754E+03	2.057337E-17	5.898643E-19
7.359606E+03	2.051188E-17	5.890616E-19
7.369458E+03	2.044254E-17	5.880287E-19
7.379310E+03	2.036540E-17	5.867653E-19
7.389163E+03	2.028048E-17	5.852717E-19
7.399015E+03	2.018786E-17	5.835483E-19
7.408867E+03	2.008763E-17	5.815972E-19
7.418719E+03	1.997990E-17	5.794202E-19
7.428571E+03	1.986480E-17	5.770202E-19
7.438424E+03	1.973958E-17	5.743160E-19
7.448276E+03	1.961023E-17	5.714804E-19
7.458128E+03	1.947402E-17	5.684334E-19
7.467980E+03	1.933116E-17	5.651800E-19
7.477833E+03	1.918189E-17	5.617260E-19
7.487685E+03	1.902644E-17	5.580774E-19
7.497537E+03	1.886510E-17	5.542413E-19
7.507389E+03	1.869537E-17	5.501440E-19
7.517241E+03	1.852307E-17	5.459552E-19
7.527094E+03	1.834573E-17	5.416015E-19
7.536946E+03	1.816365E-17	5.370913E-19
7.546798E+03	1.797451E-17	5.323550E-19
7.556650E+03	1.778395E-17	5.275589E-19
7.566502E+03	1.758962E-17	5.226328E-19
7.576355E+03	1.739186E-17	5.175862E-19
7.586207E+03	1.718846E-17	5.123531E-19
7.596059E+03	1.698486E-17	5.070943E-19
7.605911E+03	1.677880E-17	5.017430E-19
7.615764E+03	1.656819E-17	4.962354E-19
7.625616E+03	1.635825E-17	4.907280E-19
7.635468E+03	1.614684E-17	4.851560E-19
7.645320E+03	1.593190E-17	4.794578E-19
