#wls	flux	fluxerr
1.576355E+03	2.951381E-19	1.114360E-20
1.615764E+03	3.007780E-19	1.131223E-20
1.655172E+03	3.045784E-19	1.140918E-20
1.694581E+03	3.063656E-19	1.142875E-20
1.733990E+03	3.059747E-19	1.136571E-20
1.773399E+03	3.029777E-19	1.120524E-20
1.812808E+03	2.969119E-19	1.093160E-20
1.852217E+03	2.871642E-19	1.052390E-20
1.891626E+03	2.734890E-19	9.975142E-21
1.931034E+03	2.559189E-19	9.288722E-21
1.970443E+03	2.353682E-19	8.499932E-21
2.009852E+03	2.139627E-19	7.687016E-21
2.049261E+03	1.948031E-19	6.961521E-21
2.088670E+03	1.814264E-19	6.448100E-21
2.128079E+03	1.763298E-19	6.231791E-21
2.167488E+03	1.803476E-19	6.337011E-21
2.206897E+03	1.925012E-19	6.723938E-21
2.246305E+03	2.107900E-19	7.317847E-21
2.285714E+03	2.327148E-19	8.028339E-21
2.325123E+03	2.560471E-19	8.776336E-21
2.364532E+03	2.791473E-19	9.504723E-21
2.403941E+03	3.010649E-19	1.018117E-20
2.443350E+03	3.212633E-19	1.078816E-20
2.482759E+03	3.395940E-19	1.132164E-20
2.522167E+03	3.561111E-19	1.178447E-20
2.561576E+03	3.710371E-19	1.218506E-20
2.600985E+03	3.844509E-19	1.252692E-20
2.640394E+03	3.967018E-19	1.282231E-20
2.679803E+03	4.080132E-19	1.307910E-20
2.719212E+03	4.184573E-19	1.330017E-20
2.758621E+03	4.283795E-19	1.349692E-20
2.798030E+03	4.378331E-19	1.367132E-20
2.837438E+03	4.472398E-19	1.383666E-20
2.876847E+03	4.565744E-19	1.399207E-20
2.916256E+03	4.661188E-19	1.414603E-20
2.955665E+03	4.761730E-19	1.430725E-20
2.965517E+03	4.787812E-19	1.434907E-20
2.975369E+03	4.814352E-19	1.439170E-20
2.985222E+03	4.841389E-19	1.443527E-20
2.995074E+03	4.869086E-19	1.448023E-20
3.004926E+03	4.897930E-19	1.452801E-20
3.014778E+03	4.928427E-19	1.458008E-20
3.024631E+03	4.960477E-19	1.463611E-20
3.034483E+03	4.994034E-19	1.469592E-20
3.044335E+03	5.028963E-19	1.475908E-20
3.054187E+03	5.065403E-19	1.482595E-20
3.064039E+03	5.103292E-19	1.489633E-20
3.073892E+03	5.142569E-19	1.496999E-20
3.083744E+03	5.183189E-19	1.504676E-20
3.093596E+03	5.225125E-19	1.512654E-20
3.103448E+03	5.268352E-19	1.520922E-20
3.113300E+03	5.313753E-19	1.529730E-20
3.123153E+03	5.359544E-19	1.538562E-20
3.133005E+03	5.406619E-19	1.547670E-20
3.142857E+03	5.454996E-19	1.557058E-20
3.152709E+03	5.504700E-19	1.566728E-20
3.162562E+03	5.555759E-19	1.576685E-20
3.172414E+03	5.609157E-19	1.587205E-20
3.182266E+03	5.663071E-19	1.597766E-20
3.192118E+03	5.718481E-19	1.608642E-20
3.201970E+03	5.775458E-19	1.619849E-20
3.211823E+03	5.834064E-19	1.631401E-20
3.221675E+03	5.895366E-19	1.643590E-20
3.231527E+03	5.957481E-19	1.655886E-20
3.241379E+03	6.021475E-19	1.668582E-20
3.251232E+03	6.087443E-19	1.681698E-20
3.261084E+03	6.156516E-19	1.695542E-20
3.270936E+03	6.226758E-19	1.709573E-20
3.280788E+03	6.299301E-19	1.724098E-20
3.290640E+03	6.374266E-19	1.739143E-20
3.300493E+03	6.452853E-19	1.755029E-20
3.310345E+03	6.533066E-19	1.771203E-20
3.320197E+03	6.616101E-19	1.787986E-20
3.330049E+03	6.703224E-19	1.805710E-20
3.339901E+03	6.792373E-19	1.823810E-20
3.349754E+03	6.884810E-19	1.842619E-20
3.359606E+03	6.981864E-19	1.862482E-20
3.369458E+03	7.081409E-19	1.882821E-20
3.379310E+03	7.184770E-19	1.903981E-20
3.389163E+03	7.293344E-19	1.926320E-20
3.399015E+03	7.404933E-19	1.949245E-20
3.408867E+03	7.520931E-19	1.973114E-20
3.418719E+03	7.642822E-19	1.998302E-20
3.428571E+03	7.768314E-19	2.024197E-20
3.438424E+03	7.900191E-19	2.051510E-20
3.448276E+03	8.036105E-19	2.079617E-20
3.458128E+03	8.177588E-19	2.108902E-20
3.467980E+03	8.326269E-19	2.139768E-20
3.477833E+03	8.479694E-19	2.171567E-20
3.487685E+03	8.640917E-19	2.205065E-20
3.497537E+03	8.807400E-19	2.239596E-20
3.507389E+03	8.982320E-19	2.275949E-20
3.517241E+03	9.163054E-19	2.313439E-20
3.527094E+03	9.351371E-19	2.352496E-20
3.536946E+03	9.549170E-19	2.393573E-20
3.546798E+03	9.753686E-19	2.435956E-20
3.556650E+03	9.968446E-19	2.480502E-20
3.566502E+03	1.019058E-18	2.526471E-20
3.576355E+03	1.042376E-18	2.574753E-20
3.586207E+03	1.066501E-18	2.624581E-20
3.596059E+03	1.091818E-18	2.676879E-20
3.605911E+03	1.118015E-18	2.730854E-20
3.615764E+03	1.145497E-18	2.787464E-20
3.625616E+03	1.173938E-18	2.845884E-20
3.635468E+03	1.203761E-18	2.907112E-20
3.645320E+03	1.234626E-18	2.970289E-20
3.655172E+03	1.266771E-18	3.035960E-20
3.665025E+03	1.300458E-18	3.104713E-20
3.674877E+03	1.335319E-18	3.175633E-20
3.684729E+03	1.371834E-18	3.249826E-20
3.694581E+03	1.409617E-18	3.326334E-20
3.704433E+03	1.449176E-18	3.406317E-20
3.714286E+03	1.490099E-18	3.488765E-20
3.724138E+03	1.532923E-18	3.574893E-20
3.733990E+03	1.577213E-18	3.663642E-20
3.743842E+03	1.623536E-18	3.756280E-20
3.753695E+03	1.671431E-18	3.851695E-20
3.763547E+03	1.721494E-18	3.951212E-20
3.773399E+03	1.773237E-18	4.053659E-20
3.783251E+03	1.827290E-18	4.160426E-20
3.793103E+03	1.883131E-18	4.270273E-20
3.802956E+03	1.941428E-18	4.384657E-20
3.812808E+03	2.001624E-18	4.502266E-20
3.822660E+03	2.064422E-18	4.624626E-20
3.832512E+03	2.129229E-18	4.750349E-20
3.842365E+03	2.196787E-18	4.881032E-20
3.852217E+03	2.266462E-18	5.015202E-20
3.862069E+03	2.338659E-18	5.153703E-20
3.871921E+03	2.413829E-18	5.297462E-20
3.881773E+03	2.491266E-18	5.444865E-20
3.891626E+03	2.571821E-18	5.597707E-20
3.901478E+03	2.654735E-18	5.754270E-20
3.911330E+03	2.740904E-18	5.916434E-20
3.921182E+03	2.829512E-18	6.082370E-20
3.931034E+03	2.921505E-18	6.254046E-20
3.940887E+03	3.016003E-18	6.429511E-20
3.950739E+03	3.114002E-18	6.610825E-20
3.960591E+03	3.214556E-18	6.795907E-20
3.970443E+03	3.318179E-18	6.985792E-20
3.980296E+03	3.425447E-18	7.181620E-20
3.990148E+03	3.535299E-18	7.381101E-20
4.000000E+03	3.648867E-18	7.586536E-20
4.009852E+03	3.765004E-18	7.795477E-20
4.019704E+03	3.884274E-18	8.009044E-20
4.029557E+03	4.007317E-18	8.228489E-20
4.039409E+03	4.132844E-18	8.451108E-20
4.049261E+03	4.261452E-18	8.678079E-20
4.059113E+03	4.393806E-18	8.910702E-20
4.068966E+03	4.528480E-18	9.146030E-20
4.078818E+03	4.666838E-18	9.386782E-20
4.088670E+03	4.807342E-18	9.629820E-20
4.098522E+03	4.950636E-18	9.876409E-20
4.108374E+03	5.097443E-18	1.012795E-19
4.118227E+03	5.246054E-18	1.038103E-19
4.128079E+03	5.397144E-18	1.063696E-19
4.137931E+03	5.550581E-18	1.089548E-19
4.147783E+03	5.707129E-18	1.115806E-19
4.157635E+03	5.864851E-18	1.142091E-19
4.167488E+03	6.024457E-18	1.168543E-19
4.177340E+03	6.186757E-18	1.195319E-19
4.187192E+03	6.349618E-18	1.222008E-19
4.197044E+03	6.513804E-18	1.248761E-19
4.206897E+03	6.679100E-18	1.275540E-19
4.216749E+03	6.846372E-18	1.302513E-19
4.226601E+03	7.013255E-18	1.329233E-19
4.236453E+03	7.180568E-18	1.355864E-19
4.246305E+03	7.348078E-18	1.382366E-19
4.256158E+03	7.515542E-18	1.408701E-19
4.266010E+03	7.682706E-18	1.434829E-19
4.275862E+03	7.850565E-18	1.460942E-19
4.285714E+03	8.016417E-18	1.486547E-19
4.295567E+03	8.181227E-18	1.511832E-19
4.305419E+03	8.344745E-18	1.536761E-19
4.315271E+03	8.506732E-18	1.561302E-19
4.325123E+03	8.666952E-18	1.585422E-19
4.334975E+03	8.825186E-18	1.609092E-19
4.344828E+03	8.981234E-18	1.632289E-19
4.354680E+03	9.134903E-18	1.654989E-19
4.364532E+03	9.286017E-18	1.677174E-19
4.374384E+03	9.434414E-18	1.698828E-19
4.384236E+03	9.579947E-18	1.719936E-19
4.394089E+03	9.724008E-18	1.740762E-19
4.403941E+03	9.861912E-18	1.760481E-19
4.413793E+03	9.998131E-18	1.779906E-19
4.423645E+03	1.013106E-17	1.798764E-19
4.433498E+03	1.026064E-17	1.817060E-19
4.443350E+03	1.038684E-17	1.834798E-19
4.453202E+03	1.050963E-17	1.851989E-19
4.463054E+03	1.062900E-17	1.868642E-19
4.472906E+03	1.074498E-17	1.884772E-19
4.482759E+03	1.085760E-17	1.900393E-19
4.492611E+03	1.096692E-17	1.915525E-19
4.502463E+03	1.107300E-17	1.930187E-19
4.512315E+03	1.117421E-17	1.944102E-19
4.522167E+03	1.127409E-17	1.957897E-19
4.532020E+03	1.137105E-17	1.971301E-19
4.541872E+03	1.146522E-17	1.984343E-19
4.551724E+03	1.155674E-17	1.997054E-19
4.561576E+03	1.164396E-17	2.009153E-19
4.571429E+03	1.173063E-17	2.021298E-19
4.581281E+03	1.181514E-17	2.033211E-19
4.591133E+03	1.189580E-17	2.044611E-19
4.600985E+03	1.197647E-17	2.056165E-19
4.610837E+03	1.205549E-17	2.067590E-19
4.620690E+03	1.213117E-17	2.078600E-19
4.630542E+03	1.220739E-17	2.089868E-19
4.640394E+03	1.228248E-17	2.101106E-19
4.650246E+03	1.235465E-17	2.112014E-19
4.660099E+03	1.242784E-17	2.123270E-19
4.669951E+03	1.249834E-17	2.134241E-19
4.679803E+03	1.257011E-17	2.145604E-19
4.689655E+03	1.263932E-17	2.156714E-19
4.699507E+03	1.270996E-17	2.168249E-19
4.709360E+03	1.277816E-17	2.179554E-19
4.719212E+03	1.284790E-17	2.191311E-19
4.729064E+03	1.291528E-17	2.202854E-19
4.738916E+03	1.298430E-17	2.214870E-19
4.748768E+03	1.305100E-17	2.226684E-19
4.758621E+03	1.311941E-17	2.238988E-19
4.768473E+03	1.318552E-17	2.251099E-19
4.778325E+03	1.325137E-17	2.263365E-19
4.788177E+03	1.331901E-17	2.276141E-19
4.798030E+03	1.338437E-17	2.288733E-19
4.807882E+03	1.344950E-17	2.301493E-19
4.817734E+03	1.351651E-17	2.314782E-19
4.827586E+03	1.358124E-17	2.327888E-19
4.837438E+03	1.364579E-17	2.341168E-19
4.847291E+03	1.371016E-17	2.354623E-19
4.857143E+03	1.377648E-17	2.368616E-19
4.866995E+03	1.384053E-17	2.382422E-19
4.876847E+03	1.390444E-17	2.396404E-19
4.886700E+03	1.396822E-17	2.410563E-19
4.896552E+03	1.403187E-17	2.424897E-19
4.906404E+03	1.409542E-17	2.439408E-19
4.916256E+03	1.415886E-17	2.454095E-19
4.926108E+03	1.422221E-17	2.468958E-19
4.935961E+03	1.428767E-17	2.484379E-19
4.945813E+03	1.435087E-17	2.499596E-19
4.955665E+03	1.441400E-17	2.514988E-19
4.965517E+03	1.447707E-17	2.530553E-19
4.975369E+03	1.454009E-17	2.546292E-19
4.985222E+03	1.460081E-17	2.561809E-19
4.995074E+03	1.466370E-17	2.577885E-19
5.004926E+03	1.472655E-17	2.594129E-19
5.014778E+03	1.478933E-17	2.610537E-19
5.024631E+03	1.485205E-17	2.627106E-19
5.034483E+03	1.491471E-17	2.643834E-19
5.044335E+03	1.497729E-17	2.660717E-19
5.054187E+03	1.503979E-17	2.677751E-19
5.064039E+03	1.509989E-17	2.694521E-19
5.073892E+03	1.516217E-17	2.711841E-19
5.083744E+03	1.522433E-17	2.729299E-19
5.093596E+03	1.528634E-17	2.746888E-19
5.103448E+03	1.534585E-17	2.764180E-19
5.113300E+03	1.540752E-17	2.782013E-19
5.123153E+03	1.546898E-17	2.799959E-19
5.133005E+03	1.552784E-17	2.817582E-19
5.142857E+03	1.558882E-17	2.835733E-19
5.152709E+03	1.564953E-17	2.853979E-19
5.162562E+03	1.570754E-17	2.871873E-19
5.172414E+03	1.576762E-17	2.890283E-19
5.182266E+03	1.582494E-17	2.908323E-19
5.192118E+03	1.588430E-17	2.926870E-19
5.201970E+03	1.594085E-17	2.945029E-19
5.211823E+03	1.599941E-17	2.963689E-19
5.221675E+03	1.605510E-17	2.981942E-19
5.231527E+03	1.611279E-17	3.000691E-19
5.241379E+03	1.616758E-17	3.019018E-19
5.251232E+03	1.622436E-17	3.037838E-19
5.261084E+03	1.627821E-17	3.056225E-19
5.270936E+03	1.633159E-17	3.074635E-19
5.280788E+03	1.638699E-17	3.093539E-19
5.290640E+03	1.643945E-17	3.111997E-19
5.300493E+03	1.649149E-17	3.130479E-19
5.310345E+03	1.654562E-17	3.149465E-19
5.320197E+03	1.659687E-17	3.168004E-19
5.330049E+03	1.664777E-17	3.186576E-19
5.339901E+03	1.669836E-17	3.205186E-19
5.349754E+03	1.675123E-17	3.224330E-19
5.359606E+03	1.680136E-17	3.243039E-19
5.369458E+03	1.685132E-17	3.261807E-19
5.379310E+03	1.690117E-17	3.280643E-19
5.389163E+03	1.695096E-17	3.299553E-19
5.399015E+03	1.700073E-17	3.318544E-19
5.408867E+03	1.705308E-17	3.338125E-19
5.418719E+03	1.710286E-17	3.357284E-19
5.428571E+03	1.715259E-17	3.376516E-19
5.438424E+03	1.720220E-17	3.395801E-19
5.448276E+03	1.725160E-17	3.415122E-19
5.458128E+03	1.730070E-17	3.434458E-19
5.467980E+03	1.734939E-17	3.453789E-19
5.477833E+03	1.739758E-17	3.473090E-19
5.487685E+03	1.744517E-17	3.492340E-19
5.497537E+03	1.749206E-17	3.511516E-19
5.507389E+03	1.753550E-17	3.530066E-19
5.517241E+03	1.758070E-17	3.549032E-19
5.527094E+03	1.762495E-17	3.567866E-19
5.536946E+03	1.766816E-17	3.586548E-19
5.546798E+03	1.771025E-17	3.605060E-19
5.556650E+03	1.775116E-17	3.623386E-19
5.566502E+03	1.779083E-17	3.641510E-19
5.576355E+03	1.782651E-17	3.658865E-19
5.586207E+03	1.786354E-17	3.676542E-19
5.596059E+03	1.789916E-17	3.693976E-19
5.605911E+03	1.793336E-17	3.711156E-19
5.615764E+03	1.796337E-17	3.727508E-19
5.625616E+03	1.799458E-17	3.744146E-19
5.635468E+03	1.802425E-17	3.760499E-19
5.645320E+03	1.804964E-17	3.775988E-19
5.655172E+03	1.807616E-17	3.791743E-19
5.665025E+03	1.810106E-17	3.807187E-19
5.674877E+03	1.812161E-17	3.821737E-19
5.684729E+03	1.814323E-17	3.836537E-19
5.694581E+03	1.816045E-17	3.850424E-19
5.704433E+03	1.817872E-17	3.864552E-19
5.714286E+03	1.819255E-17	3.877751E-19
5.724138E+03	1.820742E-17	3.891183E-19
5.733990E+03	1.821782E-17	3.903670E-19
5.743842E+03	1.822923E-17	3.916383E-19
5.753695E+03	1.823614E-17	3.928135E-19
5.763547E+03	1.824405E-17	3.940106E-19
5.773399E+03	1.824744E-17	3.951102E-19
5.783251E+03	1.825181E-17	3.962312E-19
5.793103E+03	1.825164E-17	3.972533E-19
5.802956E+03	1.824969E-17	3.982359E-19
5.812808E+03	1.824869E-17	3.992390E-19
5.822660E+03	1.824314E-17	4.001415E-19
5.832512E+03	1.823580E-17	4.010036E-19
5.842365E+03	1.822940E-17	4.018854E-19
5.852217E+03	1.821845E-17	4.026655E-19
5.862069E+03	1.820571E-17	4.034043E-19
5.871921E+03	1.819393E-17	4.041627E-19
5.881773E+03	1.817763E-17	4.048188E-19
5.891626E+03	1.815956E-17	4.054335E-19
5.901478E+03	1.813976E-17	4.060071E-19
5.911330E+03	1.811825E-17	4.065397E-19
5.921182E+03	1.809777E-17	4.070932E-19
5.931034E+03	1.807290E-17	4.075454E-19
5.940887E+03	1.804642E-17	4.079582E-19
5.950739E+03	1.801837E-17	4.083325E-19
5.960591E+03	1.798880E-17	4.086692E-19
5.970443E+03	1.795776E-17	4.089693E-19
5.980296E+03	1.792533E-17	4.092341E-19
5.990148E+03	1.789426E-17	4.095269E-19
6.000000E+03	1.785923E-17	4.097255E-19
6.009852E+03	1.782302E-17	4.098934E-19
6.019704E+03	1.778572E-17	4.100326E-19
6.029557E+03	1.774741E-17	4.101449E-19
6.039409E+03	1.770821E-17	4.102325E-19
6.049261E+03	1.766818E-17	4.102973E-19
6.059113E+03	1.762744E-17	4.103418E-19
6.068966E+03	1.758608E-17	4.103677E-19
6.078818E+03	1.754418E-17	4.103774E-19
6.088670E+03	1.750183E-17	4.103727E-19
6.098522E+03	1.745912E-17	4.103556E-19
6.108374E+03	1.741345E-17	4.102652E-19
6.118227E+03	1.737013E-17	4.102260E-19
6.128079E+03	1.732655E-17	4.101767E-19
6.137931E+03	1.728271E-17	4.101171E-19
6.147783E+03	1.723863E-17	4.100475E-19
6.157635E+03	1.719431E-17	4.099677E-19
6.167488E+03	1.714977E-17	4.098782E-19
6.177340E+03	1.710242E-17	4.097168E-19
6.187192E+03	1.705746E-17	4.096077E-19
6.197044E+03	1.701231E-17	4.094894E-19
6.206897E+03	1.696700E-17	4.093622E-19
6.216749E+03	1.692155E-17	4.092267E-19
6.226601E+03	1.687346E-17	4.090218E-19
6.236453E+03	1.682786E-17	4.088720E-19
6.246305E+03	1.678224E-17	4.087165E-19
6.256158E+03	1.673666E-17	4.085564E-19
6.266010E+03	1.668864E-17	4.083314E-19
6.275862E+03	1.664330E-17	4.081663E-19
6.285714E+03	1.659817E-17	4.080007E-19
6.295567E+03	1.655082E-17	4.077749E-19
6.305419E+03	1.650632E-17	4.076135E-19
6.315271E+03	1.646225E-17	4.074571E-19
6.325123E+03	1.641619E-17	4.072460E-19
6.334975E+03	1.637320E-17	4.071050E-19
6.344828E+03	1.632840E-17	4.069134E-19
6.354680E+03	1.628682E-17	4.067961E-19
6.364532E+03	1.624605E-17	4.066938E-19
6.374384E+03	1.620374E-17	4.065472E-19
6.384236E+03	1.616487E-17	4.064814E-19
6.394089E+03	1.612463E-17	4.063757E-19
6.403941E+03	1.608798E-17	4.063551E-19
6.413793E+03	1.605013E-17	4.062989E-19
6.423645E+03	1.601602E-17	4.063324E-19
6.433498E+03	1.598089E-17	4.063347E-19
6.443350E+03	1.594964E-17	4.064308E-19
6.453202E+03	1.591752E-17	4.064999E-19
6.463054E+03	1.588943E-17	4.066671E-19
6.472906E+03	1.586061E-17	4.068115E-19
6.482759E+03	1.583595E-17	4.070580E-19
6.492611E+03	1.581072E-17	4.072857E-19
6.502463E+03	1.578737E-17	4.075576E-19
6.512315E+03	1.576835E-17	4.079378E-19
6.522167E+03	1.574895E-17	4.083043E-19
6.532020E+03	1.573398E-17	4.087825E-19
6.541872E+03	1.571875E-17	4.092506E-19
6.551724E+03	1.570568E-17	4.097716E-19
6.561576E+03	1.569718E-17	4.104095E-19
6.571429E+03	1.568857E-17	4.110417E-19
6.581281E+03	1.568224E-17	4.117313E-19
6.591133E+03	1.568061E-17	4.125423E-19
6.600985E+03	1.567897E-17	4.133512E-19
6.610837E+03	1.567973E-17	4.142215E-19
6.620690E+03	1.568290E-17	4.151541E-19
6.630542E+03	1.569091E-17	4.162135E-19
6.640394E+03	1.569900E-17	4.172744E-19
6.650246E+03	1.570957E-17	4.184006E-19
6.660099E+03	1.572503E-17	4.196566E-19
6.669951E+03	1.574062E-17	4.209160E-19
6.679803E+03	1.575873E-17	4.222428E-19
6.689655E+03	1.577936E-17	4.236377E-19
6.699507E+03	1.580252E-17	4.251008E-19
6.709360E+03	1.583060E-17	4.266973E-19
6.719212E+03	1.585879E-17	4.282981E-19
6.729064E+03	1.588950E-17	4.299680E-19
6.738916E+03	1.592269E-17	4.317069E-19
6.748768E+03	1.595835E-17	4.335146E-19
6.758621E+03	1.599645E-17	4.353906E-19
6.768473E+03	1.603698E-17	4.373350E-19
6.778325E+03	1.608232E-17	4.394136E-19
6.788177E+03	1.612759E-17	4.414930E-19
6.798030E+03	1.617516E-17	4.436385E-19
6.807882E+03	1.622498E-17	4.458492E-19
6.817734E+03	1.627701E-17	4.481241E-19
6.827586E+03	1.633119E-17	4.504620E-19
6.837438E+03	1.638745E-17	4.528611E-19
6.847291E+03	1.644573E-17	4.553203E-19
6.857143E+03	1.650595E-17	4.578374E-19
6.866995E+03	1.656803E-17	4.604109E-19
6.876847E+03	1.663187E-17	4.630382E-19
6.886700E+03	1.669739E-17	4.657171E-19
6.896552E+03	1.676449E-17	4.684451E-19
6.906404E+03	1.683306E-17	4.712195E-19
6.916256E+03	1.690298E-17	4.740372E-19
6.926108E+03	1.697414E-17	4.768951E-19
6.935961E+03	1.704640E-17	4.797898E-19
6.945813E+03	1.711963E-17	4.827176E-19
6.955665E+03	1.719369E-17	4.856746E-19
6.965517E+03	1.726842E-17	4.886566E-19
6.975369E+03	1.734367E-17	4.916594E-19
6.985222E+03	1.741928E-17	4.946785E-19
6.995074E+03	1.749507E-17	4.977089E-19
7.004926E+03	1.756819E-17	5.006694E-19
7.014778E+03	1.764379E-17	5.037066E-19
7.024631E+03	1.771901E-17	5.067392E-19
7.034483E+03	1.779366E-17	5.097617E-19
7.044335E+03	1.786754E-17	5.127680E-19
7.054187E+03	1.794041E-17	5.157517E-19
7.064039E+03	1.801208E-17	5.187067E-19
7.073892E+03	1.807955E-17	5.215467E-19
7.083744E+03	1.814811E-17	5.244237E-19
7.093596E+03	1.821477E-17	5.272514E-19
7.103448E+03	1.827931E-17	5.300231E-19
7.113300E+03	1.833869E-17	5.326502E-19
7.123153E+03	1.839824E-17	5.352873E-19
7.133005E+03	1.845494E-17	5.378465E-19
7.142857E+03	1.850856E-17	5.403201E-19
7.152709E+03	1.855601E-17	5.426182E-19
7.162562E+03	1.860272E-17	5.448981E-19
7.172414E+03	1.864561E-17	5.470703E-19
7.182266E+03	1.868448E-17	5.491275E-19
7.192118E+03	1.871621E-17	5.509781E-19
7.201970E+03	1.874632E-17	5.527832E-19
7.211823E+03	1.877173E-17	5.544519E-19
7.221675E+03	1.878935E-17	5.558926E-19
7.231527E+03	1.880476E-17	5.572688E-19
7.241379E+03	1.881488E-17	5.584895E-19
7.251232E+03	1.881669E-17	5.594635E-19
7.261084E+03	1.881577E-17	5.603563E-19
7.270936E+03	1.880623E-17	5.609919E-19
7.280788E+03	1.879370E-17	5.615371E-19
7.290640E+03	1.877520E-17	5.619026E-19
7.300493E+03	1.874778E-17	5.619986E-19
7.310345E+03	1.871709E-17	5.619942E-19
7.320197E+03	1.867737E-17	5.617152E-19
7.330049E+03	1.863430E-17	5.613318E-19
7.339901E+03	1.858216E-17	5.606707E-19
7.349754E+03	1.852665E-17	5.599032E-19
7.359606E+03	1.846211E-17	5.588573E-19
7.369458E+03	1.839425E-17	5.577051E-19
7.379310E+03	1.831748E-17	5.562759E-19
7.389163E+03	1.823748E-17	5.547419E-19
7.399015E+03	1.814873E-17	5.529339E-19
7.408867E+03	1.805688E-17	5.510235E-19
7.418719E+03	1.795645E-17	5.488426E-19
7.428571E+03	1.785306E-17	5.465615E-19
7.438424E+03	1.774129E-17	5.440141E-19
7.448276E+03	1.762671E-17	5.413701E-19
7.458128E+03	1.750402E-17	5.384656E-19
7.467980E+03	1.737874E-17	5.354696E-19
7.477833E+03	1.724566E-17	5.322209E-19
7.487685E+03	1.710763E-17	5.288065E-19
7.497537E+03	1.696746E-17	5.253123E-19
7.507389E+03	1.682008E-17	5.215808E-19
7.517241E+03	1.666833E-17	5.176994E-19
7.527094E+03	1.651497E-17	5.137529E-19
7.536946E+03	1.635513E-17	5.095896E-19
7.546798E+03	1.619160E-17	5.052951E-19
7.556650E+03	1.602710E-17	5.009542E-19
7.566502E+03	1.585691E-17	4.964191E-19
7.576355E+03	1.568379E-17	4.917749E-19
7.586207E+03	1.551038E-17	4.871044E-19
7.596059E+03	1.533214E-17	4.822647E-19
7.605911E+03	1.515175E-17	4.773393E-19
7.615764E+03	1.496946E-17	4.723360E-19
7.625616E+03	1.478782E-17	4.673349E-19
7.635468E+03	1.460250E-17	4.621991E-19
7.645320E+03	1.441605E-17	4.570087E-19
