#wls	flux	fluxerr
1.576355E+03	2.076560E-19	9.431646E-21
1.615764E+03	2.114778E-19	9.579151E-21
1.655172E+03	2.140154E-19	9.667029E-21
1.694581E+03	2.151125E-19	9.688694E-21
1.733990E+03	2.147353E-19	9.643160E-21
1.773399E+03	2.125491E-19	9.516024E-21
1.812808E+03	2.081966E-19	9.292088E-21
1.852217E+03	2.013258E-19	8.956628E-21
1.891626E+03	1.916944E-19	8.500041E-21
1.931034E+03	1.793630E-19	7.926306E-21
1.970443E+03	1.649704E-19	7.264899E-21
2.009852E+03	1.499758E-19	6.580947E-21
2.049261E+03	1.366038E-19	5.972150E-21
2.088670E+03	1.272812E-19	5.543556E-21
2.128079E+03	1.237900E-19	5.370576E-21
2.167488E+03	1.267064E-19	5.475181E-21
2.206897E+03	1.354321E-19	5.828261E-21
2.246305E+03	1.484956E-19	6.363548E-21
2.285714E+03	1.642405E-19	7.007846E-21
2.325123E+03	1.810685E-19	7.691561E-21
2.364532E+03	1.979084E-19	8.368562E-21
2.403941E+03	2.140035E-19	9.006767E-21
2.443350E+03	2.290960E-19	9.595599E-21
2.482759E+03	2.430599E-19	1.013020E-20
2.522167E+03	2.559002E-19	1.061129E-20
2.561576E+03	2.678315E-19	1.104824E-20
2.600985E+03	2.789689E-19	1.144619E-20
2.640394E+03	2.894814E-19	1.181240E-20
2.679803E+03	2.995385E-19	1.215400E-20
2.719212E+03	3.093055E-19	1.247784E-20
2.758621E+03	3.189441E-19	1.279045E-20
2.798030E+03	3.286132E-19	1.309810E-20
2.837438E+03	3.384716E-19	1.340694E-20
2.876847E+03	3.487435E-19	1.372548E-20
2.916256E+03	3.594755E-19	1.405510E-20
2.955665E+03	3.709069E-19	1.440456E-20
2.965517E+03	3.739127E-19	1.449645E-20
2.975369E+03	3.769775E-19	1.459010E-20
2.985222E+03	3.800375E-19	1.468305E-20
2.995074E+03	3.832396E-19	1.478095E-20
3.004926E+03	3.865556E-19	1.488270E-20
3.014778E+03	3.900262E-19	1.498981E-20
3.024631E+03	3.936439E-19	1.510199E-20
3.034483E+03	3.974059E-19	1.521907E-20
3.044335E+03	4.012303E-19	1.533791E-20
3.054187E+03	4.052712E-19	1.546436E-20
3.064039E+03	4.094525E-19	1.559548E-20
3.073892E+03	4.137704E-19	1.573109E-20
3.083744E+03	4.182218E-19	1.587104E-20
3.093596E+03	4.228039E-19	1.601520E-20
3.103448E+03	4.275150E-19	1.616346E-20
3.113300E+03	4.322781E-19	1.631288E-20
3.123153E+03	4.372445E-19	1.646917E-20
3.133005E+03	4.423392E-19	1.662944E-20
3.142857E+03	4.475628E-19	1.679369E-20
3.152709E+03	4.529175E-19	1.696196E-20
3.162562E+03	4.584053E-19	1.713431E-20
3.172414E+03	4.640285E-19	1.731078E-20
3.182266E+03	4.697082E-19	1.748840E-20
3.192118E+03	4.756123E-19	1.767339E-20
3.201970E+03	4.816635E-19	1.786283E-20
3.211823E+03	4.878665E-19	1.805687E-20
3.221675E+03	4.942267E-19	1.825566E-20
3.231527E+03	5.007497E-19	1.845936E-20
3.241379E+03	5.074417E-19	1.866817E-20
3.251232E+03	5.143094E-19	1.888228E-20
3.261084E+03	5.212679E-19	1.909855E-20
3.270936E+03	5.285072E-19	1.932389E-20
3.280788E+03	5.359446E-19	1.955521E-20
3.290640E+03	5.435886E-19	1.979279E-20
3.300493E+03	5.514476E-19	2.003686E-20
3.310345E+03	5.595314E-19	2.028773E-20
3.320197E+03	5.678490E-19	2.054567E-20
3.330049E+03	5.764107E-19	2.081098E-20
3.339901E+03	5.851243E-19	2.108030E-20
3.349754E+03	5.942050E-19	2.136130E-20
3.359606E+03	6.035624E-19	2.165066E-20
3.369458E+03	6.132087E-19	2.194875E-20
3.379310E+03	6.231558E-19	2.225590E-20
3.389163E+03	6.334165E-19	2.257251E-20
3.399015E+03	6.440041E-19	2.289896E-20
3.408867E+03	6.549321E-19	2.323566E-20
3.418719E+03	6.662147E-19	2.358301E-20
3.428571E+03	6.778663E-19	2.394142E-20
3.438424E+03	6.897807E-19	2.430708E-20
3.448276E+03	7.022140E-19	2.468890E-20
3.458128E+03	7.150630E-19	2.508313E-20
3.467980E+03	7.283445E-19	2.549027E-20
3.477833E+03	7.420752E-19	2.591077E-20
3.487685E+03	7.562732E-19	2.634516E-20
3.497537E+03	7.709568E-19	2.679393E-20
3.507389E+03	7.861442E-19	2.725761E-20
3.517241E+03	8.018550E-19	2.773674E-20
3.527094E+03	8.181093E-19	2.823188E-20
3.536946E+03	8.347810E-19	2.873853E-20
3.546798E+03	8.521811E-19	2.926728E-20
3.556650E+03	8.701881E-19	2.981377E-20
3.566502E+03	8.888238E-19	3.037859E-20
3.576355E+03	9.081117E-19	3.096237E-20
3.586207E+03	9.280749E-19	3.156573E-20
3.596059E+03	9.487378E-19	3.218932E-20
3.605911E+03	9.701250E-19	3.283379E-20
3.615764E+03	9.922622E-19	3.349982E-20
3.625616E+03	1.015176E-18	3.418809E-20
3.635468E+03	1.038709E-18	3.489317E-20
3.645320E+03	1.063251E-18	3.562787E-20
3.655172E+03	1.088650E-18	3.638691E-20
3.665025E+03	1.114936E-18	3.717102E-20
3.674877E+03	1.142137E-18	3.798095E-20
3.684729E+03	1.170284E-18	3.881742E-20
3.694581E+03	1.199405E-18	3.968119E-20
3.704433E+03	1.229533E-18	4.057302E-20
3.714286E+03	1.260697E-18	4.149367E-20
3.724138E+03	1.292931E-18	4.244393E-20
3.733990E+03	1.326034E-18	4.341695E-20
3.743842E+03	1.360497E-18	4.442854E-20
3.753695E+03	1.396127E-18	4.547203E-20
3.763547E+03	1.432956E-18	4.654821E-20
3.773399E+03	1.471018E-18	4.765785E-20
3.783251E+03	1.510347E-18	4.880171E-20
3.793103E+03	1.550976E-18	4.998054E-20
3.802956E+03	1.592940E-18	5.119510E-20
3.812808E+03	1.636271E-18	5.244611E-20
3.822660E+03	1.681004E-18	5.373431E-20
3.832512E+03	1.726870E-18	5.505077E-20
3.842365E+03	1.774497E-18	5.641517E-20
3.852217E+03	1.823625E-18	5.781878E-20
3.862069E+03	1.874284E-18	5.926223E-20
3.871921E+03	1.926508E-18	6.074611E-20
3.881773E+03	1.980325E-18	6.227100E-20
3.891626E+03	2.035766E-18	6.383740E-20
3.901478E+03	2.092860E-18	6.544579E-20
3.911330E+03	2.151632E-18	6.709662E-20
3.921182E+03	2.211723E-18	6.877826E-20
3.931034E+03	2.273919E-18	7.051473E-20
3.940887E+03	2.337866E-18	7.229459E-20
3.950739E+03	2.403584E-18	7.411805E-20
3.960591E+03	2.471092E-18	7.598520E-20
3.970443E+03	2.540405E-18	7.789613E-20
3.980296E+03	2.611536E-18	7.985078E-20
3.990148E+03	2.684497E-18	8.184905E-20
4.000000E+03	2.758813E-18	8.387608E-20
4.009852E+03	2.835437E-18	8.596048E-20
4.019704E+03	2.913901E-18	8.808754E-20
4.029557E+03	2.994203E-18	9.025676E-20
4.039409E+03	3.076335E-18	9.246751E-20
4.049261E+03	3.160286E-18	9.471904E-20
4.059113E+03	3.246039E-18	9.701046E-20
4.068966E+03	3.332995E-18	9.932351E-20
4.078818E+03	3.422274E-18	1.016912E-19
4.088670E+03	3.513278E-18	1.040954E-19
4.098522E+03	3.605973E-18	1.065347E-19
4.108374E+03	3.700318E-18	1.090075E-19
4.118227E+03	3.796266E-18	1.115122E-19
4.128079E+03	3.893758E-18	1.140468E-19
4.137931E+03	3.992048E-18	1.165891E-19
4.147783E+03	4.092438E-18	1.191770E-19
4.157635E+03	4.194176E-18	1.217883E-19
4.167488E+03	4.297187E-18	1.244206E-19
4.177340E+03	4.401380E-18	1.270711E-19
4.187192E+03	4.506662E-18	1.297371E-19
4.197044E+03	4.612132E-18	1.323924E-19
4.206897E+03	4.719262E-18	1.350794E-19
4.216749E+03	4.827157E-18	1.377723E-19
4.226601E+03	4.935689E-18	1.404675E-19
4.236453E+03	5.044730E-18	1.431614E-19
4.246305E+03	5.153237E-18	1.458245E-19
4.256158E+03	5.262833E-18	1.485030E-19
4.266010E+03	5.372490E-18	1.511679E-19
4.275862E+03	5.482045E-18	1.538148E-19
4.285714E+03	5.591327E-18	1.564393E-19
4.295567E+03	5.700170E-18	1.590369E-19
4.305419E+03	5.807402E-18	1.615756E-19
4.315271E+03	5.914855E-18	1.641066E-19
4.325123E+03	6.021402E-18	1.665992E-19
4.334975E+03	6.126912E-18	1.690500E-19
4.344828E+03	6.230207E-18	1.714273E-19
4.354680E+03	6.333340E-18	1.737882E-19
4.364532E+03	6.435181E-18	1.761021E-19
4.374384E+03	6.535684E-18	1.783683E-19
4.384236E+03	6.634792E-18	1.805859E-19
4.394089E+03	6.731313E-18	1.827232E-19
4.403941E+03	6.827525E-18	1.848427E-19
4.413793E+03	6.922257E-18	1.869131E-19
4.423645E+03	7.015483E-18	1.889346E-19
4.433498E+03	7.105961E-18	1.908743E-19
4.443350E+03	7.196119E-18	1.927982E-19
4.453202E+03	7.284739E-18	1.946742E-19
4.463054E+03	7.371809E-18	1.965027E-19
4.472906E+03	7.456046E-18	1.982501E-19
4.482759E+03	7.540013E-18	1.999855E-19
4.492611E+03	7.622449E-18	2.016759E-19
4.502463E+03	7.703360E-18	2.033222E-19
4.512315E+03	7.781419E-18	2.048900E-19
4.522167E+03	7.859327E-18	2.064512E-19
4.532020E+03	7.935768E-18	2.079718E-19
4.541872E+03	8.010778E-18	2.094534E-19
4.551724E+03	8.082984E-18	2.108608E-19
4.561576E+03	8.155211E-18	2.122684E-19
4.571429E+03	8.226101E-18	2.136414E-19
4.581281E+03	8.294269E-18	2.149446E-19
4.591133E+03	8.362615E-18	2.162537E-19
4.600985E+03	8.429771E-18	2.175338E-19
4.610837E+03	8.494318E-18	2.187492E-19
4.620690E+03	8.559258E-18	2.199776E-19
4.630542E+03	8.623208E-18	2.211840E-19
4.640394E+03	8.684772E-18	2.223332E-19
4.650246E+03	8.747061E-18	2.235055E-19
4.660099E+03	8.808666E-18	2.246653E-19
4.669951E+03	8.868023E-18	2.257734E-19
4.679803E+03	8.928160E-18	2.269073E-19
4.689655E+03	8.987539E-18	2.280284E-19
4.699507E+03	9.044609E-18	2.290980E-19
4.709360E+03	9.102495E-18	2.301958E-19
4.719212E+03	9.159658E-18	2.312833E-19
4.729064E+03	9.214540E-18	2.323218E-19
4.738916E+03	9.270324E-18	2.333920E-19
4.748768E+03	9.325455E-18	2.344553E-19
4.758621E+03	9.378345E-18	2.354722E-19
4.768473E+03	9.432242E-18	2.365249E-19
4.778325E+03	9.485553E-18	2.375739E-19
4.788177E+03	9.536664E-18	2.385793E-19
4.798030E+03	9.588876E-18	2.396241E-19
4.807882E+03	9.638911E-18	2.406269E-19
4.817734E+03	9.690103E-18	2.416714E-19
4.827586E+03	9.740821E-18	2.427169E-19
4.837438E+03	9.789398E-18	2.437222E-19
4.847291E+03	9.839216E-18	2.447713E-19
4.857143E+03	9.886910E-18	2.457808E-19
4.866995E+03	9.935895E-18	2.468356E-19
4.876847E+03	9.984501E-18	2.478942E-19
4.886700E+03	1.003100E-17	2.489140E-19
4.896552E+03	1.007887E-17	2.499809E-19
4.906404E+03	1.012465E-17	2.510095E-19
4.916256E+03	1.017185E-17	2.520865E-19
4.926108E+03	1.021696E-17	2.531255E-19
4.935961E+03	1.026353E-17	2.542137E-19
4.945813E+03	1.030803E-17	2.552643E-19
4.955665E+03	1.035401E-17	2.563649E-19
4.965517E+03	1.039972E-17	2.574722E-19
4.975369E+03	1.044337E-17	2.585419E-19
4.985222E+03	1.048855E-17	2.596629E-19
4.995074E+03	1.053167E-17	2.607463E-19
5.004926E+03	1.057636E-17	2.618815E-19
5.014778E+03	1.061898E-17	2.629790E-19
5.024631E+03	1.066319E-17	2.641290E-19
5.034483E+03	1.070533E-17	2.652409E-19
5.044335E+03	1.074908E-17	2.664056E-19
5.054187E+03	1.079074E-17	2.675319E-19
5.064039E+03	1.083404E-17	2.687115E-19
5.073892E+03	1.087524E-17	2.698522E-19
5.083744E+03	1.091808E-17	2.710463E-19
5.093596E+03	1.095882E-17	2.722009E-19
5.103448E+03	1.100120E-17	2.734092E-19
5.113300E+03	1.104146E-17	2.745772E-19
5.123153E+03	1.108337E-17	2.757990E-19
5.133005E+03	1.112314E-17	2.769796E-19
5.142857E+03	1.116264E-17	2.781662E-19
5.152709E+03	1.120381E-17	2.794063E-19
5.162562E+03	1.124278E-17	2.806039E-19
5.172414E+03	1.128340E-17	2.818549E-19
5.182266E+03	1.132180E-17	2.830622E-19
5.192118E+03	1.136185E-17	2.843225E-19
5.201970E+03	1.139963E-17	2.855380E-19
5.211823E+03	1.143708E-17	2.867567E-19
5.221675E+03	1.147615E-17	2.880276E-19
5.231527E+03	1.151289E-17	2.892514E-19
5.241379E+03	1.155123E-17	2.905266E-19
5.251232E+03	1.158718E-17	2.917531E-19
5.261084E+03	1.162470E-17	2.930301E-19
5.270936E+03	1.165977E-17	2.942563E-19
5.280788E+03	1.169437E-17	2.954812E-19
5.290640E+03	1.173045E-17	2.967546E-19
5.300493E+03	1.176399E-17	2.979740E-19
5.310345E+03	1.179694E-17	2.991889E-19
5.320197E+03	1.183131E-17	3.004498E-19
5.330049E+03	1.186298E-17	3.016525E-19
5.339901E+03	1.189598E-17	3.028989E-19
5.349754E+03	1.192617E-17	3.040837E-19
5.359606E+03	1.195555E-17	3.052572E-19
5.369458E+03	1.198611E-17	3.064701E-19
5.379310E+03	1.201367E-17	3.076158E-19
5.389163E+03	1.204025E-17	3.087451E-19
5.399015E+03	1.206784E-17	3.099093E-19
5.408867E+03	1.209228E-17	3.110009E-19
5.418719E+03	1.211558E-17	3.120717E-19
5.428571E+03	1.213984E-17	3.131754E-19
5.438424E+03	1.216093E-17	3.142055E-19
5.448276E+03	1.218096E-17	3.152157E-19
5.458128E+03	1.219997E-17	3.162070E-19
5.467980E+03	1.222009E-17	3.172342E-19
5.477833E+03	1.223715E-17	3.181893E-19
5.487685E+03	1.225329E-17	3.191275E-19
5.497537E+03	1.227065E-17	3.201040E-19
5.507389E+03	1.228505E-17	3.210097E-19
5.517241E+03	1.229860E-17	3.218996E-19
5.527094E+03	1.231133E-17	3.227743E-19
5.536946E+03	1.232538E-17	3.236894E-19
5.546798E+03	1.233653E-17	3.245343E-19
5.556650E+03	1.234691E-17	3.253646E-19
5.566502E+03	1.235654E-17	3.261802E-19
5.576355E+03	1.236754E-17	3.270374E-19
5.586207E+03	1.237569E-17	3.278244E-19
5.596059E+03	1.238312E-17	3.285970E-19
5.605911E+03	1.238982E-17	3.293551E-19
5.615764E+03	1.239793E-17	3.301554E-19
5.625616E+03	1.240321E-17	3.308847E-19
5.635468E+03	1.240780E-17	3.315996E-19
5.645320E+03	1.241168E-17	3.322999E-19
5.655172E+03	1.241700E-17	3.330426E-19
5.665025E+03	1.241951E-17	3.337136E-19
5.674877E+03	1.242132E-17	3.343698E-19
5.684729E+03	1.242246E-17	3.350112E-19
5.694581E+03	1.242292E-17	3.356375E-19
5.704433E+03	1.242483E-17	3.363066E-19
5.714286E+03	1.242395E-17	3.369029E-19
5.724138E+03	1.242240E-17	3.374841E-19
5.733990E+03	1.242019E-17	3.380501E-19
5.743842E+03	1.241732E-17	3.386010E-19
5.753695E+03	1.241380E-17	3.391366E-19
5.763547E+03	1.241177E-17	3.397151E-19
5.773399E+03	1.240696E-17	3.402202E-19
5.783251E+03	1.240152E-17	3.407102E-19
5.793103E+03	1.239545E-17	3.411849E-19
5.802956E+03	1.238876E-17	3.416444E-19
5.812808E+03	1.238146E-17	3.420888E-19
5.822660E+03	1.237355E-17	3.425182E-19
5.832512E+03	1.236717E-17	3.429914E-19
5.842365E+03	1.235807E-17	3.433910E-19
5.852217E+03	1.234840E-17	3.437760E-19
5.862069E+03	1.233816E-17	3.441467E-19
5.871921E+03	1.232736E-17	3.445028E-19
5.881773E+03	1.231601E-17	3.448448E-19
5.891626E+03	1.230413E-17	3.451729E-19
5.901478E+03	1.229173E-17	3.454873E-19
5.911330E+03	1.227882E-17	3.457883E-19
5.921182E+03	1.226750E-17	3.461352E-19
5.931034E+03	1.225361E-17	3.464101E-19
5.940887E+03	1.223924E-17	3.466722E-19
5.950739E+03	1.222442E-17	3.469220E-19
5.960591E+03	1.220915E-17	3.471598E-19
5.970443E+03	1.219344E-17	3.473856E-19
5.980296E+03	1.217732E-17	3.476000E-19
5.990148E+03	1.216080E-17	3.478031E-19
6.000000E+03	1.214387E-17	3.479951E-19
6.009852E+03	1.212656E-17	3.481763E-19
6.019704E+03	1.210887E-17	3.483469E-19
6.029557E+03	1.209081E-17	3.485069E-19
6.039409E+03	1.207239E-17	3.486567E-19
6.049261E+03	1.205361E-17	3.487961E-19
6.059113E+03	1.203447E-17	3.489252E-19
6.068966E+03	1.201498E-17	3.490442E-19
6.078818E+03	1.199515E-17	3.491532E-19
6.088670E+03	1.197499E-17	3.492524E-19
6.098522E+03	1.195452E-17	3.493426E-19
6.108374E+03	1.193377E-17	3.494244E-19
6.118227E+03	1.191277E-17	3.494987E-19
6.128079E+03	1.189154E-17	3.495662E-19
6.137931E+03	1.187014E-17	3.496279E-19
6.147783E+03	1.184861E-17	3.496852E-19
6.157635E+03	1.182698E-17	3.497392E-19
6.167488E+03	1.180531E-17	3.497910E-19
6.177340E+03	1.178364E-17	3.498419E-19
6.187192E+03	1.176201E-17	3.498932E-19
6.197044E+03	1.174046E-17	3.499456E-19
6.206897E+03	1.171903E-17	3.500006E-19
6.216749E+03	1.169775E-17	3.500588E-19
6.226601E+03	1.167666E-17	3.501214E-19
6.236453E+03	1.165579E-17	3.501894E-19
6.246305E+03	1.163518E-17	3.502635E-19
6.256158E+03	1.161485E-17	3.503448E-19
6.266010E+03	1.159483E-17	3.504341E-19
6.275862E+03	1.157516E-17	3.505325E-19
6.285714E+03	1.155588E-17	3.506407E-19
6.295567E+03	1.153700E-17	3.507597E-19
6.305419E+03	1.151854E-17	3.508900E-19
6.315271E+03	1.150056E-17	3.510332E-19
6.325123E+03	1.148306E-17	3.511895E-19
6.334975E+03	1.146608E-17	3.513601E-19
6.344828E+03	1.144964E-17	3.515456E-19
6.354680E+03	1.143183E-17	3.516870E-19
6.364532E+03	1.141657E-17	3.519054E-19
6.374384E+03	1.140194E-17	3.521415E-19
6.384236E+03	1.138796E-17	3.523962E-19
6.394089E+03	1.137466E-17	3.526702E-19
6.403941E+03	1.136206E-17	3.529645E-19
6.413793E+03	1.135018E-17	3.532800E-19
6.423645E+03	1.133906E-17	3.536173E-19
6.433498E+03	1.132871E-17	3.539772E-19
6.443350E+03	1.131916E-17	3.543608E-19
6.453202E+03	1.130849E-17	3.547080E-19
6.463054E+03	1.130060E-17	3.551408E-19
6.472906E+03	1.129357E-17	3.555995E-19
6.482759E+03	1.128741E-17	3.560848E-19
6.492611E+03	1.128216E-17	3.565973E-19
6.502463E+03	1.127782E-17	3.571379E-19
6.512315E+03	1.127442E-17	3.577071E-19
6.522167E+03	1.127004E-17	3.582441E-19
6.532020E+03	1.126854E-17	3.588722E-19
6.541872E+03	1.126803E-17	3.595308E-19
6.551724E+03	1.126851E-17	3.602204E-19
6.561576E+03	1.126999E-17	3.609414E-19
6.571429E+03	1.127247E-17	3.616944E-19
6.581281E+03	1.127406E-17	3.624178E-19
6.591133E+03	1.127859E-17	3.632357E-19
6.600985E+03	1.128416E-17	3.640869E-19
6.610837E+03	1.129077E-17	3.649716E-19
6.620690E+03	1.129842E-17	3.658897E-19
6.630542E+03	1.130711E-17	3.668420E-19
6.640394E+03	1.131491E-17	3.677652E-19
6.650246E+03	1.132569E-17	3.687856E-19
6.660099E+03	1.133751E-17	3.698402E-19
6.669951E+03	1.135035E-17	3.709289E-19
6.679803E+03	1.136423E-17	3.720520E-19
6.689655E+03	1.137718E-17	3.731452E-19
6.699507E+03	1.139308E-17	3.743360E-19
6.709360E+03	1.140998E-17	3.755606E-19
6.719212E+03	1.142786E-17	3.768183E-19
6.729064E+03	1.144671E-17	3.781093E-19
6.738916E+03	1.146455E-17	3.793678E-19
6.748768E+03	1.148527E-17	3.807230E-19
6.758621E+03	1.150691E-17	3.821099E-19
6.768473E+03	1.152942E-17	3.835273E-19
6.778325E+03	1.155081E-17	3.849089E-19
6.788177E+03	1.157502E-17	3.863857E-19
6.798030E+03	1.160001E-17	3.878906E-19
6.807882E+03	1.162577E-17	3.894230E-19
6.817734E+03	1.165026E-17	3.909145E-19
6.827586E+03	1.167743E-17	3.924979E-19
6.837438E+03	1.170525E-17	3.941054E-19
6.847291E+03	1.173368E-17	3.957350E-19
6.857143E+03	1.176065E-17	3.973179E-19
6.866995E+03	1.179015E-17	3.989881E-19
6.876847E+03	1.182011E-17	4.006761E-19
6.886700E+03	1.185049E-17	4.023805E-19
6.896552E+03	1.187918E-17	4.040298E-19
6.906404E+03	1.191020E-17	4.057607E-19
6.916256E+03	1.194145E-17	4.075019E-19
6.926108E+03	1.197083E-17	4.091813E-19
6.935961E+03	1.200236E-17	4.109365E-19
6.945813E+03	1.203392E-17	4.126955E-19
6.955665E+03	1.206546E-17	4.144559E-19
6.965517E+03	1.209482E-17	4.161437E-19
6.975369E+03	1.212606E-17	4.178986E-19
6.985222E+03	1.215704E-17	4.196469E-19
6.995074E+03	1.218559E-17	4.213136E-19
7.004926E+03	1.221580E-17	4.230399E-19
7.014778E+03	1.224551E-17	4.247509E-19
7.024631E+03	1.227250E-17	4.263701E-19
7.034483E+03	1.230092E-17	4.280406E-19
7.044335E+03	1.232857E-17	4.296864E-19
7.054187E+03	1.235534E-17	4.313037E-19
7.064039E+03	1.237902E-17	4.328149E-19
7.073892E+03	1.240377E-17	4.343652E-19
7.083744E+03	1.242736E-17	4.358765E-19
7.093596E+03	1.244756E-17	4.372703E-19
7.103448E+03	1.246854E-17	4.386929E-19
7.113300E+03	1.248592E-17	4.399900E-19
7.123153E+03	1.250388E-17	4.413088E-19
7.133005E+03	1.252019E-17	4.425702E-19
7.142857E+03	1.253258E-17	4.436939E-19
7.152709E+03	1.254527E-17	4.448287E-19
7.162562E+03	1.255601E-17	4.458945E-19
7.172414E+03	1.256251E-17	4.468105E-19
7.182266E+03	1.256902E-17	4.477265E-19
7.192118E+03	1.257327E-17	4.485617E-19
7.201970E+03	1.257300E-17	4.492353E-19
7.211823E+03	1.257244E-17	4.498978E-19
7.221675E+03	1.256932E-17	4.504682E-19
7.231527E+03	1.256141E-17	4.508652E-19
7.241379E+03	1.255292E-17	4.512405E-19
7.251232E+03	1.253945E-17	4.514348E-19
7.261084E+03	1.252525E-17	4.516005E-19
7.270936E+03	1.250804E-17	4.516558E-19
7.280788E+03	1.248562E-17	4.515204E-19
7.290640E+03	1.246221E-17	4.513460E-19
7.300493E+03	1.243343E-17	4.509744E-19
7.310345E+03	1.240351E-17	4.505575E-19
7.320197E+03	1.237023E-17	4.500151E-19
7.330049E+03	1.233141E-17	4.492671E-19
7.339901E+03	1.229125E-17	4.484655E-19
7.349754E+03	1.224546E-17	4.474539E-19
7.359606E+03	1.219822E-17	4.463840E-19
7.369458E+03	1.214530E-17	4.451008E-19
7.379310E+03	1.209086E-17	4.437559E-19
7.389163E+03	1.203282E-17	4.422727E-19
7.399015E+03	1.196911E-17	4.405747E-19
7.408867E+03	1.190393E-17	4.388156E-19
7.418719E+03	1.183325E-17	4.368464E-19
7.428571E+03	1.176125E-17	4.348208E-19
7.438424E+03	1.168399E-17	4.325926E-19
7.448276E+03	1.160563E-17	4.303153E-19
7.458128E+03	1.152430E-17	4.279188E-19
7.467980E+03	1.143814E-17	4.253340E-19
7.477833E+03	1.135126E-17	4.227129E-19
7.487685E+03	1.125988E-17	4.199142E-19
7.497537E+03	1.116802E-17	4.170877E-19
7.507389E+03	1.107197E-17	4.140945E-19
7.517241E+03	1.097572E-17	4.110828E-19
7.527094E+03	1.087559E-17	4.079152E-19
7.536946E+03	1.077551E-17	4.047380E-19
7.546798E+03	1.067186E-17	4.014156E-19
7.556650E+03	1.056849E-17	3.980925E-19
7.566502E+03	1.046188E-17	3.946353E-19
7.576355E+03	1.035577E-17	3.911855E-19
7.586207E+03	1.024673E-17	3.876127E-19
7.596059E+03	1.013842E-17	3.840557E-19
7.605911E+03	1.002919E-17	3.804516E-19
7.615764E+03	9.917461E-18	3.767402E-19
7.625616E+03	9.806786E-18	3.730566E-19
7.635468E+03	9.693878E-18	3.692756E-19
7.645320E+03	9.582226E-18	3.655300E-19
