#wls	flux	fluxerr
1.600000E+03	2.084168E-17	8.344229E-19
1.640000E+03	2.108190E-17	8.396040E-19
1.680000E+03	2.134089E-17	8.453223E-19
1.720000E+03	2.162232E-17	8.517042E-19
1.760000E+03	2.192679E-17	8.587524E-19
1.800000E+03	2.225809E-17	8.665925E-19
1.840000E+03	2.261693E-17	8.752259E-19
1.880000E+03	2.301359E-17	8.850217E-19
1.920000E+03	2.344581E-17	8.958574E-19
1.960000E+03	2.392097E-17	9.079772E-19
2.000000E+03	2.444658E-17	9.216228E-19
2.040000E+03	2.503037E-17	9.370335E-19
2.080000E+03	2.567380E-17	9.542052E-19
2.120000E+03	2.639147E-17	9.736153E-19
2.160000E+03	2.719178E-17	9.954960E-19
2.200000E+03	2.808010E-17	1.019955E-18
2.240000E+03	2.906525E-17	1.047218E-18
2.280000E+03	3.015968E-17	1.077624E-18
2.320000E+03	3.136936E-17	1.111263E-18
2.360000E+03	3.270032E-17	1.148218E-18
2.400000E+03	3.416550E-17	1.188798E-18
2.440000E+03	3.576407E-17	1.232818E-18
2.480000E+03	3.750876E-17	1.280548E-18
2.520000E+03	3.939447E-17	1.331636E-18
2.560000E+03	4.143651E-17	1.386413E-18
2.600000E+03	4.362806E-17	1.444450E-18
2.640000E+03	4.597880E-17	1.505863E-18
2.680000E+03	4.848597E-17	1.570343E-18
2.720000E+03	5.114807E-17	1.637622E-18
2.760000E+03	5.396812E-17	1.707567E-18
2.800000E+03	5.692682E-17	1.779342E-18
2.840000E+03	6.001866E-17	1.852557E-18
2.880000E+03	6.321723E-17	1.926191E-18
2.920000E+03	6.650013E-17	1.999380E-18
2.960000E+03	6.984380E-17	2.071260E-18
3.000000E+03	7.322549E-17	2.141028E-18
3.010000E+03	7.407640E-17	2.158114E-18
3.020000E+03	7.492361E-17	2.174883E-18
3.030000E+03	7.576972E-17	2.191411E-18
3.040000E+03	7.661724E-17	2.207769E-18
3.050000E+03	7.746487E-17	2.223918E-18
3.060000E+03	7.830753E-17	2.239713E-18
3.070000E+03	7.914739E-17	2.255215E-18
3.080000E+03	7.998309E-17	2.270387E-18
3.090000E+03	8.081284E-17	2.285178E-18
3.100000E+03	8.163880E-17	2.299650E-18
3.110000E+03	8.245534E-17	2.313645E-18
3.120000E+03	8.326814E-17	2.327325E-18
3.130000E+03	8.406773E-17	2.340425E-18
3.140000E+03	8.486316E-17	2.353202E-18
3.150000E+03	8.564118E-17	2.365288E-18
3.160000E+03	8.641054E-17	2.376931E-18
3.170000E+03	8.716517E-17	2.387965E-18
3.180000E+03	8.790623E-17	2.398428E-18
3.190000E+03	8.862756E-17	2.408154E-18
3.200000E+03	8.933004E-17	2.417175E-18
3.210000E+03	9.001445E-17	2.425516E-18
3.220000E+03	9.067441E-17	2.433013E-18
3.230000E+03	9.131035E-17	2.439684E-18
3.240000E+03	9.192278E-17	2.445551E-18
3.250000E+03	9.250839E-17	2.450534E-18
3.260000E+03	9.306061E-17	2.454468E-18
3.270000E+03	9.358293E-17	2.457456E-18
3.280000E+03	9.407195E-17	2.459419E-18
3.290000E+03	9.452109E-17	2.460197E-18
3.300000E+03	9.493363E-17	2.459889E-18
3.310000E+03	9.530608E-17	2.458418E-18
3.320000E+03	9.563849E-17	2.455798E-18
3.330000E+03	9.592448E-17	2.451881E-18
3.340000E+03	9.616107E-17	2.446607E-18
3.350000E+03	9.635485E-17	2.440161E-18
3.360000E+03	9.649711E-17	2.432338E-18
3.370000E+03	9.658877E-17	2.423180E-18
3.380000E+03	9.662815E-17	2.412664E-18
3.390000E+03	9.661710E-17	2.400853E-18
3.400000E+03	9.655780E-17	2.387821E-18
3.410000E+03	9.644501E-17	2.373456E-18
3.420000E+03	9.628538E-17	2.357942E-18
3.430000E+03	9.608111E-17	2.341349E-18
3.440000E+03	9.583288E-17	2.323709E-18
3.450000E+03	9.554567E-17	2.305161E-18
3.460000E+03	9.523094E-17	2.285994E-18
3.470000E+03	9.488926E-17	2.266232E-18
3.480000E+03	9.453361E-17	2.246195E-18
3.490000E+03	9.417655E-17	2.226185E-18
3.500000E+03	9.382897E-17	2.206459E-18
3.510000E+03	9.350966E-17	2.187455E-18
3.520000E+03	9.323675E-17	2.169584E-18
3.530000E+03	9.303724E-17	2.153456E-18
3.540000E+03	9.294075E-17	2.139725E-18
3.550000E+03	9.298053E-17	2.129115E-18
3.560000E+03	9.319706E-17	2.122498E-18
3.570000E+03	9.363640E-17	2.120852E-18
3.580000E+03	9.433824E-17	2.124988E-18
3.590000E+03	9.533181E-17	2.135462E-18
3.600000E+03	9.661904E-17	2.152209E-18
3.610000E+03	9.817174E-17	2.174493E-18
3.620000E+03	9.994242E-17	2.201168E-18
3.630000E+03	1.018673E-16	2.230756E-18
3.640000E+03	1.038835E-16	2.261828E-18
3.650000E+03	1.059296E-16	2.293020E-18
3.660000E+03	1.079487E-16	2.323095E-18
3.670000E+03	1.098904E-16	2.350985E-18
3.680000E+03	1.117124E-16	2.375818E-18
3.690000E+03	1.133821E-16	2.396951E-18
3.700000E+03	1.148786E-16	2.414003E-18
3.710000E+03	1.161917E-16	2.426827E-18
3.720000E+03	1.173315E-16	2.435701E-18
3.730000E+03	1.183139E-16	2.441021E-18
3.740000E+03	1.191734E-16	2.443552E-18
3.750000E+03	1.199566E-16	2.444296E-18
3.760000E+03	1.207235E-16	2.444494E-18
3.770000E+03	1.215366E-16	2.445412E-18
3.780000E+03	1.224704E-16	2.448520E-18
3.790000E+03	1.236006E-16	2.455277E-18
3.800000E+03	1.250016E-16	2.467078E-18
3.810000E+03	1.267483E-16	2.485288E-18
3.820000E+03	1.289122E-16	2.511164E-18
3.830000E+03	1.315590E-16	2.545821E-18
3.840000E+03	1.347454E-16	2.590162E-18
3.850000E+03	1.385234E-16	2.644973E-18
3.860000E+03	1.429300E-16	2.710726E-18
3.870000E+03	1.479909E-16	2.787664E-18
3.880000E+03	1.537182E-16	2.875764E-18
3.890000E+03	1.600995E-16	2.974537E-18
3.900000E+03	1.671049E-16	3.083182E-18
3.910000E+03	1.746831E-16	3.200518E-18
3.920000E+03	1.827553E-16	3.324895E-18
3.930000E+03	1.912140E-16	3.454180E-18
3.940000E+03	1.999287E-16	3.585888E-18
3.950000E+03	2.087474E-16	3.717216E-18
3.960000E+03	2.175018E-16	3.845151E-18
3.970000E+03	2.260155E-16	3.966630E-18
3.980000E+03	2.341134E-16	4.078698E-18
3.990000E+03	2.416279E-16	4.178624E-18
4.000000E+03	2.484170E-16	4.264199E-18
4.010000E+03	2.543622E-16	4.333689E-18
4.020000E+03	2.593729E-16	4.385892E-18
4.030000E+03	2.633949E-16	4.420263E-18
4.040000E+03	2.664078E-16	4.436850E-18
4.050000E+03	2.684276E-16	4.436305E-18
4.060000E+03	2.694913E-16	4.419625E-18
4.070000E+03	2.696777E-16	4.388457E-18
4.080000E+03	2.690773E-16	4.344604E-18
4.090000E+03	2.678102E-16	4.290292E-18
4.100000E+03	2.660054E-16	4.227829E-18
4.110000E+03	2.638064E-16	4.159685E-18
4.120000E+03	2.613525E-16	4.088190E-18
4.130000E+03	2.587824E-16	4.015596E-18
4.140000E+03	2.562266E-16	3.943957E-18
4.150000E+03	2.538006E-16	3.875033E-18
4.160000E+03	2.516114E-16	3.810401E-18
4.170000E+03	2.497445E-16	3.751258E-18
4.180000E+03	2.482710E-16	3.698547E-18
4.190000E+03	2.472418E-16	3.652879E-18
4.200000E+03	2.466939E-16	3.614638E-18
4.210000E+03	2.466482E-16	3.583956E-18
4.220000E+03	2.471078E-16	3.560700E-18
4.230000E+03	2.480647E-16	3.544579E-18
4.240000E+03	2.494925E-16	3.535046E-18
4.250000E+03	2.513623E-16	3.531538E-18
4.260000E+03	2.536193E-16	3.533141E-18
4.270000E+03	2.562027E-16	3.538891E-18
4.280000E+03	2.590364E-16	3.547642E-18
4.290000E+03	2.620257E-16	3.558032E-18
4.300000E+03	2.650579E-16	3.568507E-18
4.310000E+03	2.680067E-16	3.577379E-18
4.320000E+03	2.707268E-16	3.582770E-18
4.330000E+03	2.730742E-16	3.582884E-18
4.340000E+03	2.748934E-16	3.575841E-18
4.350000E+03	2.760577E-16	3.560198E-18
4.360000E+03	2.764441E-16	3.534616E-18
4.370000E+03	2.759899E-16	3.498564E-18
4.380000E+03	2.746801E-16	3.452143E-18
4.390000E+03	2.725846E-16	3.396507E-18
4.400000E+03	2.698603E-16	3.333848E-18
4.410000E+03	2.667454E-16	3.267287E-18
4.420000E+03	2.635108E-16	3.200237E-18
4.430000E+03	2.604369E-16	3.136108E-18
4.440000E+03	2.577847E-16	3.077966E-18
4.450000E+03	2.557812E-16	3.028366E-18
4.460000E+03	2.546113E-16	2.989275E-18
4.470000E+03	2.544133E-16	2.962052E-18
4.480000E+03	2.552908E-16	2.947607E-18
4.490000E+03	2.573089E-16	2.946378E-18
4.500000E+03	2.605004E-16	2.958419E-18
4.510000E+03	2.648544E-16	2.983290E-18
4.520000E+03	2.703407E-16	3.020346E-18
4.530000E+03	2.768766E-16	3.068383E-18
4.540000E+03	2.843455E-16	3.125861E-18
4.550000E+03	2.925953E-16	3.190902E-18
4.560000E+03	3.014269E-16	3.261182E-18
4.570000E+03	3.105970E-16	3.333972E-18
4.580000E+03	3.198377E-16	3.406372E-18
4.590000E+03	3.288535E-16	3.475279E-18
4.600000E+03	3.373321E-16	3.537512E-18
4.610000E+03	3.449633E-16	3.590011E-18
4.620000E+03	3.514614E-16	3.630060E-18
4.630000E+03	3.565800E-16	3.655430E-18
4.640000E+03	3.601363E-16	3.664605E-18
4.650000E+03	3.620427E-16	3.657073E-18
4.660000E+03	3.623253E-16	3.633475E-18
4.670000E+03	3.611331E-16	3.595656E-18
4.680000E+03	3.587333E-16	3.546575E-18
4.690000E+03	3.555072E-16	3.490224E-18
4.700000E+03	3.518807E-16	3.430916E-18
4.710000E+03	3.482902E-16	3.372949E-18
4.720000E+03	3.450667E-16	3.319489E-18
4.730000E+03	3.423662E-16	3.271947E-18
4.740000E+03	3.401586E-16	3.229931E-18
4.750000E+03	3.382940E-16	3.191933E-18
4.760000E+03	3.365854E-16	3.156132E-18
4.770000E+03	3.348703E-16	3.120987E-18
4.780000E+03	3.330591E-16	3.085664E-18
4.790000E+03	3.311265E-16	3.049946E-18
4.800000E+03	3.291159E-16	3.014243E-18
4.810000E+03	3.271019E-16	2.979245E-18
4.820000E+03	3.251991E-16	2.945985E-18
4.830000E+03	3.235216E-16	2.915472E-18
4.840000E+03	3.221959E-16	2.888805E-18
4.850000E+03	3.213301E-16	2.866887E-18
4.860000E+03	3.210129E-16	2.850426E-18
4.870000E+03	3.213238E-16	2.840038E-18
4.880000E+03	3.223040E-16	2.835994E-18
4.890000E+03	3.239690E-16	2.838341E-18
4.900000E+03	3.263076E-16	2.846895E-18
4.910000E+03	3.292741E-16	2.861178E-18
4.920000E+03	3.327922E-16	2.880461E-18
4.930000E+03	3.367589E-16	2.903798E-18
4.940000E+03	3.410342E-16	2.929941E-18
4.950000E+03	3.454636E-16	2.957538E-18
4.960000E+03	3.498600E-16	2.984981E-18
4.970000E+03	3.540104E-16	3.010460E-18
4.980000E+03	3.576903E-16	3.032092E-18
4.990000E+03	3.606725E-16	3.047992E-18
5.000000E+03	3.627478E-16	3.056445E-18
5.010000E+03	3.637400E-16	3.056034E-18
5.020000E+03	3.635452E-16	3.045954E-18
5.030000E+03	3.621486E-16	3.026151E-18
5.040000E+03	3.596349E-16	2.997397E-18
5.050000E+03	3.561694E-16	2.961121E-18
5.060000E+03	3.520031E-16	2.919445E-18
5.070000E+03	3.474262E-16	2.874792E-18
5.080000E+03	3.427383E-16	2.829643E-18
5.090000E+03	3.382196E-16	2.786291E-18
5.100000E+03	3.341125E-16	2.746704E-18
5.110000E+03	3.306036E-16	2.712377E-18
5.120000E+03	3.278431E-16	2.684496E-18
5.130000E+03	3.259139E-16	2.663694E-18
5.140000E+03	3.248597E-16	2.650279E-18
5.150000E+03	3.246852E-16	2.644245E-18
5.160000E+03	3.253673E-16	2.645363E-18
5.170000E+03	3.268659E-16	2.653270E-18
5.180000E+03	3.291378E-16	2.667583E-18
5.190000E+03	3.321289E-16	2.687839E-18
5.200000E+03	3.358148E-16	2.713816E-18
5.210000E+03	3.401679E-16	2.745275E-18
5.220000E+03	3.451831E-16	2.782158E-18
5.230000E+03	3.508546E-16	2.824407E-18
5.240000E+03	3.571764E-16	2.871964E-18
5.250000E+03	3.641435E-16	2.924783E-18
5.260000E+03	3.717213E-16	2.982583E-18
5.270000E+03	3.798510E-16	3.044894E-18
5.280000E+03	3.884376E-16	3.110959E-18
5.290000E+03	3.973540E-16	3.179771E-18
5.300000E+03	4.064415E-16	3.250073E-18
5.310000E+03	4.154961E-16	3.320257E-18
5.320000E+03	4.243023E-16	3.388623E-18
5.330000E+03	4.326079E-16	3.453185E-18
5.340000E+03	4.401577E-16	3.511937E-18
5.350000E+03	4.467015E-16	3.562915E-18
5.360000E+03	4.519947E-16	3.604198E-18
5.370000E+03	4.558235E-16	3.634110E-18
5.380000E+03	4.580382E-16	3.651481E-18
5.390000E+03	4.585386E-16	3.655529E-18
5.400000E+03	4.573402E-16	3.646389E-18
5.410000E+03	4.545740E-16	3.625110E-18
5.420000E+03	4.504975E-16	3.593735E-18
5.430000E+03	4.454988E-16	3.555332E-18
5.440000E+03	4.400530E-16	3.513647E-18
5.450000E+03	4.347196E-16	3.473114E-18
5.460000E+03	4.300805E-16	3.438353E-18
5.470000E+03	4.267095E-16	3.413935E-18
5.480000E+03	4.251023E-16	3.403826E-18
5.490000E+03	4.255772E-16	3.410587E-18
5.500000E+03	4.282325E-16	3.435031E-18
5.510000E+03	4.328648E-16	3.475556E-18
5.520000E+03	4.390622E-16	3.528883E-18
5.530000E+03	4.462844E-16	3.590689E-18
5.540000E+03	4.539450E-16	3.656265E-18
5.550000E+03	4.614932E-16	3.721166E-18
5.560000E+03	4.684695E-16	3.781667E-18
5.570000E+03	4.745314E-16	3.834968E-18
5.580000E+03	4.794906E-16	3.879505E-18
5.590000E+03	4.832968E-16	3.914825E-18
5.600000E+03	4.860236E-16	3.941475E-18
5.610000E+03	4.878282E-16	3.960685E-18
5.620000E+03	4.888749E-16	3.973751E-18
5.630000E+03	4.893233E-16	3.981933E-18
5.640000E+03	4.892710E-16	3.985997E-18
5.650000E+03	4.887467E-16	3.986151E-18
5.660000E+03	4.877251E-16	3.982163E-18
5.670000E+03	4.861242E-16	3.973340E-18
5.680000E+03	4.838317E-16	3.958737E-18
5.690000E+03	4.807270E-16	3.937342E-18
5.700000E+03	4.767057E-16	3.908271E-18
5.710000E+03	4.717082E-16	3.871010E-18
5.720000E+03	4.657242E-16	3.825447E-18
5.730000E+03	4.588221E-16	3.772122E-18
5.740000E+03	4.511397E-16	3.712150E-18
5.750000E+03	4.428857E-16	3.647234E-18
5.760000E+03	4.343213E-16	3.579523E-18
5.770000E+03	4.257621E-16	3.511616E-18
5.780000E+03	4.175288E-16	3.446168E-18
5.790000E+03	4.099411E-16	3.385834E-18
5.800000E+03	4.032933E-16	3.333062E-18
5.810000E+03	3.978273E-16	3.289876E-18
5.820000E+03	3.937206E-16	3.257769E-18
5.830000E+03	3.910929E-16	3.237757E-18
5.840000E+03	3.899721E-16	3.230097E-18
5.850000E+03	3.903249E-16	3.234535E-18
5.860000E+03	3.920469E-16	3.250230E-18
5.870000E+03	3.949606E-16	3.275727E-18
5.880000E+03	3.988463E-16	3.309220E-18
5.890000E+03	4.034473E-16	3.348592E-18
5.900000E+03	4.084865E-16	3.391555E-18
5.910000E+03	4.136985E-16	3.435912E-18
5.920000E+03	4.188109E-16	3.479411E-18
5.930000E+03	4.235914E-16	3.520127E-18
5.940000E+03	4.278291E-16	3.556315E-18
5.950000E+03	4.313449E-16	3.586493E-18
5.960000E+03	4.340123E-16	3.609615E-18
5.970000E+03	4.357501E-16	3.625013E-18
5.980000E+03	4.365311E-16	3.632471E-18
5.990000E+03	4.363872E-16	3.632260E-18
6.000000E+03	4.353863E-16	3.624957E-18
6.010000E+03	4.336345E-16	3.611453E-18
6.020000E+03	4.312636E-16	3.592857E-18
6.030000E+03	4.284131E-16	3.570342E-18
6.040000E+03	4.252285E-16	3.545131E-18
6.050000E+03	4.218526E-16	3.518428E-18
6.060000E+03	4.184414E-16	3.491548E-18
6.070000E+03	4.151271E-16	3.465607E-18
6.080000E+03	4.120463E-16	3.441763E-18
6.090000E+03	4.093105E-16	3.420963E-18
6.100000E+03	4.069897E-16	3.403815E-18
6.110000E+03	4.051278E-16	3.390707E-18
6.120000E+03	4.037120E-16	3.381556E-18
6.130000E+03	4.026991E-16	3.376024E-18
6.140000E+03	4.019952E-16	3.373350E-18
6.150000E+03	4.014874E-16	3.372609E-18
6.160000E+03	4.010427E-16	3.372707E-18
6.170000E+03	4.005105E-16	3.372393E-18
6.180000E+03	3.997633E-16	3.370608E-18
6.190000E+03	3.986932E-16	3.366449E-18
6.200000E+03	3.972273E-16	3.359303E-18
6.210000E+03	3.953366E-16	3.348921E-18
6.220000E+03	3.930181E-16	3.335272E-18
6.230000E+03	3.903040E-16	3.318603E-18
6.240000E+03	3.872417E-16	3.299272E-18
6.250000E+03	3.839052E-16	3.277862E-18
6.260000E+03	3.803816E-16	3.255074E-18
6.270000E+03	3.767810E-16	3.231812E-18
6.280000E+03	3.732068E-16	3.208930E-18
6.290000E+03	3.697696E-16	3.187355E-18
6.300000E+03	3.665752E-16	3.167982E-18
6.310000E+03	3.637234E-16	3.151665E-18
6.320000E+03	3.612893E-16	3.139054E-18
6.330000E+03	3.593395E-16	3.130736E-18
6.340000E+03	3.579140E-16	3.127072E-18
6.350000E+03	3.570398E-16	3.128316E-18
6.360000E+03	3.567336E-16	3.134635E-18
6.370000E+03	3.569903E-16	3.146009E-18
6.380000E+03	3.578022E-16	3.162392E-18
6.390000E+03	3.591412E-16	3.183562E-18
6.400000E+03	3.609804E-16	3.209304E-18
6.410000E+03	3.632675E-16	3.239172E-18
6.420000E+03	3.659506E-16	3.272720E-18
6.430000E+03	3.689709E-16	3.309435E-18
6.440000E+03	3.722664E-16	3.348768E-18
6.450000E+03	3.757793E-16	3.390202E-18
6.460000E+03	3.794586E-16	3.433275E-18
6.470000E+03	3.832540E-16	3.477525E-18
6.480000E+03	3.871398E-16	3.522708E-18
6.490000E+03	3.910665E-16	3.568362E-18
6.500000E+03	3.949986E-16	3.614147E-18
6.510000E+03	3.988935E-16	3.659651E-18
6.520000E+03	4.027221E-16	3.704588E-18
6.530000E+03	4.064327E-16	3.748455E-18
6.540000E+03	4.099818E-16	3.790823E-18
6.550000E+03	4.133291E-16	3.831290E-18
6.560000E+03	4.164217E-16	3.869331E-18
6.570000E+03	4.192188E-16	3.904533E-18
6.580000E+03	4.216770E-16	3.936452E-18
6.590000E+03	4.237596E-16	3.964710E-18
6.600000E+03	4.254384E-16	3.989002E-18
6.610000E+03	4.267015E-16	4.009180E-18
6.620000E+03	4.275374E-16	4.025098E-18
6.630000E+03	4.279601E-16	4.036852E-18
6.640000E+03	4.279916E-16	4.044620E-18
6.650000E+03	4.276670E-16	4.048703E-18
6.660000E+03	4.270360E-16	4.049550E-18
6.670000E+03	4.261395E-16	4.047527E-18
6.680000E+03	4.250278E-16	4.043098E-18
6.690000E+03	4.237342E-16	4.036568E-18
6.700000E+03	4.223049E-16	4.028368E-18
6.710000E+03	4.207623E-16	4.018704E-18
6.720000E+03	4.191316E-16	4.007816E-18
6.730000E+03	4.174392E-16	3.995953E-18
6.740000E+03	4.157197E-16	3.983447E-18
6.750000E+03	4.139960E-16	3.970518E-18
6.760000E+03	4.123008E-16	3.957485E-18
6.770000E+03	4.106490E-16	3.944494E-18
6.780000E+03	4.090652E-16	3.931787E-18
6.790000E+03	4.075386E-16	3.919267E-18
6.800000E+03	4.060661E-16	3.906910E-18
6.810000E+03	4.046317E-16	3.894566E-18
6.820000E+03	4.032107E-16	3.882007E-18
6.830000E+03	4.018002E-16	3.869211E-18
6.840000E+03	4.003852E-16	3.856041E-18
6.850000E+03	3.989656E-16	3.842502E-18
6.860000E+03	3.975508E-16	3.828696E-18
6.870000E+03	3.961583E-16	3.814799E-18
6.880000E+03	3.948112E-16	3.801043E-18
6.890000E+03	3.935356E-16	3.787690E-18
6.900000E+03	3.923574E-16	3.774999E-18
6.910000E+03	3.913001E-16	3.763205E-18
6.920000E+03	3.903823E-16	3.752496E-18
6.930000E+03	3.896229E-16	3.743066E-18
6.940000E+03	3.890159E-16	3.734865E-18
6.950000E+03	3.885739E-16	3.728024E-18
6.960000E+03	3.882853E-16	3.722441E-18
6.970000E+03	3.881404E-16	3.718034E-18
6.980000E+03	3.881200E-16	3.714628E-18
6.990000E+03	3.882217E-16	3.712211E-18
7.000000E+03	3.884230E-16	3.710582E-18
7.010000E+03	3.887070E-16	3.709590E-18
7.020000E+03	3.890567E-16	3.709089E-18
7.030000E+03	3.894546E-16	3.708927E-18
7.040000E+03	3.898839E-16	3.708960E-18
7.050000E+03	3.903278E-16	3.709047E-18
7.060000E+03	3.907642E-16	3.708998E-18
7.070000E+03	3.911919E-16	3.708822E-18
7.080000E+03	3.915920E-16	3.708361E-18
7.090000E+03	3.919544E-16	3.707545E-18
7.100000E+03	3.922658E-16	3.706273E-18
7.110000E+03	3.925371E-16	3.704673E-18
7.120000E+03	3.927582E-16	3.702677E-18
7.130000E+03	3.929521E-16	3.700530E-18
7.140000E+03	3.931267E-16	3.698333E-18
7.150000E+03	3.932929E-16	3.696218E-18
7.160000E+03	3.934839E-16	3.694527E-18
7.170000E+03	3.937120E-16	3.693403E-18
7.180000E+03	3.939946E-16	3.693040E-18
7.190000E+03	3.943459E-16	3.693601E-18
7.200000E+03	3.947849E-16	3.695295E-18
7.210000E+03	3.953136E-16	3.698174E-18
7.220000E+03	3.959464E-16	3.702404E-18
7.230000E+03	3.966812E-16	3.708003E-18
7.240000E+03	3.975291E-16	3.715109E-18
7.250000E+03	3.984911E-16	3.723770E-18
7.260000E+03	3.995730E-16	3.734079E-18
7.270000E+03	4.007551E-16	3.745894E-18
7.280000E+03	4.020421E-16	3.759301E-18
7.290000E+03	4.034197E-16	3.774210E-18
7.300000E+03	4.048674E-16	3.790477E-18
7.310000E+03	4.063520E-16	3.807836E-18
7.320000E+03	4.078666E-16	3.826271E-18
7.330000E+03	4.093634E-16	3.845381E-18
7.340000E+03	4.108083E-16	3.864893E-18
7.350000E+03	4.121820E-16	3.884669E-18
7.360000E+03	4.134408E-16	3.904341E-18
7.370000E+03	4.145545E-16	3.923663E-18
7.380000E+03	4.154738E-16	3.942205E-18
7.390000E+03	4.161520E-16	3.959550E-18
7.400000E+03	4.165432E-16	3.975287E-18
7.410000E+03	4.165840E-16	3.988819E-18
7.420000E+03	4.161911E-16	3.999349E-18
7.430000E+03	4.152781E-16	4.006029E-18
7.440000E+03	4.137511E-16	4.007918E-18
7.450000E+03	4.115158E-16	4.004039E-18
7.460000E+03	4.084913E-16	3.993522E-18
7.470000E+03	4.045862E-16	3.975346E-18
7.480000E+03	3.997543E-16	3.948876E-18
7.490000E+03	3.939701E-16	3.913646E-18
7.500000E+03	3.872449E-16	3.869539E-18
7.510000E+03	3.796166E-16	3.816688E-18
7.520000E+03	3.711980E-16	3.755980E-18
7.530000E+03	3.621089E-16	3.688386E-18
7.540000E+03	3.525192E-16	3.615416E-18
7.550000E+03	3.425974E-16	3.538604E-18
7.560000E+03	3.325193E-16	3.459603E-18
7.570000E+03	3.224517E-16	3.380024E-18
7.580000E+03	3.125365E-16	3.301273E-18
7.590000E+03	3.029084E-16	3.224723E-18
7.600000E+03	2.936589E-16	3.151339E-18
7.610000E+03	2.848814E-16	3.082140E-18
7.620000E+03	2.766222E-16	3.017679E-18
7.630000E+03	2.689254E-16	2.958505E-18
7.640000E+03	2.618106E-16	2.904925E-18
7.650000E+03	2.552765E-16	2.857024E-18
7.660000E+03	2.493193E-16	2.814873E-18
7.670000E+03	2.439088E-16	2.778245E-18
7.680000E+03	2.390319E-16	2.747108E-18
7.690000E+03	2.346388E-16	2.721005E-18
7.700000E+03	2.306997E-16	2.699702E-18
7.710000E+03	2.271619E-16	2.682682E-18
7.720000E+03	2.239902E-16	2.669628E-18
7.730000E+03	2.211341E-16	2.660022E-18
7.740000E+03	2.185483E-16	2.653390E-18
7.750000E+03	2.161927E-16	2.649312E-18
7.760000E+03	2.140147E-16	2.647189E-18
