#wls	flux	fluxerr
1.596185E+03	2.275468E-04	3.888583E-06
1.636090E+03	2.297493E-04	3.911877E-06
1.675994E+03	2.321963E-04	3.938718E-06
1.715899E+03	2.347865E-04	3.967334E-06
1.755804E+03	2.377282E-04	4.001185E-06
1.795708E+03	2.409203E-04	4.038491E-06
1.835613E+03	2.443650E-04	4.079217E-06
1.875518E+03	2.481691E-04	4.125066E-06
1.915422E+03	2.522304E-04	4.174251E-06
1.955327E+03	2.566565E-04	4.228464E-06
1.995231E+03	2.614507E-04	4.287653E-06
2.035136E+03	2.666157E-04	4.351756E-06
2.075041E+03	2.721549E-04	4.420711E-06
2.114945E+03	2.781784E-04	4.496181E-06
2.154850E+03	2.846907E-04	4.578089E-06
2.194755E+03	2.916956E-04	4.666343E-06
2.234659E+03	2.991971E-04	4.760844E-06
2.274564E+03	3.071990E-04	4.861489E-06
2.314468E+03	3.158150E-04	4.969894E-06
2.354373E+03	3.249394E-04	5.084200E-06
2.394278E+03	3.346863E-04	5.205999E-06
2.434182E+03	3.449490E-04	5.333423E-06
2.474087E+03	3.558424E-04	5.468040E-06
2.513992E+03	3.673707E-04	5.609685E-06
2.553896E+03	3.795381E-04	5.758184E-06
2.593801E+03	3.923489E-04	5.913355E-06
2.633705E+03	4.060349E-04	6.078420E-06
2.673610E+03	4.204891E-04	6.251461E-06
2.713515E+03	4.357172E-04	6.432264E-06
2.753419E+03	4.519565E-04	6.623999E-06
2.793324E+03	4.692165E-04	6.826421E-06
2.833229E+03	4.875079E-04	7.039287E-06
2.873133E+03	5.069592E-04	7.264035E-06
2.913038E+03	5.275858E-04	7.500430E-06
2.952942E+03	5.496404E-04	7.751575E-06
2.992847E+03	5.730303E-04	8.015622E-06
3.002823E+03	5.791119E-04	8.083942E-06
3.012799E+03	5.853236E-04	8.153677E-06
3.022776E+03	5.916662E-04	8.224825E-06
3.032752E+03	5.981404E-04	8.297381E-06
3.042728E+03	6.046286E-04	8.369708E-06
3.052704E+03	6.112499E-04	8.443445E-06
3.062680E+03	6.180052E-04	8.518596E-06
3.072656E+03	6.248954E-04	8.595158E-06
3.082633E+03	6.319218E-04	8.673136E-06
3.092609E+03	6.390854E-04	8.752531E-06
3.102585E+03	6.462683E-04	8.831720E-06
3.112561E+03	6.537101E-04	8.913965E-06
3.122537E+03	6.611737E-04	8.996018E-06
3.132513E+03	6.688995E-04	9.081139E-06
3.142489E+03	6.767698E-04	9.167710E-06
3.152466E+03	6.846668E-04	9.254126E-06
3.162442E+03	6.928319E-04	9.343637E-06
3.172418E+03	7.011478E-04	9.434641E-06
3.182394E+03	7.096167E-04	9.527152E-06
3.192370E+03	7.183617E-04	9.622805E-06
3.202346E+03	7.272655E-04	9.720007E-06
3.212323E+03	7.363314E-04	9.818787E-06
3.222299E+03	7.455626E-04	9.919172E-06
3.232275E+03	7.550837E-04	1.002280E-05
3.242251E+03	7.648993E-04	1.012970E-05
3.252227E+03	7.748926E-04	1.023831E-05
3.262203E+03	7.850688E-04	1.034868E-05
3.272179E+03	7.955537E-04	1.046244E-05
3.282156E+03	8.064752E-04	1.058125E-05
3.292132E+03	8.174739E-04	1.070035E-05
3.302108E+03	8.289213E-04	1.082460E-05
3.312084E+03	8.407018E-04	1.095244E-05
3.322060E+03	8.528219E-04	1.108393E-05
3.332036E+03	8.652872E-04	1.121911E-05
3.342013E+03	8.781035E-04	1.135802E-05
3.351989E+03	8.912753E-04	1.150069E-05
3.361965E+03	9.049295E-04	1.164871E-05
3.371941E+03	9.189453E-04	1.180050E-05
3.381917E+03	9.334469E-04	1.195760E-05
3.391893E+03	9.483094E-04	1.211838E-05
3.401870E+03	9.637765E-04	1.228592E-05
3.411846E+03	9.795945E-04	1.245692E-05
3.421822E+03	9.958773E-04	1.263280E-05
3.431798E+03	1.012615E-03	1.281338E-05
3.441774E+03	1.029790E-03	1.299842E-05
3.451750E+03	1.047384E-03	1.318764E-05
3.461726E+03	1.065502E-03	1.338231E-05
3.471703E+03	1.083991E-03	1.358048E-05
3.481679E+03	1.102948E-03	1.378332E-05
3.491655E+03	1.122338E-03	1.399035E-05
3.501631E+03	1.142125E-03	1.420109E-05
3.511607E+03	1.162135E-03	1.441333E-05
3.521583E+03	1.182571E-03	1.462959E-05
3.531560E+03	1.203251E-03	1.484756E-05
3.541536E+03	1.224239E-03	1.506802E-05
3.551512E+03	1.245341E-03	1.528856E-05
3.561488E+03	1.266620E-03	1.550994E-05
3.571464E+03	1.288021E-03	1.573147E-05
3.581440E+03	1.309509E-03	1.595274E-05
3.591417E+03	1.331089E-03	1.617378E-05
3.601393E+03	1.352938E-03	1.639675E-05
3.611369E+03	1.375024E-03	1.662122E-05
3.621345E+03	1.397475E-03	1.684873E-05
3.631321E+03	1.420692E-03	1.708408E-05
3.641297E+03	1.444582E-03	1.732607E-05
3.651273E+03	1.469429E-03	1.757803E-05
3.661250E+03	1.495385E-03	1.784172E-05
3.671226E+03	1.522717E-03	1.812021E-05
3.681202E+03	1.551433E-03	1.841347E-05
3.691178E+03	1.581782E-03	1.872431E-05
3.701154E+03	1.613879E-03	1.905396E-05
3.711130E+03	1.647714E-03	1.940214E-05
3.721107E+03	1.683660E-03	1.977307E-05
3.731083E+03	1.721597E-03	2.016514E-05
3.741059E+03	1.762058E-03	2.058441E-05
3.751035E+03	1.804843E-03	2.102831E-05
3.761011E+03	1.850543E-03	2.150352E-05
3.770987E+03	1.899149E-03	2.200964E-05
3.780963E+03	1.951066E-03	2.255111E-05
3.790940E+03	2.006733E-03	2.313268E-05
3.800916E+03	2.066356E-03	2.375639E-05
3.810892E+03	2.130286E-03	2.442589E-05
3.820868E+03	2.199013E-03	2.514641E-05
3.830844E+03	2.272884E-03	2.592148E-05
3.840820E+03	2.352227E-03	2.675434E-05
3.850797E+03	2.437175E-03	2.764605E-05
3.860773E+03	2.528359E-03	2.860321E-05
3.870749E+03	2.625479E-03	2.962191E-05
3.880725E+03	2.728826E-03	3.070487E-05
3.890701E+03	2.838284E-03	3.185025E-05
3.900677E+03	2.953588E-03	3.305454E-05
3.910654E+03	3.074317E-03	3.431253E-05
3.920630E+03	3.199890E-03	3.561728E-05
3.930606E+03	3.329734E-03	3.696202E-05
3.940582E+03	3.462652E-03	3.833313E-05
3.950558E+03	3.598133E-03	3.972471E-05
3.960534E+03	3.734748E-03	4.112082E-05
3.970510E+03	3.871490E-03	4.251034E-05
3.980487E+03	4.007131E-03	4.387983E-05
3.990463E+03	4.140421E-03	4.521576E-05
4.000439E+03	4.270113E-03	4.650481E-05
4.010415E+03	4.394986E-03	4.773405E-05
4.020391E+03	4.514061E-03	4.889333E-05
4.030367E+03	4.626082E-03	4.996966E-05
4.040344E+03	4.730275E-03	5.095533E-05
4.050320E+03	4.825650E-03	5.184044E-05
4.060296E+03	4.911758E-03	5.262099E-05
4.070272E+03	4.987996E-03	5.329137E-05
4.080248E+03	5.054338E-03	5.385220E-05
4.090224E+03	5.110817E-03	5.430473E-05
4.100201E+03	5.157521E-03	5.465078E-05
4.110177E+03	5.195107E-03	5.489816E-05
4.120153E+03	5.224249E-03	5.505479E-05
4.130129E+03	5.245623E-03	5.512853E-05
4.140105E+03	5.260363E-03	5.513195E-05
4.150081E+03	5.269369E-03	5.507506E-05
4.160057E+03	5.273916E-03	5.497163E-05
4.170034E+03	5.274988E-03	5.483231E-05
4.180010E+03	5.273728E-03	5.466925E-05
4.189986E+03	5.271256E-03	5.449423E-05
4.199962E+03	5.268793E-03	5.431997E-05
4.209938E+03	5.266932E-03	5.415257E-05
4.219914E+03	5.267059E-03	5.400621E-05
4.229891E+03	5.269774E-03	5.388688E-05
4.239867E+03	5.275872E-03	5.380247E-05
4.249843E+03	5.286042E-03	5.375972E-05
4.259819E+03	5.300734E-03	5.376289E-05
4.269795E+03	5.320522E-03	5.381742E-05
4.279771E+03	5.345591E-03	5.392479E-05
4.289748E+03	5.375987E-03	5.408505E-05
4.299724E+03	5.411854E-03	5.429923E-05
4.309700E+03	5.452950E-03	5.456451E-05
4.319676E+03	5.499022E-03	5.487796E-05
4.329652E+03	5.549588E-03	5.523444E-05
4.339628E+03	5.604204E-03	5.562920E-05
4.349604E+03	5.662395E-03	5.605727E-05
4.359581E+03	5.723499E-03	5.651187E-05
4.369557E+03	5.787465E-03	5.699232E-05
4.379533E+03	5.853942E-03	5.749499E-05
4.389509E+03	5.923402E-03	5.802438E-05
4.399485E+03	5.996591E-03	5.858758E-05
4.409461E+03	6.074362E-03	5.919269E-05
4.419438E+03	6.158139E-03	5.985324E-05
4.429414E+03	6.249138E-03	6.058066E-05
4.439390E+03	6.348962E-03	6.138994E-05
4.449366E+03	6.458969E-03	6.229363E-05
4.459342E+03	6.580552E-03	6.330445E-05
4.469318E+03	6.714755E-03	6.443164E-05
4.479294E+03	6.862780E-03	6.568590E-05
4.489271E+03	7.025408E-03	6.707379E-05
4.499247E+03	7.203298E-03	6.860067E-05
4.509223E+03	7.396637E-03	7.026735E-05
4.519199E+03	7.605694E-03	7.207545E-05
4.529175E+03	7.830139E-03	7.402090E-05
4.539151E+03	8.069615E-03	7.609944E-05
4.549128E+03	8.323397E-03	7.830342E-05
4.559104E+03	8.590654E-03	8.062421E-05
4.569080E+03	8.870210E-03	8.305004E-05
4.579056E+03	9.160692E-03	8.556742E-05
4.589032E+03	9.460553E-03	8.816137E-05
4.599008E+03	9.768378E-03	9.081826E-05
4.608985E+03	1.008212E-02	9.351873E-05
4.618961E+03	1.040021E-02	9.624811E-05
4.628937E+03	1.072080E-02	9.898919E-05
4.638913E+03	1.104194E-02	1.017240E-04
4.648889E+03	1.136220E-02	1.044395E-04
4.658865E+03	1.167987E-02	1.071201E-04
4.668841E+03	1.199379E-02	1.097557E-04
4.678818E+03	1.230245E-02	1.123327E-04
4.688794E+03	1.260525E-02	1.148463E-04
4.698770E+03	1.290104E-02	1.172863E-04
4.708746E+03	1.318942E-02	1.196497E-04
4.718722E+03	1.346980E-02	1.219317E-04
4.728698E+03	1.374162E-02	1.241279E-04
4.738675E+03	1.400463E-02	1.262365E-04
4.748651E+03	1.425821E-02	1.282526E-04
4.758627E+03	1.450155E-02	1.301696E-04
4.768603E+03	1.473422E-02	1.319842E-04
4.778579E+03	1.495502E-02	1.336864E-04
4.788555E+03	1.516290E-02	1.352676E-04
4.798532E+03	1.535620E-02	1.367137E-04
4.808508E+03	1.553321E-02	1.380105E-04
4.818484E+03	1.569204E-02	1.391420E-04
4.828460E+03	1.583026E-02	1.400878E-04
4.838436E+03	1.594571E-02	1.408300E-04
4.848412E+03	1.603636E-02	1.413518E-04
4.858388E+03	1.609954E-02	1.416311E-04
4.868365E+03	1.613362E-02	1.416551E-04
4.878341E+03	1.613671E-02	1.414086E-04
4.888317E+03	1.610747E-02	1.408813E-04
4.898293E+03	1.604505E-02	1.400677E-04
4.908269E+03	1.594921E-02	1.389671E-04
4.918245E+03	1.582050E-02	1.375860E-04
4.928222E+03	1.566001E-02	1.359354E-04
4.938198E+03	1.546933E-02	1.340304E-04
4.948174E+03	1.525112E-02	1.318956E-04
4.958150E+03	1.500814E-02	1.295559E-04
4.968126E+03	1.474404E-02	1.270438E-04
4.978102E+03	1.446218E-02	1.243893E-04
4.988078E+03	1.416704E-02	1.216314E-04
4.998055E+03	1.386259E-02	1.188047E-04
5.008031E+03	1.355326E-02	1.159473E-04
5.018007E+03	1.324337E-02	1.130964E-04
5.027983E+03	1.293720E-02	1.102881E-04
5.037959E+03	1.263918E-02	1.075602E-04
5.047935E+03	1.235311E-02	1.049441E-04
5.057912E+03	1.208281E-02	1.024718E-04
5.067888E+03	1.183171E-02	1.001715E-04
5.077864E+03	1.160264E-02	9.806619E-05
5.087840E+03	1.139814E-02	9.617627E-05
5.097816E+03	1.121994E-02	9.451527E-05
5.107792E+03	1.106963E-02	9.309523E-05
5.117769E+03	1.094803E-02	9.192204E-05
5.127745E+03	1.085564E-02	9.099844E-05
5.137721E+03	1.079234E-02	9.032246E-05
5.147697E+03	1.075782E-02	8.989011E-05
5.157673E+03	1.075120E-02	8.969295E-05
5.167649E+03	1.077166E-02	8.972315E-05
5.177625E+03	1.081808E-02	8.997021E-05
5.187602E+03	1.088892E-02	9.042059E-05
5.197578E+03	1.098271E-02	9.106105E-05
5.207554E+03	1.109773E-02	9.187659E-05
5.217530E+03	1.123233E-02	9.285292E-05
5.227506E+03	1.138453E-02	9.397295E-05
5.237482E+03	1.155214E-02	9.521823E-05
5.247459E+03	1.173287E-02	9.656940E-05
5.257435E+03	1.192438E-02	9.800682E-05
5.267411E+03	1.212430E-02	9.951084E-05
5.277387E+03	1.232964E-02	1.010569E-04
5.287363E+03	1.253781E-02	1.026236E-04
5.297339E+03	1.274579E-02	1.041864E-04
5.307316E+03	1.295105E-02	1.057248E-04
5.317292E+03	1.315048E-02	1.072135E-04
5.327268E+03	1.334161E-02	1.086331E-04
5.337244E+03	1.352177E-02	1.099620E-04
5.347220E+03	1.368899E-02	1.111847E-04
5.357196E+03	1.384121E-02	1.122852E-04
5.367172E+03	1.397719E-02	1.132540E-04
5.377149E+03	1.409576E-02	1.140821E-04
5.387125E+03	1.419647E-02	1.147666E-04
5.397101E+03	1.427934E-02	1.153081E-04
5.407077E+03	1.434484E-02	1.157111E-04
5.417053E+03	1.439429E-02	1.159869E-04
5.427029E+03	1.442902E-02	1.161466E-04
5.437006E+03	1.445085E-02	1.162052E-04
5.446982E+03	1.446184E-02	1.161798E-04
5.456958E+03	1.446441E-02	1.160901E-04
5.466934E+03	1.446037E-02	1.159508E-04
5.476910E+03	1.445125E-02	1.157744E-04
5.486886E+03	1.443813E-02	1.155696E-04
5.496862E+03	1.442116E-02	1.153378E-04
5.506839E+03	1.440039E-02	1.150792E-04
5.516815E+03	1.437483E-02	1.147861E-04
5.526791E+03	1.434432E-02	1.144570E-04
5.536767E+03	1.430811E-02	1.140860E-04
5.546743E+03	1.426596E-02	1.136712E-04
5.556719E+03	1.421784E-02	1.132124E-04
5.566696E+03	1.416417E-02	1.127128E-04
5.576672E+03	1.410522E-02	1.121747E-04
5.586648E+03	1.404154E-02	1.116023E-04
5.596624E+03	1.397362E-02	1.109995E-04
5.606600E+03	1.390220E-02	1.103723E-04
5.616576E+03	1.382777E-02	1.097242E-04
5.626553E+03	1.375093E-02	1.090601E-04
5.636529E+03	1.367229E-02	1.083847E-04
5.646505E+03	1.359235E-02	1.077020E-04
5.656481E+03	1.351177E-02	1.070169E-04
5.666457E+03	1.343168E-02	1.063385E-04
5.676433E+03	1.335293E-02	1.056732E-04
5.686409E+03	1.327664E-02	1.050301E-04
5.696386E+03	1.320455E-02	1.044224E-04
5.706362E+03	1.313789E-02	1.038601E-04
5.716338E+03	1.307859E-02	1.033581E-04
5.726314E+03	1.302810E-02	1.029279E-04
5.736290E+03	1.298800E-02	1.025816E-04
5.746266E+03	1.295955E-02	1.023292E-04
5.756243E+03	1.294397E-02	1.021803E-04
5.766219E+03	1.294188E-02	1.021394E-04
5.776195E+03	1.295345E-02	1.022079E-04
5.786171E+03	1.297841E-02	1.023834E-04
5.796147E+03	1.301643E-02	1.026635E-04
5.806123E+03	1.306609E-02	1.030367E-04
5.816100E+03	1.312607E-02	1.034925E-04
5.826076E+03	1.319441E-02	1.040156E-04
5.836052E+03	1.326886E-02	1.045880E-04
5.846028E+03	1.334715E-02	1.051919E-04
5.856004E+03	1.342665E-02	1.058065E-04
5.865980E+03	1.350458E-02	1.064100E-04
5.875956E+03	1.357825E-02	1.069811E-04
5.885933E+03	1.364533E-02	1.075014E-04
5.895909E+03	1.370346E-02	1.079526E-04
5.905885E+03	1.375080E-02	1.083198E-04
5.915861E+03	1.378561E-02	1.085897E-04
5.925837E+03	1.380709E-02	1.087557E-04
5.935813E+03	1.381480E-02	1.088146E-04
5.945790E+03	1.380859E-02	1.087650E-04
5.955766E+03	1.378923E-02	1.086131E-04
5.965742E+03	1.375767E-02	1.083662E-04
5.975718E+03	1.371522E-02	1.080347E-04
5.985694E+03	1.366382E-02	1.076340E-04
5.995670E+03	1.360498E-02	1.071757E-04
6.005647E+03	1.354066E-02	1.066754E-04
6.015623E+03	1.347255E-02	1.061464E-04
6.025599E+03	1.340227E-02	1.056013E-04
6.035575E+03	1.333124E-02	1.050513E-04
6.045551E+03	1.326018E-02	1.045023E-04
6.055527E+03	1.318985E-02	1.039600E-04
6.065503E+03	1.312041E-02	1.034258E-04
6.075480E+03	1.305143E-02	1.028962E-04
6.085456E+03	1.298261E-02	1.023689E-04
6.095432E+03	1.291285E-02	1.018353E-04
6.105408E+03	1.284134E-02	1.012888E-04
6.115384E+03	1.276662E-02	1.007181E-04
6.125360E+03	1.268756E-02	1.001140E-04
6.135337E+03	1.260295E-02	9.946718E-05
6.145313E+03	1.251165E-02	9.876852E-05
6.155289E+03	1.241264E-02	9.800988E-05
6.165265E+03	1.230526E-02	9.718611E-05
6.175241E+03	1.218896E-02	9.629268E-05
6.185217E+03	1.206362E-02	9.532861E-05
6.195193E+03	1.192930E-02	9.429444E-05
6.205170E+03	1.178630E-02	9.319223E-05
6.215146E+03	1.163553E-02	9.202931E-05
6.225122E+03	1.147804E-02	9.081375E-05
6.235098E+03	1.131520E-02	8.955638E-05
6.245074E+03	1.114883E-02	8.827160E-05
6.255050E+03	1.098105E-02	8.697605E-05
6.265027E+03	1.081412E-02	8.568765E-05
6.275003E+03	1.065073E-02	8.442760E-05
6.284979E+03	1.049327E-02	8.321495E-05
6.294955E+03	1.034474E-02	8.207356E-05
6.304931E+03	1.020785E-02	8.102499E-05
6.314907E+03	1.008520E-02	8.008987E-05
6.324884E+03	9.979585E-03	7.929072E-05
6.334860E+03	9.893525E-03	7.864766E-05
6.344836E+03	9.829493E-03	7.818062E-05
6.354812E+03	9.789506E-03	7.790594E-05
6.364788E+03	9.775877E-03	7.784239E-05
6.374764E+03	9.790297E-03	7.800381E-05
6.384740E+03	9.834380E-03	7.840353E-05
6.394717E+03	9.909214E-03	7.905073E-05
6.404693E+03	1.001572E-02	7.995332E-05
6.414669E+03	1.015440E-02	8.111584E-05
6.424645E+03	1.032494E-02	8.253653E-05
6.434621E+03	1.052681E-02	8.421178E-05
6.444597E+03	1.075890E-02	8.613327E-05
6.454574E+03	1.101921E-02	8.828559E-05
6.464550E+03	1.130525E-02	9.064951E-05
6.474526E+03	1.161383E-02	9.319978E-05
6.484502E+03	1.194076E-02	9.590347E-05
6.494478E+03	1.228133E-02	9.872304E-05
6.504454E+03	1.262960E-02	1.016111E-04
6.514431E+03	1.297877E-02	1.045133E-04
6.524407E+03	1.332098E-02	1.073661E-04
6.534383E+03	1.364770E-02	1.101007E-04
6.544359E+03	1.394998E-02	1.126446E-04
6.554335E+03	1.421936E-02	1.149290E-04
6.564311E+03	1.444782E-02	1.168880E-04
6.574287E+03	1.462890E-02	1.184685E-04
6.584264E+03	1.475782E-02	1.196306E-04
6.594240E+03	1.483187E-02	1.203510E-04
6.604216E+03	1.485031E-02	1.206222E-04
6.614192E+03	1.481437E-02	1.204530E-04
6.624168E+03	1.472707E-02	1.198664E-04
6.634144E+03	1.459308E-02	1.188990E-04
6.644121E+03	1.441785E-02	1.175941E-04
6.654097E+03	1.420786E-02	1.160035E-04
6.664073E+03	1.396979E-02	1.141805E-04
6.674049E+03	1.371014E-02	1.121778E-04
6.684025E+03	1.343566E-02	1.100497E-04
6.694001E+03	1.315196E-02	1.078420E-04
6.703977E+03	1.286472E-02	1.056008E-04
6.713954E+03	1.257829E-02	1.033616E-04
6.723930E+03	1.229676E-02	1.011582E-04
6.733906E+03	1.202337E-02	9.901715E-05
6.743882E+03	1.176072E-02	9.696019E-05
6.753858E+03	1.151065E-02	9.500255E-05
6.763834E+03	1.127473E-02	9.315764E-05
6.773811E+03	1.105399E-02	9.143415E-05
6.783787E+03	1.084886E-02	8.983616E-05
6.793763E+03	1.065977E-02	8.836757E-05
6.803739E+03	1.048648E-02	8.702677E-05
6.813715E+03	1.032907E-02	8.581477E-05
6.823691E+03	1.018705E-02	8.472796E-05
6.833668E+03	1.005993E-02	8.376269E-05
6.843644E+03	9.947132E-03	8.291443E-05
6.853620E+03	9.847861E-03	8.217698E-05
6.863596E+03	9.761507E-03	8.154556E-05
6.873572E+03	9.687172E-03	8.101301E-05
6.883548E+03	9.624164E-03	8.057385E-05
6.893524E+03	9.571529E-03	8.022037E-05
6.903501E+03	9.528303E-03	7.994475E-05
6.913477E+03	9.493878E-03	7.974213E-05
6.923453E+03	9.467179E-03	7.960370E-05
6.933429E+03	9.447625E-03	7.952475E-05
6.943405E+03	9.434064E-03	7.949578E-05
6.953381E+03	9.425980E-03	7.951257E-05
6.963358E+03	9.422538E-03	7.956822E-05
6.973334E+03	9.423200E-03	7.965829E-05
6.983310E+03	9.427120E-03	7.977572E-05
6.993286E+03	9.433878E-03	7.991706E-05
7.003262E+03	9.442998E-03	8.007831E-05
7.013238E+03	9.453944E-03	8.025500E-05
7.023215E+03	9.466490E-03	8.044525E-05
7.033191E+03	9.480219E-03	8.064555E-05
7.043167E+03	9.494891E-03	8.085389E-05
7.053143E+03	9.510310E-03	8.106863E-05
7.063119E+03	9.526323E-03	8.128847E-05
7.073095E+03	9.542805E-03	8.151238E-05
7.083071E+03	9.559657E-03	8.173952E-05
7.093048E+03	9.576676E-03	8.196817E-05
7.103024E+03	9.593796E-03	8.219777E-05
7.113000E+03	9.611088E-03	8.242895E-05
7.122976E+03	9.628377E-03	8.266021E-05
7.132952E+03	9.645616E-03	8.289117E-05
7.142928E+03	9.662628E-03	8.312030E-05
7.152905E+03	9.679622E-03	8.334942E-05
7.162881E+03	9.696282E-03	8.357583E-05
7.172857E+03	9.712678E-03	8.380013E-05
7.182833E+03	9.728611E-03	8.402060E-05
7.192809E+03	9.744133E-03	8.423773E-05
7.202785E+03	9.759031E-03	8.444965E-05
7.212762E+03	9.773209E-03	8.465555E-05
7.222738E+03	9.786568E-03	8.485459E-05
7.232714E+03	9.798866E-03	8.504466E-05
7.242690E+03	9.810261E-03	8.522713E-05
7.252666E+03	9.820503E-03	8.539983E-05
7.262642E+03	9.829340E-03	8.556058E-05
7.272618E+03	9.836653E-03	8.570832E-05
7.282595E+03	9.842600E-03	8.584443E-05
7.292571E+03	9.846658E-03	8.596434E-05
7.302547E+03	9.848993E-03	8.606948E-05
7.312523E+03	9.849367E-03	8.615777E-05
7.322499E+03	9.847826E-03	8.622959E-05
7.332475E+03	9.844010E-03	8.628178E-05
7.342452E+03	9.838126E-03	8.631611E-05
7.352428E+03	9.829834E-03	8.632961E-05
7.362404E+03	9.819366E-03	8.632429E-05
7.372380E+03	9.806412E-03	8.629740E-05
7.382356E+03	9.791094E-03	8.624997E-05
7.392332E+03	9.773410E-03	8.618199E-05
7.402308E+03	9.753234E-03	8.609231E-05
7.412285E+03	9.730878E-03	8.598366E-05
7.422261E+03	9.706111E-03	8.585400E-05
7.432237E+03	9.678997E-03	8.570384E-05
7.442213E+03	9.649900E-03	8.553641E-05
7.452189E+03	9.618637E-03	8.535006E-05
7.462165E+03	9.585465E-03	8.514706E-05
7.472142E+03	9.550372E-03	8.492729E-05
7.482118E+03	9.513781E-03	8.469450E-05
7.492094E+03	9.475570E-03	8.444758E-05
7.502070E+03	9.436040E-03	8.418925E-05
7.512046E+03	9.395505E-03	8.392229E-05
7.522022E+03	9.353863E-03	8.364580E-05
7.531999E+03	9.311573E-03	8.336390E-05
7.541975E+03	9.268812E-03	8.307817E-05
7.551951E+03	9.225616E-03	8.278900E-05
7.561927E+03	9.182291E-03	8.249914E-05
7.571903E+03	9.138858E-03	8.220880E-05
7.581879E+03	9.095735E-03	8.192180E-05
7.591855E+03	9.052915E-03	8.163811E-05
7.601832E+03	9.010506E-03	8.135877E-05
7.611808E+03	8.968738E-03	8.108589E-05
7.621784E+03	8.927542E-03	8.081892E-05
7.631760E+03	8.887102E-03	8.055956E-05
7.641736E+03	8.847435E-03	8.030805E-05
7.651712E+03	8.808542E-03	8.006446E-05
7.661689E+03	8.770258E-03	7.982735E-05
7.671665E+03	8.732803E-03	7.959878E-05
7.681641E+03	8.696104E-03	7.937815E-05
7.691617E+03	8.659927E-03	7.916339E-05
7.701593E+03	8.624156E-03	7.895349E-05
7.711569E+03	8.588791E-03	7.874852E-05
7.721546E+03	8.553682E-03	7.854712E-05
7.731522E+03	8.518662E-03	7.834783E-05
7.741498E+03	8.483555E-03	7.814904E-05
