#wls	flux	fluxerr
1.596185E+03	2.124526E-04	1.430825E-05
1.636090E+03	2.148059E-04	1.434216E-05
1.675994E+03	2.173628E-04	1.438406E-05
1.715899E+03	2.201247E-04	1.443355E-05
1.755804E+03	2.230102E-04	1.448483E-05
1.795708E+03	2.261044E-04	1.454302E-05
1.835613E+03	2.293261E-04	1.460240E-05
1.875518E+03	2.328438E-04	1.467321E-05
1.915422E+03	2.364934E-04	1.474447E-05
1.955327E+03	2.403605E-04	1.482104E-05
1.995231E+03	2.444478E-04	1.490248E-05
2.035136E+03	2.487580E-04	1.498832E-05
2.075041E+03	2.532941E-04	1.507809E-05
2.114945E+03	2.581429E-04	1.517625E-05
2.154850E+03	2.631405E-04	1.527241E-05
2.194755E+03	2.684581E-04	1.537586E-05
2.234659E+03	2.740157E-04	1.548119E-05
2.274564E+03	2.798176E-04	1.558789E-05
2.314468E+03	2.858679E-04	1.569547E-05
2.354373E+03	2.921716E-04	1.580343E-05
2.394278E+03	2.988182E-04	1.591579E-05
2.434182E+03	3.057290E-04	1.602743E-05
2.474087E+03	3.129097E-04	1.613788E-05
2.513992E+03	3.204522E-04	1.625104E-05
2.553896E+03	3.281921E-04	1.635771E-05
2.593801E+03	3.363084E-04	1.646614E-05
2.633705E+03	3.448094E-04	1.657575E-05
2.673610E+03	3.535302E-04	1.667781E-05
2.713515E+03	3.626524E-04	1.678029E-05
2.753419E+03	3.721848E-04	1.688271E-05
2.793324E+03	3.821360E-04	1.698464E-05
2.833229E+03	3.925127E-04	1.708562E-05
2.873133E+03	4.033194E-04	1.718522E-05
2.913038E+03	4.147355E-04	1.729039E-05
2.952942E+03	4.266672E-04	1.739646E-05
2.992847E+03	4.392800E-04	1.750965E-05
3.002823E+03	4.425878E-04	1.754090E-05
3.012799E+03	4.459021E-04	1.757109E-05
3.022776E+03	4.492219E-04	1.760023E-05
3.032752E+03	4.526372E-04	1.763183E-05
3.042728E+03	4.560564E-04	1.766230E-05
3.052704E+03	4.595694E-04	1.769513E-05
3.062680E+03	4.631752E-04	1.773024E-05
3.072656E+03	4.666898E-04	1.776061E-05
3.082633E+03	4.703860E-04	1.779664E-05
3.092609E+03	4.740790E-04	1.783130E-05
3.102585E+03	4.778589E-04	1.786799E-05
3.112561E+03	4.816317E-04	1.790319E-05
3.122537E+03	4.855791E-04	1.794366E-05
3.132513E+03	4.894225E-04	1.797909E-05
3.142489E+03	4.934355E-04	1.801957E-05
3.152466E+03	4.974307E-04	1.805823E-05
3.162442E+03	5.015892E-04	1.810168E-05
3.172418E+03	5.057228E-04	1.814308E-05
3.182394E+03	5.099197E-04	1.818566E-05
3.192370E+03	5.141756E-04	1.822927E-05
3.202346E+03	5.183927E-04	1.827047E-05
3.212323E+03	5.227512E-04	1.831566E-05
3.222299E+03	5.271525E-04	1.836137E-05
3.232275E+03	5.315903E-04	1.840741E-05
3.242251E+03	5.360576E-04	1.845358E-05
3.252227E+03	5.405470E-04	1.849966E-05
3.262203E+03	5.451429E-04	1.854859E-05
3.272179E+03	5.496512E-04	1.859380E-05
3.282156E+03	5.542478E-04	1.864132E-05
3.292132E+03	5.588299E-04	1.868774E-05
3.302108E+03	5.634791E-04	1.873584E-05
3.312084E+03	5.680909E-04	1.878223E-05
3.322060E+03	5.727456E-04	1.882961E-05
3.332036E+03	5.773372E-04	1.887460E-05
3.342013E+03	5.819439E-04	1.891985E-05
3.351989E+03	5.864588E-04	1.896198E-05
3.361965E+03	5.909584E-04	1.900359E-05
3.371941E+03	5.954261E-04	1.904423E-05
3.381917E+03	5.998448E-04	1.908347E-05
3.391893E+03	6.041966E-04	1.912086E-05
3.401870E+03	6.083730E-04	1.915312E-05
3.411846E+03	6.125371E-04	1.918552E-05
3.421822E+03	6.165797E-04	1.921476E-05
3.431798E+03	6.204827E-04	1.924045E-05
3.441774E+03	6.242289E-04	1.926220E-05
3.451750E+03	6.278904E-04	1.928240E-05
3.461726E+03	6.312757E-04	1.929533E-05
3.471703E+03	6.346357E-04	1.930884E-05
3.481679E+03	6.377846E-04	1.931741E-05
3.491655E+03	6.407168E-04	1.932104E-05
3.501631E+03	6.436012E-04	1.932500E-05
3.511607E+03	6.462678E-04	1.932430E-05
3.521583E+03	6.488077E-04	1.932184E-05
3.531560E+03	6.512304E-04	1.931804E-05
3.541536E+03	6.535484E-04	1.931338E-05
3.551512E+03	6.557777E-04	1.930848E-05
3.561488E+03	6.579359E-04	1.930395E-05
3.571464E+03	6.601224E-04	1.930282E-05
3.581440E+03	6.622777E-04	1.930343E-05
3.591417E+03	6.645067E-04	1.930891E-05
3.601393E+03	6.667858E-04	1.931866E-05
3.611369E+03	6.692591E-04	1.933690E-05
3.621345E+03	6.719954E-04	1.936567E-05
3.631321E+03	6.750657E-04	1.940703E-05
3.641297E+03	6.785438E-04	1.946312E-05
3.651273E+03	6.824326E-04	1.953406E-05
3.661250E+03	6.870277E-04	1.962828E-05
3.671226E+03	6.921889E-04	1.974172E-05
3.681202E+03	6.981385E-04	1.988064E-05
3.691178E+03	7.049543E-04	2.004718E-05
3.701154E+03	7.126445E-04	2.024150E-05
3.711130E+03	7.213591E-04	2.046782E-05
3.721107E+03	7.311792E-04	2.072840E-05
3.731083E+03	7.421887E-04	2.102560E-05
3.741059E+03	7.544760E-04	2.136193E-05
3.751035E+03	7.681348E-04	2.174007E-05
3.761011E+03	7.833359E-04	2.216491E-05
3.770987E+03	8.001891E-04	2.263964E-05
3.780963E+03	8.187435E-04	2.316575E-05
3.790940E+03	8.391959E-04	2.374895E-05
3.800916E+03	8.616106E-04	2.439126E-05
3.810892E+03	8.862706E-04	2.510091E-05
3.820868E+03	9.133230E-04	2.588232E-05
3.830844E+03	9.427700E-04	2.673587E-05
3.840820E+03	9.749008E-04	2.767013E-05
3.850797E+03	1.009852E-03	2.868936E-05
3.860773E+03	1.047673E-03	2.979549E-05
3.870749E+03	1.088621E-03	3.099626E-05
3.880725E+03	1.132620E-03	3.229012E-05
3.890701E+03	1.179869E-03	3.368337E-05
3.900677E+03	1.230290E-03	3.517439E-05
3.910654E+03	1.283917E-03	3.676484E-05
3.920630E+03	1.340556E-03	3.844990E-05
3.930606E+03	1.400123E-03	4.022780E-05
3.940582E+03	1.462472E-03	4.209515E-05
3.950558E+03	1.527127E-03	4.403884E-05
3.960534E+03	1.593910E-03	4.605444E-05
3.970510E+03	1.662317E-03	4.812794E-05
3.980487E+03	1.731990E-03	5.024947E-05
3.990463E+03	1.802441E-03	5.240530E-05
4.000439E+03	1.873151E-03	5.458069E-05
4.010415E+03	1.943484E-03	5.675723E-05
4.020391E+03	2.013104E-03	5.892522E-05
4.030367E+03	2.081476E-03	6.106891E-05
4.040344E+03	2.147967E-03	6.316955E-05
4.050320E+03	2.212185E-03	6.521528E-05
4.060296E+03	2.273679E-03	6.719228E-05
4.070272E+03	2.332051E-03	6.908819E-05
4.080248E+03	2.386983E-03	7.089288E-05
4.090224E+03	2.438353E-03	7.260192E-05
4.100201E+03	2.485922E-03	7.420733E-05
4.110177E+03	2.529667E-03	7.570743E-05
4.120153E+03	2.569891E-03	7.711036E-05
4.130129E+03	2.606553E-03	7.841392E-05
4.140105E+03	2.640134E-03	7.963171E-05
4.150081E+03	2.670852E-03	8.076941E-05
4.160057E+03	2.699082E-03	8.183757E-05
4.170034E+03	2.725222E-03	8.284755E-05
4.180010E+03	2.749787E-03	8.381442E-05
4.189986E+03	2.773183E-03	8.475001E-05
4.199962E+03	2.795806E-03	8.566601E-05
4.209938E+03	2.817941E-03	8.657082E-05
4.219914E+03	2.840160E-03	8.748182E-05
4.229891E+03	2.862625E-03	8.840381E-05
4.239867E+03	2.885878E-03	8.935351E-05
4.249843E+03	2.910162E-03	9.033849E-05
4.259819E+03	2.935803E-03	9.136893E-05
4.269795E+03	2.963119E-03	9.245494E-05
4.279771E+03	2.992503E-03	9.360904E-05
4.289748E+03	3.024150E-03	9.483765E-05
4.299724E+03	3.058329E-03	9.614962E-05
4.309700E+03	3.095295E-03	9.755340E-05
4.319676E+03	3.135376E-03	9.905980E-05
4.329652E+03	3.178713E-03	1.006738E-04
4.339628E+03	3.225527E-03	1.024030E-04
4.349604E+03	3.276040E-03	1.042550E-04
4.359581E+03	3.330482E-03	1.062379E-04
4.369557E+03	3.389097E-03	1.083600E-04
4.379533E+03	3.452064E-03	1.106278E-04
4.389509E+03	3.519838E-03	1.130565E-04
4.399485E+03	3.592804E-03	1.156595E-04
4.409461E+03	3.671482E-03	1.184543E-04
4.419438E+03	3.756531E-03	1.214631E-04
4.429414E+03	3.848311E-03	1.246986E-04
4.439390E+03	3.947746E-03	1.281919E-04
4.449366E+03	4.055361E-03	1.319612E-04
4.459342E+03	4.171868E-03	1.360311E-04
4.469318E+03	4.297980E-03	1.404262E-04
4.479294E+03	4.434468E-03	1.451730E-04
4.489271E+03	4.581771E-03	1.502877E-04
4.499247E+03	4.740601E-03	1.557950E-04
4.509223E+03	4.911370E-03	1.617101E-04
4.519199E+03	5.094347E-03	1.680435E-04
4.529175E+03	5.289629E-03	1.747999E-04
4.539151E+03	5.497348E-03	1.819850E-04
4.549128E+03	5.716943E-03	1.895819E-04
4.559104E+03	5.948063E-03	1.975799E-04
4.569080E+03	6.190071E-03	2.059589E-04
4.579056E+03	6.441818E-03	2.146816E-04
4.589032E+03	6.702288E-03	2.237145E-04
4.599008E+03	6.970192E-03	2.330151E-04
4.608985E+03	7.244213E-03	2.425394E-04
4.618961E+03	7.522685E-03	2.522312E-04
4.628937E+03	7.804088E-03	2.620392E-04
4.638913E+03	8.086490E-03	2.718978E-04
4.648889E+03	8.368572E-03	2.817614E-04
4.658865E+03	8.648432E-03	2.915647E-04
4.668841E+03	8.924502E-03	3.012535E-04
4.678818E+03	9.195337E-03	3.107771E-04
4.688794E+03	9.459660E-03	3.200907E-04
4.698770E+03	9.716378E-03	3.291554E-04
4.708746E+03	9.964460E-03	3.379342E-04
4.718722E+03	1.020335E-02	3.464061E-04
4.728698E+03	1.043238E-02	3.545466E-04
4.738675E+03	1.065103E-02	3.623362E-04
4.748651E+03	1.085917E-02	3.697678E-04
4.758627E+03	1.105624E-02	3.768213E-04
4.768603E+03	1.124213E-02	3.834907E-04
4.778579E+03	1.141640E-02	3.897588E-04
4.788555E+03	1.157863E-02	3.956105E-04
4.798532E+03	1.172806E-02	4.010175E-04
4.808508E+03	1.186423E-02	4.059623E-04
4.818484E+03	1.198632E-02	4.104161E-04
4.828460E+03	1.209347E-02	4.143470E-04
4.838436E+03	1.218515E-02	4.177363E-04
4.848412E+03	1.226045E-02	4.205512E-04
4.858388E+03	1.231874E-02	4.227688E-04
4.868365E+03	1.235928E-02	4.243626E-04
4.878341E+03	1.238157E-02	4.253150E-04
4.888317E+03	1.238526E-02	4.256123E-04
4.898293E+03	1.237001E-02	4.252423E-04
4.908269E+03	1.233581E-02	4.242043E-04
4.918245E+03	1.228276E-02	4.225013E-04
4.928222E+03	1.221154E-02	4.201564E-04
4.938198E+03	1.212281E-02	4.171923E-04
4.948174E+03	1.201767E-02	4.136469E-04
4.958150E+03	1.189763E-02	4.095722E-04
4.968126E+03	1.176405E-02	4.050158E-04
4.978102E+03	1.161903E-02	4.000500E-04
4.988078E+03	1.146430E-02	3.947352E-04
4.998055E+03	1.130238E-02	3.891587E-04
5.008031E+03	1.113523E-02	3.833890E-04
5.018007E+03	1.096528E-02	3.775101E-04
5.027983E+03	1.079498E-02	3.716076E-04
5.037959E+03	1.062671E-02	3.657639E-04
5.047935E+03	1.046284E-02	3.600614E-04
5.057912E+03	1.030584E-02	3.545855E-04
5.067888E+03	1.015798E-02	3.494149E-04
5.077864E+03	1.002152E-02	3.446279E-04
5.087840E+03	9.898559E-03	3.402968E-04
5.097816E+03	9.790964E-03	3.364861E-04
5.107792E+03	9.700144E-03	3.332441E-04
5.117769E+03	9.627504E-03	3.306189E-04
5.127745E+03	9.574025E-03	3.286438E-04
5.137721E+03	9.540260E-03	3.273373E-04
5.147697E+03	9.526646E-03	3.267139E-04
5.157673E+03	9.533044E-03	3.267679E-04
5.167649E+03	9.559362E-03	3.274955E-04
5.177625E+03	9.605219E-03	3.288825E-04
5.187602E+03	9.670087E-03	3.309100E-04
5.197578E+03	9.753231E-03	3.335517E-04
5.207554E+03	9.853944E-03	3.367823E-04
5.217530E+03	9.971462E-03	3.405745E-04
5.227506E+03	1.010509E-02	3.449035E-04
5.237482E+03	1.025387E-02	3.497357E-04
5.247459E+03	1.041681E-02	3.550355E-04
5.257435E+03	1.059311E-02	3.607752E-04
5.267411E+03	1.078145E-02	3.669086E-04
5.277387E+03	1.098068E-02	3.733955E-04
5.287363E+03	1.118925E-02	3.801821E-04
5.297339E+03	1.140564E-02	3.872160E-04
5.307316E+03	1.162776E-02	3.944261E-04
5.317292E+03	1.185385E-02	4.017521E-04
5.327268E+03	1.208162E-02	4.091157E-04
5.337244E+03	1.230871E-02	4.164370E-04
5.347220E+03	1.253290E-02	4.236419E-04
5.357196E+03	1.275177E-02	4.306478E-04
5.367172E+03	1.296305E-02	4.373799E-04
5.377149E+03	1.316451E-02	4.437631E-04
5.387125E+03	1.335431E-02	4.497372E-04
5.397101E+03	1.353062E-02	4.552417E-04
5.407077E+03	1.369203E-02	4.602309E-04
5.417053E+03	1.383735E-02	4.646664E-04
5.427029E+03	1.396600E-02	4.685311E-04
5.437006E+03	1.407727E-02	4.718029E-04
5.446982E+03	1.417150E-02	4.744957E-04
5.456958E+03	1.424880E-02	4.766150E-04
5.466934E+03	1.430985E-02	4.781858E-04
5.476910E+03	1.435550E-02	4.792384E-04
5.486886E+03	1.438625E-02	4.797917E-04
5.496862E+03	1.440236E-02	4.798568E-04
5.506839E+03	1.440366E-02	4.794291E-04
5.516815E+03	1.439018E-02	4.785115E-04
5.526791E+03	1.436217E-02	4.771133E-04
5.536767E+03	1.431992E-02	4.752457E-04
5.546743E+03	1.426379E-02	4.729217E-04
5.556719E+03	1.419475E-02	4.701749E-04
5.566696E+03	1.411349E-02	4.670287E-04
5.576672E+03	1.402116E-02	4.635223E-04
5.586648E+03	1.391934E-02	4.597093E-04
5.596624E+03	1.380905E-02	4.556234E-04
5.606600E+03	1.369195E-02	4.513207E-04
5.616576E+03	1.356929E-02	4.468424E-04
5.626553E+03	1.344222E-02	4.422268E-04
5.636529E+03	1.331194E-02	4.375139E-04
5.646505E+03	1.317954E-02	4.327396E-04
5.656481E+03	1.304612E-02	4.279399E-04
5.666457E+03	1.291254E-02	4.231432E-04
5.676433E+03	1.278028E-02	4.183981E-04
5.686409E+03	1.265041E-02	4.137388E-04
5.696386E+03	1.252471E-02	4.092238E-04
5.706362E+03	1.240498E-02	4.049111E-04
5.716338E+03	1.229337E-02	4.008704E-04
5.726314E+03	1.219212E-02	3.971737E-04
5.736290E+03	1.210371E-02	3.939004E-04
5.746266E+03	1.203031E-02	3.911204E-04
5.756243E+03	1.197438E-02	3.889117E-04
5.766219E+03	1.193771E-02	3.873310E-04
5.776195E+03	1.192195E-02	3.864293E-04
5.786171E+03	1.192823E-02	3.862418E-04
5.796147E+03	1.195685E-02	3.867756E-04
5.806123E+03	1.200779E-02	3.880282E-04
5.816100E+03	1.208004E-02	3.899645E-04
5.826076E+03	1.217198E-02	3.925304E-04
5.836052E+03	1.228154E-02	3.956574E-04
5.846028E+03	1.240563E-02	3.992439E-04
5.856004E+03	1.254116E-02	4.031895E-04
5.865980E+03	1.268408E-02	4.073628E-04
5.875956E+03	1.283034E-02	4.116333E-04
5.885933E+03	1.297567E-02	4.158642E-04
5.895909E+03	1.311606E-02	4.199268E-04
5.905885E+03	1.324724E-02	4.236857E-04
5.915861E+03	1.336585E-02	4.270340E-04
5.925837E+03	1.346872E-02	4.298723E-04
5.935813E+03	1.355362E-02	4.321312E-04
5.945790E+03	1.361911E-02	4.337665E-04
5.955766E+03	1.366431E-02	4.347527E-04
5.965742E+03	1.368935E-02	4.350959E-04
5.975718E+03	1.369495E-02	4.348213E-04
5.985694E+03	1.368251E-02	4.339750E-04
5.995670E+03	1.365388E-02	4.326185E-04
6.005647E+03	1.361098E-02	4.308135E-04
6.015623E+03	1.355611E-02	4.286348E-04
6.025599E+03	1.349161E-02	4.261578E-04
6.035575E+03	1.341957E-02	4.234491E-04
6.045551E+03	1.334202E-02	4.205741E-04
6.055527E+03	1.326070E-02	4.175882E-04
6.065503E+03	1.317678E-02	4.145287E-04
6.075480E+03	1.309152E-02	4.114362E-04
6.085456E+03	1.300540E-02	4.083253E-04
6.095432E+03	1.291881E-02	4.052089E-04
6.105408E+03	1.283175E-02	4.020877E-04
6.115384E+03	1.274385E-02	3.989496E-04
6.125360E+03	1.265474E-02	3.957840E-04
6.135337E+03	1.256375E-02	3.925701E-04
6.145313E+03	1.247052E-02	3.892966E-04
6.155289E+03	1.237449E-02	3.859471E-04
6.165265E+03	1.227520E-02	3.825075E-04
6.175241E+03	1.217236E-02	3.789691E-04
6.185217E+03	1.206612E-02	3.753373E-04
6.195193E+03	1.195636E-02	3.716086E-04
6.205170E+03	1.184340E-02	3.677934E-04
6.215146E+03	1.172771E-02	3.639070E-04
6.225122E+03	1.160958E-02	3.599586E-04
6.235098E+03	1.148991E-02	3.559761E-04
6.245074E+03	1.136941E-02	3.519819E-04
6.255050E+03	1.124890E-02	3.480017E-04
6.265027E+03	1.112958E-02	3.440725E-04
6.275003E+03	1.101283E-02	3.402368E-04
6.284979E+03	1.090031E-02	3.365461E-04
6.294955E+03	1.079378E-02	3.330546E-04
6.304931E+03	1.069553E-02	3.298323E-04
6.314907E+03	1.060770E-02	3.269451E-04
6.324884E+03	1.053279E-02	3.244694E-04
6.334860E+03	1.047329E-02	3.224817E-04
6.344836E+03	1.043180E-02	3.210610E-04
6.354812E+03	1.041105E-02	3.202913E-04
6.364788E+03	1.041382E-02	3.202573E-04
6.374764E+03	1.044265E-02	3.210369E-04
6.384740E+03	1.050024E-02	3.227124E-04
6.394717E+03	1.058912E-02	3.253618E-04
6.404693E+03	1.071150E-02	3.290529E-04
6.414669E+03	1.086927E-02	3.338435E-04
6.424645E+03	1.106394E-02	3.397811E-04
6.434621E+03	1.129636E-02	3.468922E-04
6.444597E+03	1.156668E-02	3.551821E-04
6.454574E+03	1.187436E-02	3.646350E-04
6.464550E+03	1.221781E-02	3.752025E-04
6.474526E+03	1.259439E-02	3.868051E-04
6.484502E+03	1.300030E-02	3.993266E-04
6.494478E+03	1.343065E-02	4.126184E-04
6.504454E+03	1.387932E-02	4.264932E-04
6.514431E+03	1.433861E-02	4.407161E-04
6.524407E+03	1.479919E-02	4.550011E-04
6.534383E+03	1.524884E-02	4.689730E-04
6.544359E+03	1.567494E-02	4.822438E-04
6.554335E+03	1.606434E-02	4.944084E-04
6.564311E+03	1.640460E-02	5.050831E-04
6.574287E+03	1.668423E-02	5.139121E-04
6.584264E+03	1.689436E-02	5.206198E-04
6.594240E+03	1.702835E-02	5.249977E-04
6.604216E+03	1.708329E-02	5.269526E-04
6.614192E+03	1.705911E-02	5.264781E-04
6.624168E+03	1.695933E-02	5.236781E-04
6.634144E+03	1.678992E-02	5.187324E-04
6.644121E+03	1.655958E-02	5.119056E-04
6.654097E+03	1.627814E-02	5.034974E-04
6.664073E+03	1.595583E-02	4.938206E-04
6.674049E+03	1.560379E-02	4.832169E-04
6.684025E+03	1.523183E-02	4.719876E-04
6.694001E+03	1.484951E-02	4.604272E-04
6.703977E+03	1.446460E-02	4.487751E-04
6.713954E+03	1.408407E-02	4.372466E-04
6.723930E+03	1.371341E-02	4.260119E-04
6.733906E+03	1.335686E-02	4.152027E-04
6.743882E+03	1.301763E-02	4.049191E-04
6.753858E+03	1.269753E-02	3.952179E-04
6.763834E+03	1.239791E-02	3.861419E-04
6.773811E+03	1.211943E-02	3.777123E-04
6.783787E+03	1.186176E-02	3.699201E-04
6.793763E+03	1.162458E-02	3.627557E-04
6.803739E+03	1.140711E-02	3.561959E-04
6.813715E+03	1.120831E-02	3.502095E-04
6.823691E+03	1.102692E-02	3.447576E-04
6.833668E+03	1.086185E-02	3.398068E-04
6.843644E+03	1.071173E-02	3.353150E-04
6.853620E+03	1.057542E-02	3.312473E-04
6.863596E+03	1.045158E-02	3.275626E-04
6.873572E+03	1.033917E-02	3.242285E-04
6.883548E+03	1.023685E-02	3.212033E-04
6.893524E+03	1.014382E-02	3.184625E-04
6.903501E+03	1.005887E-02	3.159686E-04
6.913477E+03	9.981230E-03	3.136974E-04
6.923453E+03	9.910067E-03	3.116233E-04
6.933429E+03	9.844500E-03	3.097186E-04
6.943405E+03	9.783938E-03	3.079649E-04
6.953381E+03	9.727617E-03	3.063384E-04
6.963358E+03	9.674947E-03	3.048205E-04
6.973334E+03	9.625397E-03	3.033947E-04
6.983310E+03	9.578508E-03	3.020465E-04
6.993286E+03	9.533890E-03	3.007638E-04
7.003262E+03	9.491126E-03	2.995333E-04
7.013238E+03	9.450227E-03	2.983556E-04
7.023215E+03	9.410719E-03	2.972157E-04
7.033191E+03	9.372787E-03	2.961195E-04
7.043167E+03	9.336350E-03	2.950645E-04
7.053143E+03	9.301505E-03	2.940537E-04
7.063119E+03	9.268517E-03	2.930958E-04
7.073095E+03	9.237340E-03	2.921893E-04
7.083071E+03	9.208177E-03	2.913407E-04
7.093048E+03	9.181464E-03	2.905639E-04
7.103024E+03	9.157160E-03	2.898578E-04
7.113000E+03	9.135433E-03	2.892277E-04
7.122976E+03	9.116523E-03	2.886814E-04
7.132952E+03	9.100279E-03	2.882142E-04
7.142928E+03	9.086947E-03	2.878340E-04
7.152905E+03	9.076364E-03	2.875359E-04
7.162881E+03	9.068301E-03	2.873126E-04
7.172857E+03	9.062802E-03	2.871657E-04
7.182833E+03	9.059389E-03	2.870802E-04
7.192809E+03	9.057755E-03	2.870464E-04
7.202785E+03	9.057661E-03	2.870571E-04
7.212762E+03	9.058604E-03	2.870962E-04
7.222738E+03	9.060282E-03	2.871545E-04
7.232714E+03	9.062152E-03	2.872148E-04
7.242690E+03	9.063656E-03	2.872596E-04
7.252666E+03	9.064591E-03	2.872828E-04
7.262642E+03	9.064414E-03	2.872671E-04
7.272618E+03	9.062594E-03	2.871961E-04
7.282595E+03	9.058870E-03	2.870617E-04
7.292571E+03	9.052910E-03	2.868536E-04
7.302547E+03	9.044319E-03	2.865596E-04
7.312523E+03	9.033021E-03	2.861774E-04
7.322499E+03	9.018899E-03	2.857037E-04
7.332475E+03	9.001809E-03	2.851343E-04
7.342452E+03	8.981932E-03	2.844751E-04
7.352428E+03	8.959282E-03	2.837271E-04
7.362404E+03	8.934053E-03	2.828965E-04
7.372380E+03	8.906593E-03	2.819948E-04
7.382356E+03	8.877139E-03	2.810299E-04
7.392332E+03	8.845800E-03	2.800056E-04
7.402308E+03	8.813013E-03	2.789360E-04
7.412285E+03	8.778692E-03	2.778188E-04
7.422261E+03	8.743188E-03	2.766655E-04
7.432237E+03	8.706452E-03	2.754749E-04
7.442213E+03	8.668645E-03	2.742524E-04
7.452189E+03	8.629915E-03	2.730032E-04
7.462165E+03	8.590179E-03	2.717250E-04
7.472142E+03	8.549502E-03	2.704202E-04
7.482118E+03	8.507985E-03	2.690923E-04
7.492094E+03	8.465781E-03	2.677467E-04
7.502070E+03	8.423101E-03	2.663903E-04
7.512046E+03	8.380207E-03	2.650319E-04
7.522022E+03	8.337302E-03	2.636782E-04
7.531999E+03	8.294860E-03	2.623445E-04
7.541975E+03	8.253154E-03	2.610400E-04
7.551951E+03	8.212588E-03	2.597777E-04
7.561927E+03	8.173799E-03	2.585783E-04
7.571903E+03	8.136939E-03	2.574469E-04
7.581879E+03	8.102364E-03	2.563951E-04
7.591855E+03	8.070610E-03	2.554405E-04
7.601832E+03	8.041806E-03	2.545875E-04
7.611808E+03	8.016011E-03	2.538385E-04
7.621784E+03	7.993552E-03	2.532044E-04
7.631760E+03	7.974328E-03	2.526824E-04
7.641736E+03	7.958380E-03	2.522745E-04
7.651712E+03	7.945441E-03	2.519728E-04
7.661689E+03	7.935397E-03	2.517742E-04
7.671665E+03	7.927952E-03	2.516700E-04
7.681641E+03	7.922638E-03	2.516459E-04
7.691617E+03	7.919291E-03	2.516975E-04
7.701593E+03	7.917368E-03	2.518080E-04
7.711569E+03	7.916419E-03	2.519638E-04
7.721546E+03	7.915980E-03	2.521507E-04
7.731522E+03	7.915705E-03	2.523583E-04
7.741498E+03	7.915134E-03	2.525726E-04
