#wls	flux	fluxerr
1.596185E+03	1.903690E-05	4.401495E-08
1.636090E+03	1.919937E-05	4.439061E-08
1.675994E+03	1.937137E-05	4.478828E-08
1.715899E+03	1.956463E-05	4.523512E-08
1.755804E+03	1.976295E-05	4.569366E-08
1.795708E+03	1.998368E-05	4.620400E-08
1.835613E+03	2.021640E-05	4.674207E-08
1.875518E+03	2.046742E-05	4.732245E-08
1.915422E+03	2.073756E-05	4.794704E-08
1.955327E+03	2.102233E-05	4.860544E-08
1.995231E+03	2.133362E-05	4.932517E-08
2.035136E+03	2.166171E-05	5.008374E-08
2.075041E+03	2.201867E-05	5.090906E-08
2.114945E+03	2.240048E-05	5.179184E-08
2.154850E+03	2.280867E-05	5.273561E-08
2.194755E+03	2.324494E-05	5.374429E-08
2.234659E+03	2.371653E-05	5.483465E-08
2.274564E+03	2.422556E-05	5.601156E-08
2.314468E+03	2.476897E-05	5.726797E-08
2.354373E+03	2.534933E-05	5.860980E-08
2.394278E+03	2.598039E-05	6.006886E-08
2.434182E+03	2.666003E-05	6.164022E-08
2.474087E+03	2.739189E-05	6.333233E-08
2.513992E+03	2.818009E-05	6.515469E-08
2.553896E+03	2.903485E-05	6.713096E-08
2.593801E+03	2.996152E-05	6.927345E-08
2.633705E+03	3.096038E-05	7.158287E-08
2.673610E+03	3.204966E-05	7.410132E-08
2.713515E+03	3.323728E-05	7.684714E-08
2.753419E+03	3.452624E-05	7.982723E-08
2.793324E+03	3.593862E-05	8.309266E-08
2.833229E+03	3.748006E-05	8.665645E-08
2.873133E+03	3.917631E-05	9.057815E-08
2.913038E+03	4.103006E-05	9.486392E-08
2.952942E+03	4.307796E-05	9.959853E-08
2.992847E+03	4.533354E-05	1.048132E-07
3.002823E+03	4.593008E-05	1.061923E-07
3.012799E+03	4.654521E-05	1.076144E-07
3.022776E+03	4.717241E-05	1.090644E-07
3.032752E+03	4.781904E-05	1.105593E-07
3.042728E+03	4.848558E-05	1.121003E-07
3.052704E+03	4.916541E-05	1.136719E-07
3.062680E+03	4.985889E-05	1.152751E-07
3.072656E+03	5.057359E-05	1.169274E-07
3.082633E+03	5.131004E-05	1.186299E-07
3.092609E+03	5.206146E-05	1.203670E-07
3.102585E+03	5.283562E-05	1.221567E-07
3.112561E+03	5.362562E-05	1.239830E-07
3.122537E+03	5.443938E-05	1.258642E-07
3.132513E+03	5.527747E-05	1.278017E-07
3.142489E+03	5.613285E-05	1.297791E-07
3.152466E+03	5.701363E-05	1.318152E-07
3.162442E+03	5.791264E-05	1.338934E-07
3.172418E+03	5.884597E-05	1.360510E-07
3.182394E+03	5.979067E-05	1.382349E-07
3.192370E+03	6.077095E-05	1.405009E-07
3.202346E+03	6.177147E-05	1.428138E-07
3.212323E+03	6.280078E-05	1.451931E-07
3.222299E+03	6.385125E-05	1.476214E-07
3.232275E+03	6.493987E-05	1.501379E-07
3.242251E+03	6.605067E-05	1.527056E-07
3.252227E+03	6.719249E-05	1.553450E-07
3.262203E+03	6.835730E-05	1.580375E-07
3.272179E+03	6.955404E-05	1.608038E-07
3.282156E+03	7.078320E-05	1.636450E-07
3.292132E+03	7.204527E-05	1.665622E-07
3.302108E+03	7.334067E-05	1.695565E-07
3.312084E+03	7.466080E-05	1.726079E-07
3.322060E+03	7.602392E-05	1.757586E-07
3.332036E+03	7.741220E-05	1.789675E-07
3.342013E+03	7.883485E-05	1.822558E-07
3.351989E+03	8.029203E-05	1.856239E-07
3.361965E+03	8.177427E-05	1.890498E-07
3.371941E+03	8.330042E-05	1.925773E-07
3.381917E+03	8.486094E-05	1.961841E-07
3.391893E+03	8.644575E-05	1.998470E-07
3.401870E+03	8.806402E-05	2.035872E-07
3.411846E+03	8.972522E-05	2.074267E-07
3.421822E+03	9.140872E-05	2.113176E-07
3.431798E+03	9.312354E-05	2.152809E-07
3.441774E+03	9.486859E-05	2.193140E-07
3.451750E+03	9.665303E-05	2.234381E-07
3.461726E+03	9.845459E-05	2.276018E-07
3.471703E+03	1.002819E-04	2.318248E-07
3.481679E+03	1.021329E-04	2.361028E-07
3.491655E+03	1.040163E-04	2.404555E-07
3.501631E+03	1.059080E-04	2.448274E-07
3.511607E+03	1.078271E-04	2.492625E-07
3.521583E+03	1.097485E-04	2.537029E-07
3.531560E+03	1.116912E-04	2.581926E-07
3.541536E+03	1.136408E-04	2.626982E-07
3.551512E+03	1.155935E-04	2.672111E-07
3.561488E+03	1.175457E-04	2.717229E-07
3.571464E+03	1.194936E-04	2.762246E-07
3.581440E+03	1.214336E-04	2.807081E-07
3.591417E+03	1.233743E-04	2.851932E-07
3.601393E+03	1.253021E-04	2.896486E-07
3.611369E+03	1.272165E-04	2.940731E-07
3.621345E+03	1.291168E-04	2.984652E-07
3.631321E+03	1.310030E-04	3.028248E-07
3.641297E+03	1.328875E-04	3.071804E-07
3.651273E+03	1.347580E-04	3.115040E-07
3.661250E+03	1.366153E-04	3.157973E-07
3.671226E+03	1.384724E-04	3.200903E-07
3.681202E+03	1.403181E-04	3.243569E-07
3.691178E+03	1.421532E-04	3.285993E-07
3.701154E+03	1.439785E-04	3.328193E-07
3.711130E+03	1.458078E-04	3.370485E-07
3.721107E+03	1.476420E-04	3.412892E-07
3.731083E+03	1.494566E-04	3.454847E-07
3.741059E+03	1.512779E-04	3.496957E-07
3.751035E+03	1.530938E-04	3.538941E-07
3.761011E+03	1.549178E-04	3.581116E-07
3.770987E+03	1.567379E-04	3.623200E-07
3.780963E+03	1.585675E-04	3.665504E-07
3.790940E+03	1.603943E-04	3.707745E-07
3.800916E+03	1.622187E-04	3.749930E-07
3.810892E+03	1.640541E-04	3.792368E-07
3.820868E+03	1.659009E-04	3.835069E-07
3.830844E+03	1.677466E-04	3.877747E-07
3.840820E+03	1.695914E-04	3.920402E-07
3.850797E+03	1.714486E-04	3.963343E-07
3.860773E+03	1.733054E-04	4.006274E-07
3.870749E+03	1.751748E-04	4.049498E-07
3.880725E+03	1.770444E-04	4.092723E-07
3.890701E+03	1.789271E-04	4.136252E-07
3.900677E+03	1.808229E-04	4.180082E-07
3.910654E+03	1.827194E-04	4.223925E-07
3.913646E+03	5.527382E-05	1.277766E-07
3.914644E+03	5.825121E-05	1.346594E-07
3.915642E+03	6.163644E-05	1.424850E-07
3.916639E+03	6.504965E-05	1.503754E-07
3.917637E+03	6.862794E-05	1.586473E-07
3.918634E+03	7.247054E-05	1.675303E-07
3.919632E+03	7.634737E-05	1.764924E-07
3.920630E+03	8.024898E-05	1.855117E-07
3.921627E+03	8.402092E-05	1.942313E-07
3.922625E+03	8.745845E-05	2.021779E-07
3.923623E+03	9.096173E-05	2.102764E-07
3.924620E+03	9.454337E-05	2.185561E-07
3.925618E+03	9.832149E-05	2.272900E-07
3.926615E+03	1.023890E-04	2.366928E-07
3.927613E+03	1.061599E-04	2.454101E-07
3.928611E+03	1.095492E-04	2.532452E-07
3.929608E+03	1.126075E-04	2.603150E-07
3.930606E+03	1.151835E-04	2.662700E-07
3.931603E+03	1.178128E-04	2.723481E-07
3.932601E+03	1.206038E-04	2.788002E-07
3.933599E+03	1.236827E-04	2.859176E-07
3.934596E+03	1.271895E-04	2.940243E-07
3.935594E+03	1.307935E-04	3.023556E-07
3.936592E+03	1.345670E-04	3.110787E-07
3.937589E+03	1.382282E-04	3.195425E-07
3.938587E+03	1.415161E-04	3.271431E-07
3.939584E+03	1.444667E-04	3.339640E-07
3.940582E+03	1.468646E-04	3.395072E-07
3.941580E+03	1.492118E-04	3.449332E-07
3.942577E+03	1.516610E-04	3.505950E-07
3.943575E+03	1.541493E-04	3.563471E-07
3.944572E+03	1.569205E-04	3.627532E-07
3.945570E+03	1.597872E-04	3.693802E-07
3.946568E+03	1.625467E-04	3.757594E-07
3.947565E+03	1.652114E-04	3.819193E-07
3.948563E+03	1.677342E-04	3.877513E-07
3.949561E+03	1.700995E-04	3.932190E-07
3.950558E+03	1.725430E-04	3.988677E-07
3.951556E+03	1.750177E-04	4.045886E-07
3.952553E+03	1.775551E-04	4.104541E-07
3.953551E+03	1.801864E-04	4.165368E-07
3.954549E+03	1.826758E-04	4.222917E-07
3.955546E+03	1.849292E-04	4.275007E-07
3.956544E+03	1.870093E-04	4.323092E-07
3.957541E+03	1.889791E-04	4.368628E-07
3.958539E+03	1.910901E-04	4.417427E-07
3.959537E+03	1.935466E-04	4.474213E-07
3.960534E+03	1.962073E-04	4.535720E-07
3.961532E+03	1.986160E-04	4.591403E-07
3.962530E+03	2.005530E-04	4.636179E-07
3.963527E+03	2.020182E-04	4.670051E-07
3.964525E+03	2.031846E-04	4.697014E-07
3.965522E+03	2.043824E-04	4.724701E-07
3.966520E+03	2.056113E-04	4.753109E-07
3.967518E+03	2.068558E-04	4.781877E-07
3.968515E+03	2.080216E-04	4.808827E-07
3.969513E+03	2.090773E-04	4.833230E-07
3.970510E+03	2.101484E-04	4.857990E-07
3.971508E+03	2.111409E-04	4.880933E-07
3.972506E+03	2.119763E-04	4.900245E-07
3.973503E+03	2.127329E-04	4.917734E-07
3.974501E+03	2.134266E-04	4.933770E-07
3.975499E+03	2.141359E-04	4.950165E-07
3.976496E+03	2.147038E-04	4.963292E-07
3.977494E+03	2.148790E-04	4.967341E-07
3.978491E+03	2.148343E-04	4.966308E-07
3.979489E+03	2.148211E-04	4.966002E-07
3.980487E+03	2.150276E-04	4.970774E-07
3.981484E+03	2.153283E-04	4.977723E-07
3.982482E+03	2.155818E-04	4.983583E-07
3.983479E+03	2.155214E-04	4.982186E-07
3.984477E+03	2.147545E-04	4.964457E-07
3.985475E+03	2.134855E-04	4.935121E-07
3.986472E+03	2.117773E-04	4.895631E-07
3.987470E+03	2.098808E-04	4.851789E-07
3.988468E+03	2.079219E-04	4.806505E-07
3.989465E+03	2.059005E-04	4.759774E-07
3.990463E+03	2.038949E-04	4.713411E-07
3.991460E+03	2.019210E-04	4.667777E-07
3.992458E+03	1.999629E-04	4.622513E-07
3.993456E+03	1.978169E-04	4.572902E-07
3.994453E+03	1.955299E-04	4.520033E-07
3.995451E+03	1.931020E-04	4.463906E-07
3.996448E+03	1.904706E-04	4.403075E-07
3.997446E+03	1.877610E-04	4.340438E-07
3.998444E+03	1.846911E-04	4.269468E-07
3.999441E+03	1.813550E-04	4.192347E-07
4.000439E+03	1.779878E-04	4.114507E-07
4.001437E+03	1.746368E-04	4.037043E-07
4.002434E+03	1.714273E-04	3.962847E-07
4.003432E+03	1.684847E-04	3.894823E-07
4.004429E+03	1.656209E-04	3.828620E-07
4.005427E+03	1.629768E-04	3.767496E-07
4.006425E+03	1.604898E-04	3.710005E-07
4.007422E+03	1.580189E-04	3.652884E-07
4.008420E+03	1.560183E-04	3.606636E-07
4.009417E+03	1.543034E-04	3.566990E-07
4.010415E+03	1.527216E-04	3.530424E-07
4.011413E+03	1.513220E-04	3.498068E-07
4.012410E+03	1.499365E-04	3.466039E-07
4.013408E+03	1.487096E-04	3.437675E-07
4.014406E+03	1.476550E-04	3.413295E-07
4.015403E+03	1.469577E-04	3.397175E-07
4.016401E+03	1.468762E-04	3.395290E-07
4.017398E+03	1.472864E-04	3.404770E-07
4.018396E+03	1.480333E-04	3.422036E-07
4.019394E+03	1.491826E-04	3.448603E-07
4.020391E+03	1.506544E-04	3.482624E-07
4.021389E+03	1.519239E-04	3.511970E-07
4.022386E+03	1.530743E-04	3.538562E-07
4.023384E+03	1.541510E-04	3.563449E-07
4.024382E+03	1.549738E-04	3.582468E-07
4.025379E+03	1.560845E-04	3.608143E-07
4.026377E+03	1.575583E-04	3.642210E-07
4.027375E+03	1.591446E-04	3.678877E-07
4.028372E+03	1.608871E-04	3.719158E-07
4.029370E+03	1.626608E-04	3.760158E-07
4.030367E+03	1.644028E-04	3.800426E-07
4.031365E+03	1.665359E-04	3.849734E-07
4.032363E+03	1.692320E-04	3.912056E-07
4.033360E+03	1.723972E-04	3.985222E-07
4.034358E+03	1.760468E-04	4.069587E-07
4.035356E+03	1.799307E-04	4.159368E-07
4.036353E+03	1.838923E-04	4.250945E-07
4.037351E+03	1.877282E-04	4.339615E-07
4.038348E+03	1.913290E-04	4.422849E-07
4.039346E+03	1.948979E-04	4.505347E-07
4.040344E+03	1.986228E-04	4.591451E-07
4.041341E+03	2.025348E-04	4.681882E-07
4.042339E+03	2.065089E-04	4.773745E-07
4.043336E+03	2.104511E-04	4.864872E-07
4.044334E+03	2.144084E-04	4.956348E-07
4.045332E+03	2.184589E-04	5.049980E-07
4.046329E+03	2.226652E-04	5.147211E-07
4.047327E+03	2.269178E-04	5.245514E-07
4.048325E+03	2.312011E-04	5.344525E-07
4.049322E+03	2.354994E-04	5.443883E-07
4.050320E+03	2.396253E-04	5.539256E-07
4.051317E+03	2.435942E-04	5.630999E-07
4.052315E+03	2.473594E-04	5.718034E-07
4.053313E+03	2.509836E-04	5.801807E-07
4.054310E+03	2.546072E-04	5.885568E-07
4.055308E+03	2.582458E-04	5.969677E-07
4.056305E+03	2.618371E-04	6.052690E-07
4.057303E+03	2.650998E-04	6.128109E-07
4.058301E+03	2.678154E-04	6.190878E-07
4.059298E+03	2.703275E-04	6.248944E-07
4.060296E+03	2.729642E-04	6.309892E-07
4.061294E+03	2.758816E-04	6.377327E-07
4.062291E+03	2.790484E-04	6.450528E-07
4.063289E+03	2.821523E-04	6.522274E-07
4.064286E+03	2.851153E-04	6.590763E-07
4.065284E+03	2.879061E-04	6.655271E-07
4.066282E+03	2.905247E-04	6.715799E-07
4.067279E+03	2.930649E-04	6.774514E-07
4.068277E+03	2.954642E-04	6.829972E-07
4.069274E+03	2.975978E-04	6.879288E-07
4.070272E+03	2.994658E-04	6.922464E-07
4.071270E+03	3.010370E-04	6.958779E-07
4.072267E+03	3.024206E-04	6.990759E-07
4.073265E+03	3.037416E-04	7.021290E-07
4.074263E+03	3.050468E-04	7.051456E-07
4.075260E+03	3.063050E-04	7.080536E-07
4.076258E+03	3.074694E-04	7.107446E-07
4.077255E+03	3.084775E-04	7.130745E-07
4.078253E+03	3.092204E-04	7.147912E-07
4.079251E+03	3.097602E-04	7.160387E-07
4.080248E+03	3.100505E-04	7.167092E-07
4.081246E+03	3.102472E-04	7.171632E-07
4.082243E+03	3.105217E-04	7.177973E-07
4.083241E+03	3.107806E-04	7.183952E-07
4.084239E+03	3.111485E-04	7.192453E-07
4.085236E+03	3.115009E-04	7.200593E-07
4.086234E+03	3.114945E-04	7.200439E-07
4.087232E+03	3.110672E-04	7.190556E-07
4.088229E+03	3.104374E-04	7.175992E-07
4.089227E+03	3.097608E-04	7.160346E-07
4.090224E+03	3.089283E-04	7.141097E-07
4.091222E+03	3.081739E-04	7.123654E-07
4.092220E+03	3.073729E-04	7.105131E-07
4.093217E+03	3.065252E-04	7.085531E-07
4.094215E+03	3.058023E-04	7.068815E-07
4.095212E+03	3.049391E-04	7.048856E-07
4.096210E+03	3.040917E-04	7.029262E-07
4.097208E+03	3.034002E-04	7.013271E-07
4.098205E+03	3.028021E-04	6.999440E-07
4.099203E+03	3.022353E-04	6.986334E-07
4.100201E+03	3.016374E-04	6.972506E-07
4.101198E+03	3.008527E-04	6.954361E-07
4.102196E+03	2.998967E-04	6.932256E-07
4.103193E+03	2.988786E-04	6.908718E-07
4.104191E+03	2.978606E-04	6.885180E-07
4.105189E+03	2.970606E-04	6.866682E-07
4.106186E+03	2.965255E-04	6.854307E-07
4.107184E+03	2.961927E-04	6.846609E-07
4.108181E+03	2.960001E-04	6.842151E-07
4.109179E+03	2.956518E-04	6.834093E-07
4.110177E+03	2.950701E-04	6.820640E-07
4.111174E+03	2.944107E-04	6.805391E-07
4.112172E+03	2.937202E-04	6.789423E-07
4.113170E+03	2.931854E-04	6.777055E-07
4.114167E+03	2.928528E-04	6.769362E-07
4.115165E+03	2.925203E-04	6.761670E-07
4.116162E+03	2.921567E-04	6.753258E-07
4.117160E+03	2.917465E-04	6.743769E-07
4.118158E+03	2.913053E-04	6.733564E-07
4.119155E+03	2.909106E-04	6.724434E-07
4.120153E+03	2.905316E-04	6.715668E-07
4.121150E+03	2.900126E-04	6.703665E-07
4.122148E+03	2.892916E-04	6.686991E-07
4.123146E+03	2.884773E-04	6.668163E-07
4.124143E+03	2.876010E-04	6.647900E-07
4.125141E+03	2.866781E-04	6.626561E-07
4.126139E+03	2.856776E-04	6.603428E-07
4.127136E+03	2.848016E-04	6.583171E-07
4.128134E+03	2.840189E-04	6.565072E-07
4.129131E+03	2.830964E-04	6.543744E-07
4.130129E+03	2.820187E-04	6.518825E-07
4.131127E+03	2.805526E-04	6.484929E-07
4.132124E+03	2.788847E-04	6.446370E-07
4.133122E+03	2.770150E-04	6.403144E-07
4.134119E+03	2.747571E-04	6.350948E-07
4.135117E+03	2.723909E-04	6.296246E-07
4.136115E+03	2.697764E-04	6.235807E-07
4.137112E+03	2.669293E-04	6.169990E-07
4.138110E+03	2.640981E-04	6.104541E-07
4.139108E+03	2.611897E-04	6.037308E-07
4.140105E+03	2.581886E-04	5.967932E-07
4.141103E+03	2.550325E-04	5.894973E-07
4.142100E+03	2.516907E-04	5.817721E-07
4.143098E+03	2.482251E-04	5.737609E-07
4.144096E+03	2.445581E-04	5.652842E-07
4.145093E+03	2.406588E-04	5.562704E-07
4.146091E+03	2.364963E-04	5.466483E-07
4.147088E+03	2.320859E-04	5.364534E-07
4.148086E+03	2.274590E-04	5.257580E-07
4.149084E+03	2.229103E-04	5.152433E-07
4.150081E+03	2.183468E-04	5.046944E-07
4.151079E+03	2.135978E-04	4.937169E-07
4.152077E+03	2.089735E-04	4.830276E-07
4.153074E+03	2.043190E-04	4.722683E-07
4.154072E+03	1.996031E-04	4.613674E-07
4.155069E+03	1.950119E-04	4.507547E-07
4.156067E+03	1.904059E-04	4.401078E-07
4.157065E+03	1.859869E-04	4.298929E-07
4.158062E+03	1.820335E-04	4.207546E-07
4.159060E+03	1.780965E-04	4.116539E-07
4.160057E+03	1.740978E-04	4.024109E-07
4.161055E+03	1.700843E-04	3.931336E-07
4.162053E+03	1.657459E-04	3.831051E-07
4.163050E+03	1.612840E-04	3.727914E-07
4.164048E+03	1.568694E-04	3.625870E-07
4.165046E+03	1.525871E-04	3.526885E-07
4.166043E+03	1.485177E-04	3.432823E-07
4.167041E+03	1.444352E-04	3.338455E-07
4.168038E+03	1.404601E-04	3.246570E-07
4.169036E+03	1.367088E-04	3.159858E-07
4.170034E+03	1.330231E-04	3.074665E-07
4.171031E+03	1.295363E-04	2.994068E-07
4.172029E+03	1.260391E-04	2.913230E-07
4.173026E+03	1.224449E-04	2.830152E-07
4.174024E+03	1.189024E-04	2.748267E-07
4.175022E+03	1.155586E-04	2.670976E-07
4.176019E+03	1.125994E-04	2.602575E-07
4.177017E+03	1.100124E-04	2.542776E-07
4.178015E+03	1.077400E-04	2.490249E-07
4.179012E+03	1.057528E-04	2.444316E-07
4.180010E+03	1.040277E-04	2.404437E-07
4.181007E+03	1.026061E-04	2.371578E-07
4.182005E+03	1.016477E-04	2.349421E-07
4.183003E+03	1.009726E-04	2.333815E-07
4.184000E+03	1.004756E-04	2.322324E-07
4.184998E+03	1.001133E-04	2.313947E-07
4.185995E+03	9.982380E-05	2.307252E-07
4.186993E+03	9.975869E-05	2.305743E-07
4.187991E+03	1.000030E-04	2.311387E-07
4.188988E+03	1.006712E-04	2.326827E-07
4.189986E+03	1.016796E-04	2.350131E-07
4.190984E+03	1.028363E-04	2.376863E-07
4.191981E+03	1.041676E-04	2.407630E-07
4.192979E+03	1.057601E-04	2.444433E-07
4.193976E+03	1.076059E-04	2.487092E-07
4.194974E+03	1.096385E-04	2.534066E-07
4.195972E+03	1.119646E-04	2.587825E-07
4.196969E+03	1.144774E-04	2.645900E-07
4.197967E+03	1.171567E-04	2.707821E-07
4.198964E+03	1.199407E-04	2.772165E-07
4.199962E+03	1.226671E-04	2.835174E-07
4.200960E+03	1.254904E-04	2.900424E-07
4.201957E+03	1.283827E-04	2.967268E-07
4.202955E+03	1.313488E-04	3.035818E-07
4.203953E+03	1.344658E-04	3.107854E-07
4.204950E+03	1.375762E-04	3.179739E-07
4.205948E+03	1.405563E-04	3.248610E-07
4.206945E+03	1.434909E-04	3.316432E-07
4.207943E+03	1.464314E-04	3.384388E-07
4.208941E+03	1.495845E-04	3.457258E-07
4.209938E+03	1.531264E-04	3.539113E-07
4.210936E+03	1.566907E-04	3.621488E-07
4.211933E+03	1.601834E-04	3.702207E-07
4.212931E+03	1.635676E-04	3.780416E-07
4.213929E+03	1.666114E-04	3.850759E-07
4.214926E+03	1.693614E-04	3.914311E-07
4.215924E+03	1.718949E-04	3.972859E-07
4.216922E+03	1.742119E-04	4.026401E-07
4.217919E+03	1.762660E-04	4.073869E-07
4.218917E+03	1.781500E-04	4.117404E-07
4.219914E+03	1.798640E-04	4.157011E-07
4.220912E+03	1.814696E-04	4.194113E-07
4.221910E+03	1.831521E-04	4.232992E-07
4.222907E+03	1.847726E-04	4.270436E-07
4.223905E+03	1.863156E-04	4.306091E-07
4.224902E+03	1.877351E-04	4.338890E-07
4.225900E+03	1.889691E-04	4.367402E-07
4.226898E+03	1.900796E-04	4.393060E-07
4.227895E+03	1.910511E-04	4.415504E-07
4.228893E+03	1.919915E-04	4.437231E-07
4.229891E+03	1.928700E-04	4.457527E-07
4.230888E+03	1.937022E-04	4.476752E-07
4.231886E+03	1.945497E-04	4.496330E-07
4.232883E+03	1.952737E-04	4.513054E-07
4.233881E+03	1.958588E-04	4.526568E-07
4.234879E+03	1.961664E-04	4.533667E-07
4.235876E+03	1.962888E-04	4.536489E-07
4.236874E+03	1.965193E-04	4.541806E-07
4.237871E+03	1.968266E-04	4.548901E-07
4.238869E+03	1.969645E-04	4.552078E-07
4.239867E+03	1.967940E-04	4.548130E-07
4.240864E+03	1.964081E-04	4.539201E-07
4.241862E+03	1.959296E-04	4.528135E-07
4.242860E+03	1.955129E-04	4.518495E-07
4.243857E+03	1.953735E-04	4.515264E-07
4.244855E+03	1.954188E-04	4.516304E-07
4.245852E+03	1.957259E-04	4.523392E-07
4.246850E+03	1.960639E-04	4.531192E-07
4.247848E+03	1.962323E-04	4.535076E-07
4.248845E+03	1.963083E-04	4.536823E-07
4.249843E+03	1.962150E-04	4.534658E-07
4.250840E+03	1.960600E-04	4.531067E-07
4.251838E+03	1.958744E-04	4.526767E-07
4.252836E+03	1.956887E-04	4.522468E-07
4.253833E+03	1.955953E-04	4.520300E-07
4.254831E+03	1.955636E-04	4.519558E-07
4.255829E+03	1.955472E-04	4.519169E-07
4.256826E+03	1.954847E-04	4.517715E-07
4.257824E+03	1.953145E-04	4.513771E-07
4.258821E+03	1.950981E-04	4.508762E-07
4.259819E+03	1.948818E-04	4.503753E-07
4.260817E+03	1.947269E-04	4.500164E-07
4.261814E+03	1.946798E-04	4.499065E-07
4.262812E+03	1.947248E-04	4.500097E-07
4.263809E+03	1.949545E-04	4.505395E-07
4.264807E+03	1.953685E-04	4.514953E-07
4.265805E+03	1.958748E-04	4.526644E-07
4.266802E+03	1.965039E-04	4.541171E-07
4.267800E+03	1.973941E-04	4.561735E-07
4.268798E+03	1.984841E-04	4.586914E-07
4.269795E+03	1.996506E-04	4.613861E-07
4.270793E+03	2.009246E-04	4.643292E-07
4.271790E+03	2.022290E-04	4.673427E-07
4.272788E+03	2.035793E-04	4.704621E-07
4.273786E+03	2.051444E-04	4.740779E-07
4.274783E+03	2.068168E-04	4.779417E-07
4.275781E+03	2.085043E-04	4.818402E-07
4.276778E+03	2.102222E-04	4.858090E-07
4.277776E+03	2.119858E-04	4.898834E-07
4.278774E+03	2.138720E-04	4.942411E-07
4.279771E+03	2.157578E-04	4.985980E-07
4.280769E+03	2.177200E-04	5.031314E-07
4.281767E+03	2.198048E-04	5.079479E-07
4.282764E+03	2.217357E-04	5.124088E-07
4.283762E+03	2.236049E-04	5.167271E-07
4.284759E+03	2.255351E-04	5.211864E-07
4.285757E+03	2.274189E-04	5.255384E-07
4.286755E+03	2.294251E-04	5.301732E-07
4.287752E+03	2.315537E-04	5.350910E-07
4.288750E+03	2.336206E-04	5.398659E-07
4.289748E+03	2.357332E-04	5.447466E-07
4.290745E+03	2.378760E-04	5.496971E-07
4.291743E+03	2.400031E-04	5.546111E-07
4.292740E+03	2.420992E-04	5.594536E-07
4.293738E+03	2.440569E-04	5.639761E-07
4.294736E+03	2.459069E-04	5.682497E-07
4.295733E+03	2.476953E-04	5.723809E-07
