#wls	flux	fluxerr
1.600000E+03	5.109986E-18	4.041528E-18
1.640000E+03	5.148979E-18	4.058702E-18
1.680000E+03	5.189042E-18	4.075478E-18
1.720000E+03	5.230086E-18	4.091692E-18
1.760000E+03	5.272908E-18	4.107867E-18
1.800000E+03	5.316491E-18	4.123104E-18
1.840000E+03	5.360697E-18	4.137189E-18
1.880000E+03	5.406273E-18	4.150589E-18
1.920000E+03	5.452131E-18	4.162350E-18
1.960000E+03	5.498977E-18	4.172895E-18
2.000000E+03	5.546582E-18	4.181927E-18
2.040000E+03	5.593761E-18	4.188432E-18
2.080000E+03	5.642063E-18	4.193452E-18
2.120000E+03	5.689307E-18	4.195240E-18
2.160000E+03	5.736045E-18	4.194098E-18
2.200000E+03	5.781865E-18	4.189616E-18
2.240000E+03	5.827241E-18	4.182031E-18
2.280000E+03	5.870737E-18	4.170212E-18
2.320000E+03	5.911802E-18	4.153691E-18
2.360000E+03	5.950765E-18	4.132633E-18
2.400000E+03	5.986972E-18	4.106522E-18
2.440000E+03	6.018794E-18	4.074207E-18
2.480000E+03	6.046414E-18	4.035809E-18
2.520000E+03	6.069041E-18	3.990808E-18
2.560000E+03	6.085854E-18	3.938702E-18
2.600000E+03	6.096010E-18	3.879012E-18
2.640000E+03	6.099550E-18	3.811858E-18
2.680000E+03	6.094728E-18	3.736265E-18
2.720000E+03	6.081615E-18	3.652441E-18
2.760000E+03	6.058585E-18	3.559606E-18
2.800000E+03	6.026694E-18	3.458615E-18
2.840000E+03	5.983718E-18	3.348450E-18
2.880000E+03	5.930173E-18	3.229742E-18
2.920000E+03	5.866751E-18	3.103219E-18
2.960000E+03	5.792820E-18	2.968939E-18
3.000000E+03	5.708931E-18	2.827651E-18
3.010000E+03	5.686969E-18	2.791572E-18
3.020000E+03	5.664270E-18	2.755037E-18
3.030000E+03	5.640861E-18	2.718069E-18
3.040000E+03	5.616770E-18	2.680693E-18
3.050000E+03	5.592742E-18	2.643274E-18
3.060000E+03	5.568081E-18	2.605486E-18
3.070000E+03	5.542820E-18	2.567358E-18
3.080000E+03	5.517696E-18	2.529239E-18
3.090000E+03	5.492034E-18	2.490824E-18
3.100000E+03	5.465875E-18	2.452145E-18
3.110000E+03	5.439944E-18	2.413535E-18
3.120000E+03	5.413591E-18	2.374712E-18
3.130000E+03	5.386865E-18	2.335709E-18
3.140000E+03	5.360479E-18	2.296845E-18
3.150000E+03	5.333150E-18	2.257579E-18
3.160000E+03	5.306911E-18	2.218783E-18
3.170000E+03	5.279841E-18	2.179658E-18
3.180000E+03	5.253302E-18	2.140781E-18
3.190000E+03	5.226704E-18	2.101917E-18
3.200000E+03	5.200112E-18	2.063105E-18
3.210000E+03	5.174218E-18	2.024630E-18
3.220000E+03	5.148460E-18	1.986275E-18
3.230000E+03	5.122911E-18	1.948083E-18
3.240000E+03	5.098258E-18	1.910323E-18
3.250000E+03	5.073962E-18	1.872800E-18
3.260000E+03	5.050704E-18	1.835774E-18
3.270000E+03	5.027375E-18	1.798851E-18
3.280000E+03	5.005253E-18	1.762505E-18
3.290000E+03	4.984418E-18	1.726768E-18
3.300000E+03	4.963802E-18	1.691278E-18
3.310000E+03	4.944666E-18	1.656482E-18
3.320000E+03	4.927102E-18	1.622417E-18
3.330000E+03	4.910647E-18	1.588936E-18
3.340000E+03	4.895417E-18	1.556094E-18
3.350000E+03	4.881534E-18	1.523944E-18
3.360000E+03	4.869673E-18	1.492712E-18
3.370000E+03	4.859409E-18	1.462279E-18
3.380000E+03	4.850878E-18	1.432706E-18
3.390000E+03	4.844765E-18	1.404212E-18
3.400000E+03	4.840671E-18	1.376699E-18
3.410000E+03	4.838753E-18	1.350235E-18
3.420000E+03	4.839705E-18	1.325040E-18
3.430000E+03	4.843160E-18	1.301036E-18
3.440000E+03	4.849296E-18	1.278302E-18
3.450000E+03	4.858824E-18	1.257058E-18
3.460000E+03	4.871408E-18	1.237250E-18
3.470000E+03	4.887775E-18	1.219099E-18
3.480000E+03	4.907607E-18	1.202566E-18
3.490000E+03	4.931125E-18	1.187749E-18
3.500000E+03	4.958555E-18	1.174752E-18
3.510000E+03	4.990662E-18	1.163802E-18
3.520000E+03	5.027166E-18	1.154882E-18
3.530000E+03	5.068321E-18	1.148099E-18
3.540000E+03	5.114922E-18	1.143682E-18
3.550000E+03	5.166712E-18	1.141618E-18
3.560000E+03	5.224511E-18	1.142129E-18
3.570000E+03	5.287528E-18	1.145082E-18
3.580000E+03	5.357688E-18	1.150926E-18
3.590000E+03	5.433662E-18	1.159396E-18
3.600000E+03	5.516857E-18	1.170813E-18
3.610000E+03	5.607043E-18	1.185131E-18
3.620000E+03	5.704539E-18	1.202418E-18
3.630000E+03	5.810255E-18	1.222853E-18
3.640000E+03	5.923967E-18	1.246367E-18
3.650000E+03	6.046022E-18	1.273004E-18
3.660000E+03	6.177390E-18	1.302928E-18
3.670000E+03	6.317856E-18	1.336048E-18
3.680000E+03	6.467805E-18	1.372394E-18
3.690000E+03	6.628284E-18	1.412127E-18
3.700000E+03	6.798434E-18	1.454999E-18
3.710000E+03	6.980660E-18	1.501455E-18
3.720000E+03	7.173442E-18	1.551092E-18
3.730000E+03	7.378607E-18	1.604223E-18
3.740000E+03	7.595972E-18	1.660723E-18
3.750000E+03	7.826039E-18	1.720608E-18
3.760000E+03	8.070086E-18	1.784061E-18
3.770000E+03	8.327934E-18	1.850937E-18
3.780000E+03	8.600137E-18	1.921245E-18
3.790000E+03	8.887263E-18	1.994990E-18
3.800000E+03	9.190741E-18	2.072359E-18
3.810000E+03	9.510367E-18	2.153166E-18
3.820000E+03	9.846747E-18	2.237393E-18
3.830000E+03	1.020049E-17	2.325008E-18
3.840000E+03	1.057317E-17	2.416190E-18
3.850000E+03	1.096451E-17	2.510675E-18
3.860000E+03	1.137513E-17	2.608391E-18
3.870000E+03	1.180564E-17	2.709244E-18
3.880000E+03	1.225773E-17	2.813368E-18
3.890000E+03	1.273098E-17	2.920392E-18
3.900000E+03	1.322595E-17	3.030150E-18
3.910000E+03	1.374322E-17	3.142449E-18
3.920000E+03	1.428453E-17	3.257347E-18
3.930000E+03	1.484793E-17	3.374030E-18
3.940000E+03	1.543642E-17	3.492779E-18
3.950000E+03	1.604914E-17	3.612979E-18
3.960000E+03	1.668648E-17	3.734262E-18
3.970000E+03	1.735019E-17	3.856542E-18
3.980000E+03	1.803764E-17	3.978722E-18
3.990000E+03	1.875200E-17	4.100965E-18
4.000000E+03	1.949190E-17	4.222404E-18
4.010000E+03	2.025569E-17	4.342090E-18
4.020000E+03	2.104839E-17	4.460474E-18
4.030000E+03	2.186479E-17	4.575796E-18
4.040000E+03	2.270637E-17	4.687697E-18
4.050000E+03	2.357282E-17	4.795413E-18
4.060000E+03	2.446571E-17	4.898540E-18
4.070000E+03	2.538268E-17	4.995850E-18
4.080000E+03	2.632102E-17	5.086057E-18
4.090000E+03	2.728420E-17	5.169063E-18
4.100000E+03	2.826938E-17	5.243529E-18
4.110000E+03	2.927568E-17	5.308493E-18
4.120000E+03	3.030210E-17	5.362979E-18
4.130000E+03	3.134759E-17	5.405996E-18
4.140000E+03	3.241097E-17	5.436550E-18
4.150000E+03	3.349099E-17	5.453646E-18
4.160000E+03	3.458633E-17	5.456298E-18
4.170000E+03	3.569556E-17	5.443537E-18
4.180000E+03	3.681722E-17	5.414418E-18
4.190000E+03	3.795263E-17	5.368440E-18
4.200000E+03	3.909444E-17	5.303905E-18
4.210000E+03	4.024379E-17	5.220413E-18
4.220000E+03	4.139891E-17	5.117212E-18
4.230000E+03	4.255798E-17	4.993628E-18
4.240000E+03	4.371909E-17	4.849076E-18
4.250000E+03	4.488025E-17	4.683084E-18
4.260000E+03	4.603938E-17	4.495311E-18
4.270000E+03	4.719080E-17	4.285264E-18
4.280000E+03	4.833908E-17	4.053629E-18
4.290000E+03	4.947469E-17	3.800101E-18
4.300000E+03	5.060210E-17	3.525944E-18
4.310000E+03	5.171105E-17	3.231854E-18
4.320000E+03	5.280575E-17	2.920393E-18
4.330000E+03	5.387506E-17	2.594543E-18
4.340000E+03	5.491885E-17	2.260325E-18
4.350000E+03	5.592894E-17	1.927738E-18
4.360000E+03	5.690895E-17	1.615574E-18
4.370000E+03	5.785072E-17	1.357653E-18
4.380000E+03	5.874641E-17	1.208829E-18
4.390000E+03	5.959735E-17	1.223173E-18
4.400000E+03	6.040199E-17	1.399380E-18
4.410000E+03	6.116011E-17	1.683791E-18
4.420000E+03	6.186831E-17	2.023692E-18
4.430000E+03	6.253254E-17	2.386433E-18
4.440000E+03	6.315491E-17	2.753501E-18
4.450000E+03	6.373766E-17	3.114077E-18
4.460000E+03	6.428296E-17	3.461409E-18
4.470000E+03	6.478838E-17	3.790745E-18
4.480000E+03	6.526011E-17	4.099162E-18
4.490000E+03	6.569975E-17	4.384402E-18
4.500000E+03	6.610870E-17	4.644826E-18
4.510000E+03	6.648372E-17	4.878941E-18
4.520000E+03	6.683035E-17	5.086277E-18
4.530000E+03	6.714506E-17	5.266063E-18
4.540000E+03	6.743768E-17	5.418905E-18
4.550000E+03	6.770002E-17	5.544329E-18
4.560000E+03	6.793279E-17	5.642887E-18
4.570000E+03	6.814564E-17	5.716242E-18
4.580000E+03	6.833024E-17	5.764945E-18
4.590000E+03	6.848725E-17	5.790696E-18
4.600000E+03	6.862626E-17	5.796398E-18
4.610000E+03	6.873897E-17	5.783915E-18
4.620000E+03	6.882608E-17	5.756380E-18
4.630000E+03	6.889277E-17	5.717825E-18
4.640000E+03	6.893979E-17	5.672433E-18
4.650000E+03	6.896795E-17	5.624876E-18
4.660000E+03	6.897367E-17	5.579885E-18
4.670000E+03	6.895789E-17	5.542827E-18
4.680000E+03	6.893033E-17	5.519816E-18
4.690000E+03	6.888319E-17	5.515319E-18
4.700000E+03	6.881752E-17	5.533946E-18
4.710000E+03	6.873871E-17	5.579745E-18
4.720000E+03	6.864780E-17	5.655230E-18
4.730000E+03	6.854154E-17	5.761199E-18
4.740000E+03	6.842531E-17	5.897781E-18
4.750000E+03	6.829590E-17	6.063118E-18
4.760000E+03	6.815869E-17	6.255069E-18
4.770000E+03	6.801052E-17	6.470014E-18
4.780000E+03	6.785677E-17	6.704693E-18
4.790000E+03	6.769853E-17	6.955324E-18
4.800000E+03	6.753281E-17	7.217746E-18
4.810000E+03	6.736496E-17	7.488865E-18
4.820000E+03	6.719204E-17	7.765002E-18
4.830000E+03	6.701939E-17	8.043743E-18
4.840000E+03	6.684413E-17	8.322081E-18
4.850000E+03	6.667156E-17	8.598340E-18
4.860000E+03	6.649881E-17	8.870156E-18
4.870000E+03	6.633109E-17	9.136505E-18
4.880000E+03	6.616551E-17	9.395547E-18
4.890000E+03	6.600715E-17	9.646778E-18
4.900000E+03	6.585305E-17	9.888756E-18
4.910000E+03	6.570814E-17	1.012136E-17
4.920000E+03	6.557328E-17	1.034406E-17
4.930000E+03	6.544534E-17	1.055579E-17
4.940000E+03	6.532509E-17	1.075617E-17
4.950000E+03	6.521708E-17	1.094559E-17
4.960000E+03	6.512185E-17	1.112383E-17
4.970000E+03	6.503602E-17	1.129008E-17
4.980000E+03	6.496004E-17	1.144419E-17
4.990000E+03	6.489810E-17	1.158675E-17
5.000000E+03	6.485046E-17	1.171768E-17
5.010000E+03	6.481352E-17	1.183623E-17
5.020000E+03	6.478749E-17	1.194232E-17
5.030000E+03	6.477628E-17	1.203660E-17
5.040000E+03	6.478000E-17	1.211902E-17
5.050000E+03	6.479493E-17	1.218881E-17
5.060000E+03	6.482115E-17	1.224590E-17
5.070000E+03	6.486249E-17	1.229095E-17
5.080000E+03	6.491901E-17	1.232386E-17
5.090000E+03	6.498700E-17	1.234386E-17
5.100000E+03	6.506657E-17	1.235085E-17
5.110000E+03	6.516158E-17	1.234545E-17
5.120000E+03	6.527218E-17	1.232756E-17
5.130000E+03	6.539478E-17	1.229635E-17
5.140000E+03	6.553336E-17	1.225240E-17
5.150000E+03	6.568441E-17	1.219488E-17
5.160000E+03	6.584819E-17	1.212364E-17
5.170000E+03	6.602881E-17	1.203923E-17
5.180000E+03	6.622663E-17	1.194145E-17
5.190000E+03	6.643825E-17	1.182942E-17
5.200000E+03	6.666788E-17	1.170362E-17
5.210000E+03	6.691214E-17	1.156313E-17
5.220000E+03	6.717528E-17	1.140836E-17
5.230000E+03	6.745395E-17	1.123836E-17
5.240000E+03	6.775240E-17	1.105348E-17
5.250000E+03	6.806723E-17	1.085272E-17
5.260000E+03	6.840270E-17	1.063634E-17
5.270000E+03	6.875530E-17	1.040332E-17
5.280000E+03	6.912925E-17	1.015382E-17
5.290000E+03	6.952483E-17	9.887331E-18
5.300000E+03	6.993438E-17	9.602247E-18
5.310000E+03	7.036977E-17	9.299673E-18
5.320000E+03	7.082313E-17	8.977948E-18
5.330000E+03	7.129827E-17	8.636988E-18
5.340000E+03	7.179088E-17	8.275680E-18
5.350000E+03	7.230043E-17	7.893421E-18
5.360000E+03	7.283429E-17	7.490451E-18
5.370000E+03	7.337923E-17	7.064851E-18
5.380000E+03	7.394616E-17	6.617255E-18
5.390000E+03	7.452508E-17	6.146341E-18
5.400000E+03	7.511365E-17	5.651761E-18
5.410000E+03	7.571314E-17	5.133678E-18
5.420000E+03	7.632000E-17	4.592267E-18
5.430000E+03	7.692563E-17	4.028160E-18
5.440000E+03	7.752919E-17	3.443766E-18
5.450000E+03	7.812063E-17	2.843613E-18
5.460000E+03	7.869826E-17	2.238470E-18
5.470000E+03	7.925651E-17	1.654723E-18
5.480000E+03	7.978657E-17	1.169438E-18
5.490000E+03	8.029011E-17	9.908685E-19
5.500000E+03	8.076110E-17	1.276817E-18
5.510000E+03	8.120315E-17	1.822515E-18
5.520000E+03	8.161688E-17	2.455585E-18
5.530000E+03	8.200022E-17	3.115506E-18
5.540000E+03	8.235696E-17	3.780111E-18
5.550000E+03	8.270062E-17	4.440043E-18
5.560000E+03	8.302642E-17	5.089850E-18
5.570000E+03	8.333832E-17	5.726579E-18
5.580000E+03	8.364903E-17	6.349072E-18
5.590000E+03	8.395229E-17	6.955515E-18
5.600000E+03	8.425059E-17	7.545017E-18
5.610000E+03	8.455070E-17	8.117363E-18
5.620000E+03	8.485445E-17	8.672129E-18
5.630000E+03	8.515874E-17	9.208480E-18
5.640000E+03	8.547436E-17	9.727146E-18
5.650000E+03	8.578844E-17	1.022631E-17
5.660000E+03	8.611632E-17	1.070740E-17
5.670000E+03	8.644964E-17	1.116913E-17
5.680000E+03	8.679419E-17	1.161194E-17
5.690000E+03	8.714618E-17	1.203506E-17
5.700000E+03	8.751139E-17	1.243900E-17
5.710000E+03	8.789076E-17	1.282367E-17
5.720000E+03	8.828034E-17	1.318825E-17
5.730000E+03	8.868582E-17	1.353331E-17
5.740000E+03	8.910804E-17	1.385875E-17
5.750000E+03	8.954774E-17	1.416441E-17
5.760000E+03	9.000065E-17	1.444934E-17
5.770000E+03	9.047230E-17	1.471412E-17
5.780000E+03	9.095819E-17	1.495768E-17
5.790000E+03	9.146875E-17	1.518139E-17
5.800000E+03	9.199421E-17	1.538329E-17
5.810000E+03	9.253467E-17	1.556297E-17
5.820000E+03	9.310038E-17	1.572173E-17
5.830000E+03	9.368103E-17	1.585739E-17
5.840000E+03	9.428150E-17	1.597027E-17
5.850000E+03	9.490146E-17	1.605981E-17
5.860000E+03	9.553515E-17	1.612448E-17
5.870000E+03	9.618715E-17	1.616449E-17
5.880000E+03	9.685670E-17	1.617911E-17
5.890000E+03	9.754291E-17	1.616756E-17
5.900000E+03	9.823935E-17	1.612813E-17
5.910000E+03	9.895026E-17	1.606086E-17
5.920000E+03	9.967441E-17	1.596488E-17
5.930000E+03	1.004105E-16	1.583927E-17
5.940000E+03	1.011515E-16	1.568225E-17
5.950000E+03	1.019016E-16	1.549378E-17
5.960000E+03	1.026592E-16	1.527293E-17
5.970000E+03	1.034227E-16	1.501879E-17
5.980000E+03	1.041850E-16	1.472964E-17
5.990000E+03	1.049559E-16	1.440626E-17
6.000000E+03	1.057223E-16	1.404618E-17
6.010000E+03	1.064883E-16	1.364943E-17
6.020000E+03	1.072465E-16	1.321450E-17
6.030000E+03	1.080071E-16	1.274219E-17
6.040000E+03	1.087565E-16	1.223039E-17
6.050000E+03	1.094989E-16	1.167926E-17
6.060000E+03	1.102324E-16	1.108827E-17
6.070000E+03	1.109549E-16	1.045699E-17
6.080000E+03	1.116580E-16	9.784543E-18
6.090000E+03	1.123510E-16	9.071844E-18
6.100000E+03	1.130183E-16	8.317830E-18
6.110000E+03	1.136620E-16	7.523307E-18
6.120000E+03	1.142773E-16	6.688973E-18
6.130000E+03	1.148521E-16	5.815954E-18
6.140000E+03	1.153930E-16	4.907765E-18
6.150000E+03	1.158802E-16	3.969431E-18
6.160000E+03	1.163203E-16	3.013796E-18
6.170000E+03	1.166959E-16	2.073648E-18
6.180000E+03	1.170115E-16	1.273793E-18
6.190000E+03	1.172615E-16	1.100300E-18
6.200000E+03	1.174598E-16	1.771414E-18
6.210000E+03	1.175942E-16	2.716830E-18
6.220000E+03	1.176803E-16	3.721398E-18
6.230000E+03	1.177104E-16	4.733555E-18
6.240000E+03	1.176989E-16	5.736339E-18
6.250000E+03	1.176542E-16	6.722448E-18
6.260000E+03	1.175847E-16	7.688368E-18
6.270000E+03	1.174980E-16	8.632368E-18
6.280000E+03	1.173943E-16	9.553126E-18
6.290000E+03	1.172924E-16	1.045143E-17
6.300000E+03	1.171840E-16	1.132624E-17
6.310000E+03	1.170863E-16	1.217910E-17
6.320000E+03	1.169896E-16	1.300913E-17
6.330000E+03	1.169032E-16	1.381750E-17
6.340000E+03	1.168295E-16	1.460483E-17
6.350000E+03	1.167707E-16	1.537175E-17
6.360000E+03	1.167283E-16	1.611894E-17
6.370000E+03	1.167040E-16	1.684710E-17
6.380000E+03	1.166924E-16	1.755594E-17
6.390000E+03	1.167077E-16	1.824813E-17
6.400000E+03	1.167378E-16	1.892234E-17
6.410000E+03	1.167967E-16	1.958140E-17
6.420000E+03	1.168717E-16	2.022380E-17
6.430000E+03	1.169701E-16	2.085131E-17
6.440000E+03	1.170989E-16	2.146580E-17
6.450000E+03	1.172452E-16	2.206550E-17
6.460000E+03	1.174158E-16	2.265221E-17
6.470000E+03	1.176109E-16	2.322649E-17
6.480000E+03	1.178304E-16	2.378889E-17
6.490000E+03	1.180742E-16	2.433989E-17
6.500000E+03	1.183354E-16	2.487855E-17
6.510000E+03	1.186269E-16	2.540806E-17
6.520000E+03	1.189417E-16	2.592740E-17
6.530000E+03	1.192790E-16	2.643687E-17
6.540000E+03	1.196313E-16	2.693518E-17
6.550000E+03	1.200115E-16	2.742557E-17
6.560000E+03	1.204047E-16	2.790507E-17
6.570000E+03	1.208235E-16	2.837692E-17
6.580000E+03	1.212530E-16	2.883791E-17
6.590000E+03	1.217056E-16	2.929127E-17
6.600000E+03	1.221658E-16	2.973356E-17
6.610000E+03	1.226460E-16	3.016799E-17
6.620000E+03	1.231304E-16	3.059091E-17
6.630000E+03	1.236241E-16	3.100375E-17
6.640000E+03	1.241324E-16	3.140796E-17
6.650000E+03	1.246388E-16	3.179959E-17
6.660000E+03	1.251485E-16	3.218000E-17
6.670000E+03	1.256593E-16	3.254870E-17
6.680000E+03	1.261690E-16	3.290522E-17
6.690000E+03	1.266826E-16	3.325093E-17
6.700000E+03	1.271834E-16	3.358147E-17
6.710000E+03	1.276764E-16	3.389816E-17
6.720000E+03	1.281594E-16	3.420044E-17
6.730000E+03	1.286304E-16	3.448771E-17
6.740000E+03	1.290872E-16	3.475942E-17
6.750000E+03	1.295279E-16	3.501500E-17
6.760000E+03	1.299506E-16	3.525389E-17
6.770000E+03	1.303536E-16	3.547558E-17
6.780000E+03	1.307353E-16	3.567958E-17
6.790000E+03	1.310942E-16	3.586542E-17
6.800000E+03	1.314291E-16	3.603269E-17
6.810000E+03	1.317388E-16	3.618099E-17
6.820000E+03	1.320223E-16	3.631000E-17
6.830000E+03	1.322788E-16	3.641942E-17
6.840000E+03	1.325077E-16	3.650900E-17
6.850000E+03	1.327008E-16	3.657638E-17
6.860000E+03	1.328732E-16	3.662569E-17
6.870000E+03	1.330171E-16	3.665466E-17
6.880000E+03	1.331323E-16	3.666320E-17
6.890000E+03	1.332189E-16	3.665125E-17
6.900000E+03	1.332771E-16	3.661880E-17
6.910000E+03	1.332993E-16	3.656368E-17
6.920000E+03	1.333014E-16	3.649021E-17
6.930000E+03	1.332761E-16	3.639627E-17
6.940000E+03	1.332236E-16	3.628189E-17
6.950000E+03	1.331366E-16	3.614498E-17
6.960000E+03	1.330310E-16	3.598984E-17
6.970000E+03	1.328994E-16	3.581437E-17
6.980000E+03	1.327342E-16	3.561649E-17
6.990000E+03	1.325514E-16	3.540042E-17
7.000000E+03	1.323434E-16	3.516406E-17
7.010000E+03	1.321023E-16	3.490531E-17
7.020000E+03	1.318441E-16	3.462828E-17
7.030000E+03	1.315529E-16	3.432883E-17
7.040000E+03	1.312442E-16	3.401096E-17
7.050000E+03	1.309025E-16	3.367056E-17
7.060000E+03	1.305428E-16	3.331157E-17
7.070000E+03	1.301495E-16	3.292992E-17
7.080000E+03	1.297376E-16	3.252946E-17
7.090000E+03	1.292914E-16	3.210622E-17
7.100000E+03	1.288180E-16	3.166210E-17
7.110000E+03	1.283248E-16	3.119890E-17
7.120000E+03	1.277960E-16	3.071284E-17
7.130000E+03	1.272389E-16	3.020579E-17
7.140000E+03	1.266530E-16	2.967779E-17
7.150000E+03	1.260381E-16	2.912887E-17
7.160000E+03	1.253938E-16	2.855916E-17
7.170000E+03	1.247198E-16	2.796878E-17
7.180000E+03	1.240162E-16	2.735791E-17
7.190000E+03	1.232827E-16	2.672681E-17
7.200000E+03	1.225194E-16	2.607575E-17
7.210000E+03	1.217265E-16	2.540508E-17
7.220000E+03	1.208968E-16	2.471370E-17
7.230000E+03	1.200453E-16	2.400508E-17
7.240000E+03	1.191577E-16	2.327678E-17
7.250000E+03	1.182492E-16	2.253223E-17
7.260000E+03	1.173059E-16	2.176925E-17
7.270000E+03	1.163426E-16	2.099119E-17
7.280000E+03	1.153460E-16	2.019616E-17
7.290000E+03	1.143241E-16	1.938624E-17
7.300000E+03	1.132775E-16	1.856221E-17
7.310000E+03	1.122072E-16	1.772491E-17
7.320000E+03	1.111142E-16	1.687522E-17
7.330000E+03	1.099992E-16	1.601404E-17
7.340000E+03	1.088632E-16	1.514230E-17
7.350000E+03	1.077005E-16	1.426012E-17
7.360000E+03	1.065251E-16	1.337029E-17
7.370000E+03	1.053245E-16	1.247216E-17
7.380000E+03	1.041121E-16	1.156837E-17
7.390000E+03	1.028757E-16	1.065859E-17
7.400000E+03	1.016215E-16	9.744759E-18
7.410000E+03	1.003494E-16	8.828144E-18
7.420000E+03	9.905886E-17	7.910166E-18
7.430000E+03	9.774867E-17	6.992470E-18
7.440000E+03	9.641142E-17	6.076711E-18
7.450000E+03	9.505701E-17	5.166406E-18
7.460000E+03	9.367128E-17	4.264871E-18
7.470000E+03	9.226338E-17	3.379432E-18
7.480000E+03	9.081977E-17	2.523095E-18
7.490000E+03	8.934530E-17	1.730280E-18
7.500000E+03	8.784083E-17	1.116022E-18
7.510000E+03	8.630367E-17	1.012926E-18
7.520000E+03	8.474802E-17	1.481657E-18
7.530000E+03	8.317245E-17	2.138666E-18
7.540000E+03	8.157716E-17	2.821945E-18
7.550000E+03	7.997397E-17	3.488208E-18
7.560000E+03	7.836997E-17	4.123437E-18
7.570000E+03	7.677202E-17	4.722585E-18
7.580000E+03	7.518627E-17	5.284080E-18
7.590000E+03	7.361337E-17	5.807577E-18
7.600000E+03	7.206691E-17	6.294589E-18
7.610000E+03	7.054126E-17	6.745608E-18
7.620000E+03	6.904374E-17	7.162480E-18
7.630000E+03	6.757646E-17	7.546804E-18
7.640000E+03	6.614100E-17	7.900237E-18
7.650000E+03	6.473447E-17	8.223930E-18
7.660000E+03	6.336591E-17	8.520552E-18
7.670000E+03	6.202779E-17	8.790679E-18
7.680000E+03	6.072450E-17	9.036419E-18
7.690000E+03	5.945616E-17	9.259314E-18
7.700000E+03	5.822271E-17	9.460849E-18
7.710000E+03	5.702036E-17	9.641845E-18
7.720000E+03	5.585611E-17	9.804881E-18
7.730000E+03	5.472242E-17	9.950035E-18
7.740000E+03	5.362241E-17	1.007917E-17
7.750000E+03	5.255554E-17	1.019346E-17
7.760000E+03	5.151790E-17	1.029339E-17
