#wls	flux	fluxerr
1.600000E+03	1.836045E-18	1.469232E-18
1.640000E+03	1.838169E-18	1.467630E-18
1.680000E+03	1.840196E-18	1.465704E-18
1.720000E+03	1.842079E-18	1.463403E-18
1.760000E+03	1.843450E-18	1.460420E-18
1.800000E+03	1.844260E-18	1.456706E-18
1.840000E+03	1.844779E-18	1.452460E-18
1.880000E+03	1.844951E-18	1.447625E-18
1.920000E+03	1.844399E-18	1.441893E-18
1.960000E+03	1.843066E-18	1.435208E-18
2.000000E+03	1.841211E-18	1.427763E-18
2.040000E+03	1.838772E-18	1.419496E-18
2.080000E+03	1.835371E-18	1.410107E-18
2.120000E+03	1.831262E-18	1.399783E-18
2.160000E+03	1.826383E-18	1.388471E-18
2.200000E+03	1.820365E-18	1.375883E-18
2.240000E+03	1.813464E-18	1.362211E-18
2.280000E+03	1.805324E-18	1.347185E-18
2.320000E+03	1.796208E-18	1.331004E-18
2.360000E+03	1.786079E-18	1.313641E-18
2.400000E+03	1.774909E-18	1.295079E-18
2.440000E+03	1.762388E-18	1.275099E-18
2.480000E+03	1.748816E-18	1.253931E-18
2.520000E+03	1.734210E-18	1.231595E-18
2.560000E+03	1.718606E-18	1.208131E-18
2.600000E+03	1.701785E-18	1.183403E-18
2.640000E+03	1.684120E-18	1.157691E-18
2.680000E+03	1.665729E-18	1.131095E-18
2.720000E+03	1.646493E-18	1.103557E-18
2.760000E+03	1.627136E-18	1.075588E-18
2.800000E+03	1.607357E-18	1.047006E-18
2.840000E+03	1.587692E-18	1.018188E-18
2.880000E+03	1.568463E-18	9.893573E-19
2.920000E+03	1.550040E-18	9.607654E-19
2.960000E+03	1.532613E-18	9.325428E-19
3.000000E+03	1.516924E-18	9.051508E-19
3.010000E+03	1.513537E-18	8.985894E-19
3.020000E+03	1.510051E-18	8.919558E-19
3.030000E+03	1.506713E-18	8.853976E-19
3.040000E+03	1.503535E-18	8.789207E-19
3.050000E+03	1.500759E-18	8.726668E-19
3.060000E+03	1.497929E-18	8.663692E-19
3.070000E+03	1.495523E-18	8.603047E-19
3.080000E+03	1.493088E-18	8.542114E-19
3.090000E+03	1.491099E-18	8.483616E-19
3.100000E+03	1.489107E-18	8.424983E-19
3.110000E+03	1.487584E-18	8.368896E-19
3.120000E+03	1.486315E-18	8.314110E-19
3.130000E+03	1.485313E-18	8.260695E-19
3.140000E+03	1.484363E-18	8.207460E-19
3.150000E+03	1.483937E-18	8.157011E-19
3.160000E+03	1.483823E-18	8.108148E-19
3.170000E+03	1.484035E-18	8.060948E-19
3.180000E+03	1.484590E-18	8.015486E-19
3.190000E+03	1.485505E-18	7.971840E-19
3.200000E+03	1.486797E-18	7.930090E-19
3.210000E+03	1.488484E-18	7.890317E-19
3.220000E+03	1.490586E-18	7.852604E-19
3.230000E+03	1.493347E-18	7.818223E-19
3.240000E+03	1.496335E-18	7.784880E-19
3.250000E+03	1.499798E-18	7.753857E-19
3.260000E+03	1.503984E-18	7.726414E-19
3.270000E+03	1.508462E-18	7.700302E-19
3.280000E+03	1.513482E-18	7.676789E-19
3.290000E+03	1.519297E-18	7.657127E-19
3.300000E+03	1.525475E-18	7.639106E-19
3.310000E+03	1.532501E-18	7.625132E-19
3.320000E+03	1.540174E-18	7.614158E-19
3.330000E+03	1.548290E-18	7.605156E-19
3.340000E+03	1.557342E-18	7.600518E-19
3.350000E+03	1.567131E-18	7.599220E-19
3.360000E+03	1.577454E-18	7.600249E-19
3.370000E+03	1.588813E-18	7.605993E-19
3.380000E+03	1.601009E-18	7.615446E-19
3.390000E+03	1.614081E-18	7.628739E-19
3.400000E+03	1.628066E-18	7.646005E-19
3.410000E+03	1.643004E-18	7.667383E-19
3.420000E+03	1.658937E-18	7.693015E-19
3.430000E+03	1.675909E-18	7.723049E-19
3.440000E+03	1.693965E-18	7.757634E-19
3.450000E+03	1.713154E-18	7.796927E-19
3.460000E+03	1.733525E-18	7.841088E-19
3.470000E+03	1.755131E-18	7.890279E-19
3.480000E+03	1.778286E-18	7.945834E-19
3.490000E+03	1.802529E-18	8.005607E-19
3.500000E+03	1.828177E-18	8.070932E-19
3.510000E+03	1.855564E-18	8.143179E-19
3.520000E+03	1.884217E-18	8.220170E-19
3.530000E+03	1.914470E-18	8.303275E-19
3.540000E+03	1.946678E-18	8.393906E-19
3.550000E+03	1.980353E-18	8.489840E-19
3.560000E+03	2.016143E-18	8.593729E-19
3.570000E+03	2.053552E-18	8.703308E-19
3.580000E+03	2.093251E-18	8.821287E-19
3.590000E+03	2.134731E-18	8.945352E-19
3.600000E+03	2.178693E-18	9.078278E-19
3.610000E+03	2.224614E-18	9.217688E-19
3.620000E+03	2.273227E-18	9.366431E-19
3.630000E+03	2.324322E-18	9.523420E-19
3.640000E+03	2.377671E-18	9.687491E-19
3.650000E+03	2.434060E-18	9.861608E-19
3.660000E+03	2.493274E-18	1.004462E-18
3.670000E+03	2.555073E-18	1.023529E-18
3.680000E+03	2.620304E-18	1.043670E-18
3.690000E+03	2.688746E-18	1.064762E-18
3.700000E+03	2.760535E-18	1.086824E-18
3.710000E+03	2.835816E-18	1.109874E-18
3.720000E+03	2.914326E-18	1.133769E-18
3.730000E+03	2.997029E-18	1.158840E-18
3.740000E+03	3.083685E-18	1.184945E-18
3.750000E+03	3.174456E-18	1.212094E-18
3.760000E+03	3.269511E-18	1.240297E-18
3.770000E+03	3.369026E-18	1.269560E-18
3.780000E+03	3.473179E-18	1.299888E-18
3.790000E+03	3.582154E-18	1.331279E-18
3.800000E+03	3.696140E-18	1.363732E-18
3.810000E+03	3.815331E-18	1.397238E-18
3.820000E+03	3.939923E-18	1.431786E-18
3.830000E+03	4.070119E-18	1.467358E-18
3.840000E+03	4.206123E-18	1.503933E-18
3.850000E+03	4.348145E-18	1.541481E-18
3.860000E+03	4.496394E-18	1.579968E-18
3.870000E+03	4.651086E-18	1.619351E-18
3.880000E+03	4.812435E-18	1.659581E-18
3.890000E+03	4.980657E-18	1.700600E-18
3.900000E+03	5.155970E-18	1.742340E-18
3.910000E+03	5.338589E-18	1.784724E-18
3.920000E+03	5.528729E-18	1.827667E-18
3.930000E+03	5.726603E-18	1.871071E-18
3.940000E+03	5.932420E-18	1.914826E-18
3.950000E+03	6.146385E-18	1.958812E-18
3.960000E+03	6.368698E-18	2.002894E-18
3.970000E+03	6.599550E-18	2.046925E-18
3.980000E+03	6.839125E-18	2.090744E-18
3.990000E+03	7.087597E-18	2.134176E-18
4.000000E+03	7.345130E-18	2.177029E-18
4.010000E+03	7.611872E-18	2.219098E-18
4.020000E+03	7.887958E-18	2.260160E-18
4.030000E+03	8.173507E-18	2.299978E-18
4.040000E+03	8.468619E-18	2.338298E-18
4.050000E+03	8.773373E-18	2.374847E-18
4.060000E+03	9.087826E-18	2.409339E-18
4.070000E+03	9.412011E-18	2.441469E-18
4.080000E+03	9.745934E-18	2.470918E-18
4.090000E+03	1.008957E-17	2.497349E-18
4.100000E+03	1.044287E-17	2.520411E-18
4.110000E+03	1.080575E-17	2.539740E-18
4.120000E+03	1.117809E-17	2.554954E-18
4.130000E+03	1.155972E-17	2.565664E-18
4.140000E+03	1.195046E-17	2.571466E-18
4.150000E+03	1.235006E-17	2.571948E-18
4.160000E+03	1.275656E-17	2.566351E-18
4.170000E+03	1.317296E-17	2.554933E-18
4.180000E+03	1.359725E-17	2.536923E-18
4.190000E+03	1.402902E-17	2.511896E-18
4.200000E+03	1.446590E-17	2.479101E-18
4.210000E+03	1.491112E-17	2.438779E-18
4.220000E+03	1.536227E-17	2.390195E-18
4.230000E+03	1.581667E-17	2.332655E-18
4.240000E+03	1.627772E-17	2.266415E-18
4.250000E+03	1.674271E-17	2.190826E-18
4.260000E+03	1.720861E-17	2.105321E-18
4.270000E+03	1.767903E-17	2.010223E-18
4.280000E+03	1.814854E-17	1.904830E-18
4.290000E+03	1.862087E-17	1.789585E-18
4.300000E+03	1.909026E-17	1.664083E-18
4.310000E+03	1.956056E-17	1.529050E-18
4.320000E+03	2.002567E-17	1.384679E-18
4.330000E+03	2.048690E-17	1.232331E-18
4.340000E+03	2.094572E-17	1.074258E-18
4.350000E+03	2.139551E-17	9.141589E-19
4.360000E+03	2.183752E-17	7.601056E-19
4.370000E+03	2.227032E-17	6.282994E-19
4.380000E+03	2.269234E-17	5.493024E-19
4.390000E+03	2.310196E-17	5.601575E-19
4.400000E+03	2.349828E-17	6.639811E-19
4.410000E+03	2.388415E-17	8.290871E-19
4.420000E+03	2.425027E-17	1.027288E-18
4.430000E+03	2.460564E-17	1.243491E-18
4.440000E+03	2.494706E-17	1.469592E-18
4.450000E+03	2.527441E-17	1.701152E-18
4.460000E+03	2.558759E-17	1.935447E-18
4.470000E+03	2.588652E-17	2.170646E-18
4.480000E+03	2.616784E-17	2.405107E-18
4.490000E+03	2.643814E-17	2.638379E-18
4.500000E+03	2.669417E-17	2.869348E-18
4.510000E+03	2.693258E-17	3.096928E-18
4.520000E+03	2.716026E-17	3.321281E-18
4.530000E+03	2.737053E-17	3.541093E-18
4.540000E+03	2.757042E-17	3.756795E-18
4.550000E+03	2.775323E-17	3.967094E-18
4.560000E+03	2.792267E-17	4.172121E-18
4.570000E+03	2.807900E-17	4.371609E-18
4.580000E+03	2.822607E-17	4.565908E-18
4.590000E+03	2.835715E-17	4.753721E-18
4.600000E+03	2.847613E-17	4.935454E-18
4.610000E+03	2.858339E-17	5.111004E-18
4.620000E+03	2.867932E-17	5.280299E-18
4.630000E+03	2.876435E-17	5.443298E-18
4.640000E+03	2.883532E-17	5.599290E-18
4.650000E+03	2.889984E-17	5.749657E-18
4.660000E+03	2.895479E-17	5.893753E-18
4.670000E+03	2.900063E-17	6.031627E-18
4.680000E+03	2.903424E-17	6.162579E-18
4.690000E+03	2.906328E-17	6.288200E-18
4.700000E+03	2.908104E-17	6.407038E-18
4.710000E+03	2.909517E-17	6.520761E-18
4.720000E+03	2.909898E-17	6.627878E-18
4.730000E+03	2.909653E-17	6.729291E-18
4.740000E+03	2.909185E-17	6.825952E-18
4.750000E+03	2.907826E-17	6.916307E-18
4.760000E+03	2.905980E-17	7.001298E-18
4.770000E+03	2.903690E-17	7.081037E-18
4.780000E+03	2.901001E-17	7.155633E-18
4.790000E+03	2.897955E-17	7.225191E-18
4.800000E+03	2.894241E-17	7.288923E-18
4.810000E+03	2.890608E-17	7.348698E-18
4.820000E+03	2.886741E-17	7.403724E-18
4.830000E+03	2.882678E-17	7.454084E-18
4.840000E+03	2.878107E-17	7.498943E-18
4.850000E+03	2.873765E-17	7.540195E-18
4.860000E+03	2.868986E-17	7.576076E-18
4.870000E+03	2.864155E-17	7.607559E-18
4.880000E+03	2.859651E-17	7.635623E-18
4.890000E+03	2.854810E-17	7.658465E-18
4.900000E+03	2.850011E-17	7.677049E-18
4.910000E+03	2.845280E-17	7.691410E-18
4.920000E+03	2.840646E-17	7.701576E-18
4.930000E+03	2.836135E-17	7.707570E-18
4.940000E+03	2.831772E-17	7.709408E-18
4.950000E+03	2.827579E-17	7.707102E-18
4.960000E+03	2.823239E-17	7.699729E-18
4.970000E+03	2.819456E-17	7.689149E-18
4.980000E+03	2.815907E-17	7.674426E-18
4.990000E+03	2.812274E-17	7.654632E-18
5.000000E+03	2.809252E-17	7.631595E-18
5.010000E+03	2.806182E-17	7.603461E-18
5.020000E+03	2.803419E-17	7.571128E-18
5.030000E+03	2.800976E-17	7.534568E-18
5.040000E+03	2.799204E-17	7.494649E-18
5.050000E+03	2.797445E-17	7.449532E-18
5.060000E+03	2.796046E-17	7.400081E-18
5.070000E+03	2.795018E-17	7.346251E-18
5.080000E+03	2.794039E-17	7.287123E-18
5.090000E+03	2.793787E-17	7.224393E-18
5.100000E+03	2.793935E-17	7.157126E-18
5.110000E+03	2.794160E-17	7.084416E-18
5.120000E+03	2.795135E-17	7.007898E-18
5.130000E+03	2.796201E-17	6.925823E-18
5.140000E+03	2.798031E-17	6.839781E-18
5.150000E+03	2.799963E-17	6.748056E-18
5.160000E+03	2.802337E-17	6.651397E-18
5.170000E+03	2.805491E-17	6.550500E-18
5.180000E+03	2.808761E-17	6.443713E-18
5.190000E+03	2.812487E-17	6.331739E-18
5.200000E+03	2.816669E-17	6.214489E-18
5.210000E+03	2.821314E-17	6.091871E-18
5.220000E+03	2.826422E-17	5.963794E-18
5.230000E+03	2.831662E-17	5.829471E-18
5.240000E+03	2.837706E-17	5.690204E-18
5.250000E+03	2.844223E-17	5.545191E-18
5.260000E+03	2.850877E-17	5.393699E-18
5.270000E+03	2.858346E-17	5.236924E-18
5.280000E+03	2.865956E-17	5.073519E-18
5.290000E+03	2.874049E-17	4.904032E-18
5.300000E+03	2.882966E-17	4.728934E-18
5.310000E+03	2.892032E-17	4.547009E-18
5.320000E+03	2.901590E-17	4.358762E-18
5.330000E+03	2.911643E-17	4.164130E-18
5.340000E+03	2.922198E-17	3.963064E-18
5.350000E+03	2.933257E-17	3.755532E-18
5.360000E+03	2.944828E-17	3.541530E-18
5.370000E+03	2.956568E-17	3.320698E-18
5.380000E+03	2.969178E-17	3.093926E-18
5.390000E+03	2.982319E-17	2.860956E-18
5.400000E+03	2.995646E-17	2.621751E-18
5.410000E+03	3.009871E-17	2.377407E-18
5.420000E+03	3.024295E-17	2.128073E-18
5.430000E+03	3.039279E-17	1.875288E-18
5.440000E+03	3.055191E-17	1.621360E-18
5.450000E+03	3.071323E-17	1.369722E-18
5.460000E+03	3.088041E-17	1.128027E-18
5.470000E+03	3.105350E-17	9.115620E-19
5.480000E+03	3.123255E-17	7.517022E-19
5.490000E+03	3.141760E-17	6.987559E-19
5.500000E+03	3.160867E-17	7.808804E-19
5.510000E+03	3.180577E-17	9.625018E-19
5.520000E+03	3.200518E-17	1.196619E-18
5.530000E+03	3.221434E-17	1.456105E-18
5.540000E+03	3.242950E-17	1.727482E-18
5.550000E+03	3.264681E-17	2.003816E-18
5.560000E+03	3.287380E-17	2.281909E-18
5.570000E+03	3.310278E-17	2.559108E-18
5.580000E+03	3.333748E-17	2.834271E-18
5.590000E+03	3.358175E-17	3.106808E-18
5.600000E+03	3.382773E-17	3.375323E-18
5.610000E+03	3.407924E-17	3.639594E-18
5.620000E+03	3.433622E-17	3.899164E-18
5.630000E+03	3.459859E-17	4.153637E-18
5.640000E+03	3.486631E-17	4.402653E-18
5.650000E+03	3.513931E-17	4.645881E-18
5.660000E+03	3.541753E-17	4.883003E-18
5.670000E+03	3.570092E-17	5.113712E-18
5.680000E+03	3.598524E-17	5.337085E-18
5.690000E+03	3.627878E-17	5.554039E-18
5.700000E+03	3.657731E-17	5.763678E-18
5.710000E+03	3.687650E-17	5.965004E-18
5.720000E+03	3.718484E-17	6.159077E-18
5.730000E+03	3.749363E-17	6.344177E-18
5.740000E+03	3.781151E-17	6.521444E-18
5.750000E+03	3.812963E-17	6.689062E-18
5.760000E+03	3.845229E-17	6.847442E-18
5.770000E+03	3.877938E-17	6.996253E-18
5.780000E+03	3.911536E-17	7.135985E-18
5.790000E+03	3.945107E-17	7.264648E-18
5.800000E+03	3.979090E-17	7.382704E-18
5.810000E+03	4.013471E-17	7.489791E-18
5.820000E+03	4.048237E-17	7.585542E-18
5.830000E+03	4.082897E-17	7.668693E-18
5.840000E+03	4.118379E-17	7.740637E-18
5.850000E+03	4.154193E-17	7.800106E-18
5.860000E+03	4.190320E-17	7.846708E-18
5.870000E+03	4.226247E-17	7.879133E-18
5.880000E+03	4.262927E-17	7.898807E-18
5.890000E+03	4.299848E-17	7.904416E-18
5.900000E+03	4.336481E-17	7.894638E-18
5.910000E+03	4.373798E-17	7.870903E-18
5.920000E+03	4.410758E-17	7.830977E-18
5.930000E+03	4.447831E-17	7.775380E-18
5.940000E+03	4.485506E-17	7.704611E-18
5.950000E+03	4.522708E-17	7.616481E-18
5.960000E+03	4.559917E-17	7.511511E-18
5.970000E+03	4.597095E-17	7.389327E-18
5.980000E+03	4.634738E-17	7.250408E-18
5.990000E+03	4.671734E-17	7.092703E-18
6.000000E+03	4.708573E-17	6.916737E-18
6.010000E+03	4.745211E-17	6.722192E-18
6.020000E+03	4.781602E-17	6.508773E-18
6.030000E+03	4.817702E-17	6.276208E-18
6.040000E+03	4.852898E-17	6.023551E-18
6.050000E+03	4.888264E-17	5.752016E-18
6.060000E+03	4.923192E-17	5.460691E-18
6.070000E+03	4.957631E-17	5.149434E-18
6.080000E+03	4.990950E-17	4.817590E-18
6.090000E+03	5.024248E-17	4.466276E-18
6.100000E+03	5.056895E-17	4.094922E-18
6.110000E+03	5.088239E-17	3.703216E-18
6.120000E+03	5.119392E-17	3.292310E-18
6.130000E+03	5.149098E-17	2.861838E-18
6.140000E+03	5.178465E-17	2.413303E-18
6.150000E+03	5.206197E-17	1.947607E-18
6.160000E+03	5.232773E-17	1.468477E-18
6.170000E+03	5.258657E-17	9.860404E-19
6.180000E+03	5.282453E-17	5.469631E-19
6.190000E+03	5.304547E-17	4.433403E-19
6.200000E+03	5.325479E-17	8.375190E-19
6.210000E+03	5.344194E-17	1.346533E-18
6.220000E+03	5.361475E-17	1.877182E-18
6.230000E+03	5.377455E-17	2.412853E-18
6.240000E+03	5.392243E-17	2.948324E-18
6.250000E+03	5.405926E-17	3.481199E-18
6.260000E+03	5.418577E-17	4.010067E-18
6.270000E+03	5.430257E-17	4.533962E-18
6.280000E+03	5.441020E-17	5.052150E-18
6.290000E+03	5.450916E-17	5.564041E-18
6.300000E+03	5.459992E-17	6.069143E-18
6.310000E+03	5.467655E-17	6.566271E-18
6.320000E+03	5.475220E-17	7.056534E-18
6.330000E+03	5.482093E-17	7.538910E-18
6.340000E+03	5.488317E-17	8.013122E-18
6.350000E+03	5.493292E-17	8.477944E-18
6.360000E+03	5.498338E-17	8.935087E-18
6.370000E+03	5.502855E-17	9.383439E-18
6.380000E+03	5.506241E-17	9.821705E-18
6.390000E+03	5.509818E-17	1.025199E-17
6.400000E+03	5.512341E-17	1.067186E-17
6.410000E+03	5.515129E-17	1.108367E-17
6.420000E+03	5.516937E-17	1.148481E-17
6.430000E+03	5.519082E-17	1.187788E-17
6.440000E+03	5.520315E-17	1.226011E-17
6.450000E+03	5.521309E-17	1.263284E-17
6.460000E+03	5.522742E-17	1.299758E-17
6.470000E+03	5.523354E-17	1.335135E-17
6.480000E+03	5.523818E-17	1.369564E-17
6.490000E+03	5.524805E-17	1.403213E-17
6.500000E+03	5.525051E-17	1.435761E-17
6.510000E+03	5.525224E-17	1.467372E-17
6.520000E+03	5.525346E-17	1.498050E-17
6.530000E+03	5.525435E-17	1.527801E-17
6.540000E+03	5.526155E-17	1.556812E-17
6.550000E+03	5.526232E-17	1.584728E-17
6.560000E+03	5.526324E-17	1.611732E-17
6.570000E+03	5.526445E-17	1.637829E-17
6.580000E+03	5.526604E-17	1.663025E-17
6.590000E+03	5.526811E-17	1.687325E-17
6.600000E+03	5.527072E-17	1.710732E-17
6.610000E+03	5.527393E-17	1.733251E-17
6.620000E+03	5.527777E-17	1.754886E-17
6.630000E+03	5.527579E-17	1.775432E-17
6.640000E+03	5.528094E-17	1.795305E-17
6.650000E+03	5.528674E-17	1.814302E-17
6.660000E+03	5.529316E-17	1.832425E-17
6.670000E+03	5.530016E-17	1.849674E-17
6.680000E+03	5.530121E-17	1.865832E-17
6.690000E+03	5.530920E-17	1.881334E-17
6.700000E+03	5.531757E-17	1.895961E-17
6.710000E+03	5.532625E-17	1.909714E-17
6.720000E+03	5.532863E-17	1.922365E-17
6.730000E+03	5.533759E-17	1.934360E-17
6.740000E+03	5.534002E-17	1.945244E-17
6.750000E+03	5.534879E-17	1.955470E-17
6.760000E+03	5.535726E-17	1.964806E-17
6.770000E+03	5.535878E-17	1.973016E-17
6.780000E+03	5.536621E-17	1.980557E-17
6.790000E+03	5.536638E-17	1.986959E-17
6.800000E+03	5.537214E-17	1.992683E-17
6.810000E+03	5.537028E-17	1.997254E-17
6.820000E+03	5.537367E-17	2.001137E-17
6.830000E+03	5.536908E-17	2.003852E-17
6.840000E+03	5.536284E-17	2.005628E-17
6.850000E+03	5.536128E-17	2.006693E-17
6.860000E+03	5.535116E-17	2.006569E-17
6.870000E+03	5.533878E-17	2.005483E-17
6.880000E+03	5.533047E-17	2.003663E-17
6.890000E+03	5.531297E-17	2.000628E-17
6.900000E+03	5.529258E-17	1.996607E-17
6.910000E+03	5.526908E-17	1.991592E-17
6.920000E+03	5.524225E-17	1.985574E-17
6.930000E+03	5.521837E-17	1.978779E-17
6.940000E+03	5.518416E-17	1.970730E-17
6.950000E+03	5.514592E-17	1.961654E-17
6.960000E+03	5.510340E-17	1.951543E-17
6.970000E+03	5.505636E-17	1.940390E-17
6.980000E+03	5.500454E-17	1.928187E-17
6.990000E+03	5.494769E-17	1.914927E-17
7.000000E+03	5.488555E-17	1.900604E-17
7.010000E+03	5.481788E-17	1.885212E-17
7.020000E+03	5.474439E-17	1.868744E-17
7.030000E+03	5.466483E-17	1.851197E-17
7.040000E+03	5.457892E-17	1.832565E-17
7.050000E+03	5.448640E-17	1.812845E-17
7.060000E+03	5.438699E-17	1.792035E-17
7.070000E+03	5.427397E-17	1.769922E-17
7.080000E+03	5.415996E-17	1.746928E-17
7.090000E+03	5.403823E-17	1.722841E-17
7.100000E+03	5.390849E-17	1.697663E-17
7.110000E+03	5.377047E-17	1.671394E-17
7.120000E+03	5.361752E-17	1.643845E-17
7.130000E+03	5.346213E-17	1.615414E-17
7.140000E+03	5.329762E-17	1.585909E-17
7.150000E+03	5.311740E-17	1.555154E-17
7.160000E+03	5.293388E-17	1.523532E-17
7.170000E+03	5.273416E-17	1.490690E-17
7.180000E+03	5.253058E-17	1.456999E-17
7.190000E+03	5.231657E-17	1.422294E-17
7.200000E+03	5.208568E-17	1.386427E-17
7.210000E+03	5.185013E-17	1.349753E-17
7.220000E+03	5.159731E-17	1.311968E-17
7.230000E+03	5.133320E-17	1.273262E-17
7.240000E+03	5.106372E-17	1.233808E-17
7.250000E+03	5.077646E-17	1.193336E-17
7.260000E+03	5.048340E-17	1.152168E-17
7.270000E+03	5.017231E-17	1.110057E-17
7.280000E+03	4.984910E-17	1.067183E-17
7.290000E+03	4.951961E-17	1.023707E-17
7.300000E+03	4.917183E-17	9.794197E-18
7.310000E+03	4.881166E-17	9.344939E-18
7.320000E+03	4.843905E-17	8.889760E-18
7.330000E+03	4.805397E-17	8.429155E-18
7.340000E+03	4.766212E-17	7.964598E-18
7.350000E+03	4.725205E-17	7.494669E-18
7.360000E+03	4.682954E-17	7.020954E-18
7.370000E+03	4.639466E-17	6.544057E-18
7.380000E+03	4.594749E-17	6.064614E-18
7.390000E+03	4.548812E-17	5.583296E-18
7.400000E+03	4.501667E-17	5.100819E-18
7.410000E+03	4.453327E-17	4.617953E-18
7.420000E+03	4.403804E-17	4.135543E-18
7.430000E+03	4.353112E-17	3.654543E-18
7.440000E+03	4.301262E-17	3.176084E-18
7.450000E+03	4.247753E-17	2.701279E-18
7.460000E+03	4.193618E-17	2.232871E-18
7.470000E+03	4.138338E-17	1.773831E-18
7.480000E+03	4.081901E-17	1.330913E-18
7.490000E+03	4.023792E-17	9.215935E-19
7.500000E+03	3.964949E-17	6.061165E-19
7.510000E+03	3.904822E-17	5.551488E-19
7.520000E+03	3.843017E-17	8.000333E-19
7.530000E+03	3.780726E-17	1.146513E-18
7.540000E+03	3.717707E-17	1.510985E-18
7.550000E+03	3.653714E-17	1.870487E-18
7.560000E+03	3.589813E-17	2.217907E-18
7.570000E+03	3.525276E-17	2.549766E-18
7.580000E+03	3.461096E-17	2.865362E-18
7.590000E+03	3.396545E-17	3.163530E-18
7.600000E+03	3.332158E-17	3.444470E-18
7.610000E+03	3.268429E-17	3.708754E-18
7.620000E+03	3.204645E-17	3.955774E-18
7.630000E+03	3.141294E-17	4.186310E-18
7.640000E+03	3.078825E-17	4.401325E-18
7.650000E+03	3.016549E-17	4.600246E-18
7.660000E+03	2.954913E-17	4.784091E-18
7.670000E+03	2.893976E-17	4.953394E-18
7.680000E+03	2.833788E-17	5.108705E-18
7.690000E+03	2.774399E-17	5.250586E-18
7.700000E+03	2.716184E-17	5.380261E-18
7.710000E+03	2.658509E-17	5.497001E-18
7.720000E+03	2.601748E-17	5.602015E-18
7.730000E+03	2.545931E-17	5.695869E-18
7.740000E+03	2.490778E-17	5.778413E-18
7.750000E+03	2.436928E-17	5.851605E-18
7.760000E+03	2.384088E-17	5.915287E-18
