#wls	flux	fluxerr
1.597604E+03	5.413694E-04	1.728956E-05
1.637544E+03	5.342188E-04	1.695616E-05
1.677484E+03	5.267405E-04	1.661338E-05
1.717424E+03	5.190998E-04	1.626668E-05
1.757364E+03	5.111841E-04	1.591271E-05
1.797304E+03	5.031483E-04	1.555652E-05
1.837244E+03	4.947936E-04	1.519215E-05
1.877184E+03	4.863528E-04	1.482700E-05
1.917124E+03	4.777926E-04	1.446020E-05
1.957064E+03	4.690807E-04	1.409094E-05
1.997004E+03	4.603406E-04	1.372311E-05
2.036945E+03	4.515296E-04	1.335557E-05
2.076885E+03	4.427524E-04	1.299151E-05
2.116825E+03	4.339556E-04	1.262949E-05
2.156765E+03	4.252252E-04	1.227208E-05
2.196705E+03	4.166306E-04	1.192134E-05
2.236645E+03	4.079707E-04	1.157156E-05
2.276585E+03	3.993127E-04	1.122478E-05
2.316525E+03	3.904749E-04	1.087605E-05
2.356465E+03	3.814716E-04	1.052601E-05
2.396405E+03	3.721549E-04	1.017087E-05
2.436345E+03	3.625104E-04	9.810582E-06
2.476286E+03	3.525361E-04	9.445494E-06
2.516226E+03	3.422445E-04	9.076323E-06
2.556166E+03	3.316645E-04	8.704213E-06
2.596106E+03	3.208023E-04	8.329695E-06
2.636046E+03	3.097332E-04	7.955063E-06
2.675986E+03	2.985550E-04	7.583110E-06
2.715926E+03	2.874595E-04	7.218877E-06
2.755866E+03	2.765569E-04	6.865150E-06
2.795806E+03	2.660926E-04	6.527908E-06
2.835746E+03	2.562619E-04	6.211612E-06
2.875686E+03	2.473321E-04	5.922215E-06
2.915627E+03	2.396411E-04	5.667016E-06
2.955567E+03	2.336871E-04	5.456632E-06
2.995507E+03	2.301758E-04	5.305863E-06
3.005492E+03	2.298004E-04	5.280013E-06
3.015477E+03	2.296452E-04	5.259250E-06
3.025462E+03	2.297520E-04	5.244486E-06
3.035447E+03	2.301213E-04	5.235666E-06
3.045432E+03	2.307988E-04	5.233776E-06
3.055417E+03	2.318113E-04	5.239348E-06
3.065402E+03	2.331673E-04	5.252504E-06
3.075387E+03	2.349220E-04	5.274404E-06
3.085372E+03	2.371142E-04	5.305828E-06
3.095357E+03	2.397672E-04	5.347200E-06
3.105342E+03	2.429767E-04	5.400540E-06
3.115327E+03	2.467617E-04	5.466152E-06
3.125312E+03	2.512405E-04	5.546513E-06
3.135297E+03	2.564585E-04	5.642471E-06
3.145282E+03	2.625673E-04	5.757186E-06
3.155267E+03	2.696733E-04	5.892781E-06
3.165252E+03	2.779290E-04	6.052360E-06
3.175237E+03	2.875392E-04	6.240107E-06
3.185222E+03	2.986921E-04	6.459795E-06
3.195207E+03	3.116590E-04	6.716923E-06
3.205192E+03	3.266974E-04	7.016624E-06
3.215177E+03	3.441834E-04	7.366489E-06
3.225162E+03	3.644247E-04	7.772532E-06
3.235147E+03	3.878487E-04	8.243233E-06
3.245132E+03	4.149239E-04	8.787809E-06
3.255117E+03	4.460832E-04	9.414595E-06
3.265102E+03	4.818033E-04	1.013271E-05
3.275087E+03	5.226352E-04	1.095271E-05
3.285072E+03	5.689472E-04	1.188117E-05
3.295057E+03	6.211573E-04	1.292558E-05
3.305042E+03	6.795382E-04	1.409031E-05
3.315027E+03	7.442688E-04	1.537773E-05
3.325012E+03	8.152954E-04	1.678537E-05
3.334998E+03	8.922694E-04	1.830472E-05
3.344983E+03	9.747677E-04	1.992586E-05
3.354968E+03	1.061942E-03	2.163037E-05
3.364953E+03	1.152500E-03	2.339102E-05
3.374938E+03	1.244889E-03	2.517576E-05
3.384923E+03	1.337130E-03	2.694435E-05
3.394908E+03	1.426727E-03	2.864680E-05
3.404893E+03	1.510721E-03	3.022452E-05
3.414878E+03	1.586409E-03	3.162492E-05
3.420869E+03	1.287620E-03	2.561328E-05
3.422866E+03	1.294745E-03	2.573649E-05
3.424863E+03	1.304477E-03	2.591129E-05
3.426860E+03	1.314371E-03	2.608905E-05
3.428857E+03	1.325560E-03	2.629221E-05
3.430854E+03	1.336933E-03	2.649873E-05
3.432851E+03	1.348627E-03	2.671129E-05
3.434848E+03	1.360732E-03	2.693167E-05
3.436845E+03	1.373250E-03	2.715987E-05
3.438842E+03	1.386020E-03	2.739273E-05
3.440839E+03	1.398999E-03	2.762935E-05
3.442836E+03	1.412095E-03	2.786794E-05
3.444833E+03	1.425195E-03	2.810624E-05
3.446830E+03	1.438186E-03	2.834203E-05
3.448827E+03	1.451000E-03	2.857399E-05
3.450824E+03	1.463500E-03	2.879942E-05
3.452821E+03	1.475642E-03	2.901746E-05
3.454818E+03	1.487266E-03	2.922501E-05
3.456815E+03	1.496987E-03	2.939488E-05
3.458812E+03	1.509163E-03	2.961266E-05
3.460809E+03	1.519006E-03	2.978435E-05
3.462806E+03	1.526038E-03	2.990072E-05
3.464803E+03	1.534071E-03	3.003651E-05
3.466800E+03	1.541313E-03	3.015662E-05
3.468797E+03	1.549739E-03	3.029968E-05
3.470794E+03	1.554581E-03	3.037249E-05
3.472791E+03	1.559970E-03	3.045587E-05
3.474788E+03	1.560547E-03	3.044522E-05
3.476785E+03	1.564396E-03	3.049839E-05
3.478782E+03	1.560841E-03	3.040720E-05
3.480779E+03	1.556400E-03	3.029891E-05
3.482776E+03	1.552936E-03	3.020976E-05
3.484773E+03	1.551474E-03	3.015963E-05
3.486770E+03	1.545580E-03	3.002347E-05
3.488767E+03	1.540573E-03	2.990471E-05
3.490764E+03	1.532154E-03	2.971993E-05
3.492761E+03	1.526737E-03	2.959360E-05
3.494758E+03	1.518728E-03	2.941721E-05
3.496755E+03	1.508215E-03	2.919261E-05
3.498752E+03	1.499544E-03	2.900395E-05
3.500749E+03	1.488256E-03	2.876494E-05
3.502746E+03	1.481062E-03	2.860537E-05
3.504743E+03	1.472320E-03	2.841612E-05
3.506740E+03	1.462735E-03	2.821088E-05
3.508737E+03	1.451600E-03	2.797605E-05
3.510734E+03	1.445382E-03	2.783624E-05
3.512731E+03	1.444105E-03	2.779172E-05
3.514728E+03	1.437728E-03	2.764916E-05
3.516725E+03	1.430121E-03	2.748315E-05
3.518722E+03	1.421829E-03	2.730423E-05
3.520719E+03	1.416567E-03	2.718369E-05
3.522716E+03	1.410689E-03	2.705152E-05
3.524713E+03	1.408823E-03	2.699639E-05
3.526710E+03	1.400847E-03	2.682435E-05
3.528707E+03	1.396793E-03	2.672758E-05
3.530704E+03	1.394404E-03	2.666277E-05
3.532701E+03	1.383098E-03	2.642767E-05
3.534698E+03	1.381894E-03	2.638580E-05
3.536695E+03	1.381513E-03	2.635967E-05
3.538692E+03	1.379605E-03	2.630445E-05
3.540689E+03	1.377994E-03	2.625497E-05
3.542686E+03	1.368601E-03	2.605738E-05
3.544683E+03	1.363658E-03	2.594473E-05
3.546680E+03	1.359628E-03	2.584960E-05
3.548677E+03	1.351968E-03	2.568562E-05
3.550674E+03	1.352619E-03	2.567967E-05
3.552671E+03	1.347082E-03	2.555632E-05
3.554668E+03	1.346708E-03	2.553101E-05
3.556665E+03	1.341445E-03	2.541312E-05
3.558662E+03	1.337165E-03	2.531399E-05
3.560659E+03	1.329616E-03	2.515316E-05
3.562656E+03	1.326867E-03	2.508329E-05
3.564653E+03	1.326382E-03	2.505628E-05
3.566650E+03	1.327728E-03	2.506387E-05
3.568647E+03	1.325827E-03	2.501020E-05
3.570644E+03	1.323813E-03	2.495447E-05
3.572641E+03	1.320885E-03	2.488158E-05
3.574638E+03	1.316149E-03	2.477477E-05
3.576635E+03	1.312397E-03	2.468662E-05
3.578632E+03	1.311736E-03	2.465667E-05
3.580629E+03	1.306977E-03	2.454980E-05
3.582626E+03	1.301394E-03	2.442760E-05
3.584623E+03	1.299246E-03	2.437001E-05
3.586620E+03	1.292723E-03	2.423049E-05
3.588617E+03	1.290048E-03	2.416324E-05
3.590614E+03	1.287534E-03	2.409909E-05
3.592611E+03	1.283760E-03	2.401146E-05
3.594608E+03	1.273658E-03	2.380568E-05
3.596605E+03	1.264586E-03	2.361943E-05
3.598602E+03	1.257209E-03	2.346507E-05
3.600599E+03	1.251849E-03	2.334854E-05
3.602596E+03	1.248692E-03	2.327323E-05
3.604593E+03	1.244203E-03	2.317322E-05
3.606590E+03	1.236707E-03	2.301739E-05
3.608587E+03	1.231850E-03	2.291085E-05
3.610584E+03	1.223365E-03	2.273702E-05
3.612581E+03	1.220045E-03	2.265937E-05
3.614578E+03	1.217827E-03	2.260228E-05
3.616575E+03	1.209705E-03	2.243578E-05
3.618572E+03	1.200939E-03	2.225755E-05
3.620569E+03	1.198421E-03	2.219531E-05
3.622566E+03	1.194731E-03	2.211147E-05
3.624563E+03	1.188306E-03	2.197713E-05
3.626560E+03	1.182822E-03	2.186039E-05
3.628557E+03	1.184353E-03	2.187337E-05
3.630554E+03	1.189751E-03	2.195769E-05
3.632551E+03	1.197223E-03	2.208016E-05
3.634548E+03	1.198463E-03	2.208759E-05
3.636545E+03	1.208291E-03	2.225318E-05
3.638542E+03	1.216951E-03	2.239703E-05
3.640539E+03	1.227665E-03	2.257847E-05
3.642536E+03	1.238846E-03	2.276825E-05
3.644533E+03	1.252338E-03	2.300019E-05
3.646530E+03	1.268764E-03	2.328565E-05
3.648527E+03	1.285382E-03	2.357426E-05
3.650524E+03	1.302817E-03	2.387742E-05
3.652521E+03	1.320514E-03	2.418497E-05
3.654518E+03	1.340850E-03	2.454039E-05
3.656515E+03	1.369249E-03	2.504279E-05
3.658512E+03	1.399438E-03	2.557722E-05
3.660509E+03	1.429458E-03	2.610782E-05
3.662506E+03	1.456354E-03	2.658066E-05
3.664503E+03	1.487859E-03	2.713692E-05
3.666500E+03	1.520766E-03	2.771796E-05
3.668497E+03	1.559372E-03	2.840202E-05
3.670494E+03	1.598553E-03	2.909560E-05
3.672491E+03	1.635304E-03	2.974402E-05
3.674488E+03	1.677762E-03	3.049527E-05
3.676485E+03	1.720912E-03	3.125808E-05
3.678482E+03	1.761840E-03	3.197952E-05
3.680479E+03	1.806352E-03	3.276499E-05
3.682476E+03	1.855817E-03	3.363915E-05
3.684473E+03	1.902831E-03	3.446772E-05
3.686470E+03	1.948088E-03	3.526336E-05
3.688467E+03	1.992604E-03	3.604451E-05
3.690464E+03	2.033183E-03	3.675345E-05
3.692461E+03	2.078325E-03	3.754385E-05
3.694458E+03	2.119066E-03	3.825372E-05
3.696455E+03	2.156422E-03	3.890157E-05
3.698452E+03	2.191458E-03	3.950672E-05
3.700449E+03	2.223869E-03	4.006378E-05
3.702446E+03	2.261194E-03	4.070855E-05
3.704443E+03	2.290164E-03	4.120214E-05
3.706440E+03	2.319848E-03	4.170791E-05
3.708437E+03	2.341703E-03	4.207235E-05
3.710434E+03	2.364826E-03	4.245906E-05
3.712431E+03	2.382621E-03	4.274968E-05
3.714428E+03	2.392530E-03	4.289850E-05
3.716425E+03	2.398263E-03	4.297233E-05
3.718422E+03	2.404002E-03	4.304616E-05
3.720419E+03	2.400680E-03	4.295776E-05
3.722416E+03	2.394800E-03	4.282376E-05
3.724413E+03	2.385896E-03	4.263591E-05
3.726410E+03	2.371871E-03	4.235686E-05
3.728407E+03	2.348996E-03	4.192028E-05
3.730404E+03	2.324832E-03	4.146129E-05
3.732401E+03	2.296489E-03	4.092844E-05
3.734398E+03	2.261122E-03	4.027122E-05
3.736395E+03	2.227812E-03	3.965151E-05
3.738392E+03	2.186655E-03	3.889306E-05
3.740389E+03	2.136713E-03	3.797947E-05
3.742386E+03	2.083480E-03	3.700866E-05
3.744383E+03	2.037359E-03	3.616539E-05
3.746380E+03	1.987552E-03	3.525785E-05
3.748377E+03	1.933238E-03	3.427163E-05
3.750374E+03	1.875884E-03	3.323287E-05
3.752371E+03	1.815908E-03	3.214908E-05
3.754368E+03	1.753938E-03	3.103144E-05
3.756365E+03	1.695066E-03	2.997007E-05
3.758362E+03	1.630343E-03	2.880671E-05
3.760359E+03	1.568950E-03	2.770371E-05
3.762356E+03	1.505303E-03	2.656237E-05
3.764353E+03	1.441948E-03	2.542770E-05
3.766350E+03	1.387964E-03	2.445968E-05
3.768347E+03	1.334326E-03	2.349901E-05
3.770344E+03	1.280048E-03	2.252835E-05
3.772341E+03	1.225107E-03	2.154731E-05
3.774338E+03	1.179764E-03	2.073625E-05
3.776335E+03	1.135052E-03	1.993734E-05
3.778333E+03	1.092540E-03	1.917811E-05
3.780330E+03	1.051881E-03	1.845236E-05
3.782327E+03	1.012676E-03	1.775306E-05
3.784324E+03	9.834670E-04	1.722980E-05
3.786321E+03	9.523171E-04	1.667323E-05
3.788318E+03	9.246468E-04	1.617828E-05
3.790315E+03	9.025267E-04	1.578102E-05
3.792312E+03	8.793604E-04	1.536600E-05
3.794309E+03	8.597760E-04	1.501407E-05
3.796306E+03	8.457515E-04	1.475963E-05
3.798303E+03	8.331068E-04	1.452958E-05
3.800300E+03	8.280522E-04	1.443213E-05
3.802297E+03	8.261949E-04	1.439049E-05
3.804294E+03	8.283625E-04	1.441897E-05
3.806291E+03	8.286957E-04	1.441550E-05
3.808288E+03	8.301132E-04	1.443090E-05
3.810285E+03	8.353020E-04	1.451180E-05
3.812282E+03	8.458445E-04	1.468555E-05
3.814279E+03	8.587757E-04	1.490053E-05
3.816276E+03	8.744751E-04	1.516324E-05
3.818273E+03	8.897842E-04	1.541885E-05
3.820270E+03	9.047735E-04	1.566861E-05
3.822267E+03	9.251322E-04	1.601097E-05
3.824264E+03	9.422461E-04	1.629679E-05
3.826261E+03	9.648287E-04	1.667677E-05
3.828258E+03	9.911598E-04	1.712103E-05
3.830255E+03	1.016658E-03	1.755036E-05
3.832252E+03	1.045863E-03	1.804308E-05
3.834249E+03	1.077429E-03	1.857591E-05
3.836246E+03	1.112803E-03	1.917367E-05
3.838243E+03	1.148746E-03	1.978047E-05
3.840240E+03	1.187957E-03	2.044277E-05
3.842237E+03	1.222151E-03	2.101795E-05
3.844234E+03	1.267219E-03	2.177931E-05
3.846231E+03	1.315613E-03	2.259684E-05
3.848228E+03	1.368616E-03	2.349247E-05
3.850225E+03	1.422818E-03	2.440755E-05
3.852222E+03	1.470724E-03	2.521355E-05
3.854219E+03	1.529461E-03	2.620413E-05
3.856216E+03	1.591753E-03	2.725434E-05
3.858213E+03	1.660335E-03	2.841088E-05
3.860210E+03	1.727420E-03	2.954039E-05
3.862207E+03	1.806554E-03	3.087442E-05
3.864204E+03	1.892114E-03	3.231657E-05
3.866201E+03	1.978758E-03	3.377542E-05
3.868198E+03	2.066391E-03	3.524934E-05
3.870195E+03	2.159059E-03	3.680730E-05
3.872192E+03	2.252841E-03	3.838231E-05
3.874189E+03	2.352167E-03	4.004979E-05
3.876186E+03	2.456471E-03	4.179993E-05
3.878183E+03	2.561708E-03	4.356378E-05
3.880180E+03	2.667498E-03	4.533487E-05
3.882177E+03	2.775033E-03	4.713344E-05
3.884174E+03	2.888371E-03	4.902831E-05
3.886171E+03	2.995825E-03	5.082105E-05
3.888168E+03	3.105028E-03	5.264127E-05
3.890165E+03	3.221713E-03	5.458605E-05
3.892162E+03	3.338723E-03	5.653396E-05
3.894159E+03	3.445781E-03	5.831110E-05
3.896156E+03	3.555786E-03	6.013593E-05
3.898153E+03	3.669937E-03	6.202864E-05
3.900150E+03	3.779388E-03	6.383966E-05
3.902147E+03	3.883655E-03	6.556098E-05
3.904144E+03	3.987041E-03	6.726538E-05
3.906141E+03	4.087631E-03	6.892058E-05
3.908138E+03	4.186378E-03	7.054275E-05
3.910135E+03	4.284241E-03	7.214809E-05
3.912132E+03	4.381697E-03	7.374467E-05
3.914129E+03	4.473709E-03	7.524778E-05
3.916126E+03	4.557154E-03	7.660508E-05
3.918123E+03	4.634902E-03	7.786506E-05
3.920120E+03	4.710550E-03	7.908830E-05
3.922117E+03	4.780246E-03	8.021023E-05
3.924114E+03	4.846635E-03	8.127539E-05
3.926111E+03	4.906102E-03	8.222327E-05
3.928108E+03	4.962971E-03	8.312654E-05
3.930105E+03	5.016997E-03	8.398117E-05
3.932102E+03	5.068418E-03	8.479124E-05
3.934099E+03	5.111694E-03	8.546417E-05
3.936096E+03	5.155728E-03	8.614901E-05
3.938093E+03	5.196428E-03	8.677738E-05
3.940090E+03	5.238119E-03	8.742157E-05
3.942087E+03	5.285869E-03	8.816611E-05
3.944084E+03	5.332693E-03	8.889435E-05
3.946081E+03	5.380520E-03	8.963845E-05
3.948078E+03	5.433211E-03	9.046271E-05
3.950075E+03	5.487635E-03	9.131487E-05
3.952072E+03	5.545966E-03	9.223102E-05
3.954069E+03	5.602649E-03	9.311874E-05
3.956066E+03	5.661069E-03	9.403429E-05
3.958063E+03	5.725821E-03	9.505391E-05
3.960060E+03	5.791833E-03	9.609330E-05
3.962057E+03	5.862734E-03	9.721254E-05
3.964054E+03	5.932243E-03	9.830746E-05
3.966051E+03	6.004225E-03	9.944209E-05
3.968048E+03	6.082073E-03	1.006725E-04
3.970045E+03	6.167016E-03	1.020189E-04
3.972042E+03	6.251293E-03	1.033528E-04
3.974039E+03	6.341457E-03	1.047824E-04
3.976036E+03	6.431208E-03	1.062036E-04
3.978033E+03	6.519814E-03	1.076042E-04
3.980030E+03	6.614073E-03	1.090966E-04
3.982027E+03	6.709379E-03	1.106045E-04
3.984024E+03	6.807426E-03	1.121558E-04
3.986021E+03	6.904095E-03	1.136827E-04
3.988018E+03	7.002786E-03	1.152412E-04
3.990015E+03	7.105930E-03	1.168712E-04
3.992012E+03	7.214751E-03	1.185926E-04
3.994009E+03	7.319276E-03	1.202415E-04
3.996006E+03	7.423147E-03	1.218779E-04
3.998003E+03	7.527591E-03	1.235218E-04
4.000000E+03	7.629677E-03	1.251252E-04
4.001997E+03	7.742329E-03	1.269001E-04
4.003994E+03	7.849697E-03	1.285863E-04
4.005991E+03	7.952519E-03	1.301963E-04
4.007988E+03	8.050046E-03	1.317179E-04
4.009985E+03	8.150091E-03	1.332789E-04
4.011982E+03	8.242638E-03	1.347157E-04
4.013979E+03	8.330621E-03	1.360764E-04
4.015976E+03	8.419401E-03	1.374486E-04
4.017973E+03	8.497979E-03	1.386528E-04
4.019970E+03	8.569766E-03	1.397450E-04
4.021967E+03	8.637204E-03	1.407651E-04
4.023964E+03	8.697348E-03	1.416653E-04
4.025961E+03	8.744065E-03	1.423461E-04
4.027958E+03	8.780037E-03	1.428512E-04
4.029955E+03	8.811871E-03	1.432886E-04
4.031952E+03	8.834657E-03	1.435785E-04
4.033949E+03	8.842002E-03	1.436173E-04
4.035946E+03	8.849846E-03	1.436643E-04
4.037943E+03	8.844436E-03	1.434962E-04
4.039940E+03	8.826004E-03	1.431172E-04
4.041937E+03	8.798217E-03	1.425871E-04
4.043934E+03	8.763282E-03	1.419419E-04
4.045931E+03	8.713565E-03	1.410582E-04
4.047928E+03	8.654464E-03	1.400236E-04
4.049925E+03	8.586947E-03	1.388542E-04
4.051922E+03	8.509528E-03	1.375262E-04
4.053919E+03	8.422692E-03	1.360475E-04
4.055916E+03	8.333075E-03	1.345256E-04
4.057913E+03	8.235994E-03	1.328851E-04
4.059910E+03	8.129467E-03	1.310941E-04
4.061907E+03	8.015702E-03	1.291885E-04
4.063904E+03	7.892229E-03	1.271286E-04
4.065901E+03	7.763470E-03	1.249860E-04
4.067898E+03	7.633868E-03	1.228322E-04
4.069895E+03	7.497250E-03	1.205680E-04
4.071892E+03	7.359533E-03	1.182886E-04
4.073889E+03	7.216520E-03	1.159267E-04
4.075886E+03	7.071412E-03	1.135339E-04
4.077883E+03	6.928422E-03	1.111776E-04
4.079880E+03	6.784574E-03	1.088102E-04
4.081877E+03	6.639124E-03	1.064198E-04
4.083874E+03	6.501245E-03	1.041533E-04
4.085871E+03	6.364491E-03	1.019073E-04
4.087868E+03	6.234825E-03	9.977718E-05
4.089865E+03	6.112245E-03	9.776276E-05
4.091862E+03	5.991557E-03	9.578081E-05
4.093859E+03	5.878469E-03	9.392247E-05
4.095856E+03	5.770503E-03	9.214796E-05
4.097853E+03	5.673137E-03	9.054458E-05
4.099850E+03	5.577927E-03	8.897736E-05
4.101847E+03	5.485877E-03	8.746223E-05
4.103844E+03	5.404942E-03	8.612589E-05
4.105841E+03	5.329915E-03	8.488509E-05
4.107838E+03	5.261302E-03	8.374777E-05
4.109835E+03	5.194626E-03	8.264250E-05
4.111832E+03	5.131383E-03	8.159305E-05
4.113829E+03	5.078552E-03	8.071022E-05
4.115826E+03	5.033163E-03	7.994655E-05
4.117823E+03	4.989976E-03	7.921872E-05
4.119820E+03	4.944015E-03	7.844767E-05
4.121817E+03	4.899262E-03	7.769663E-05
4.123814E+03	4.854224E-03	7.694189E-05
4.125811E+03	4.808647E-03	7.617948E-05
4.127808E+03	4.765287E-03	7.545298E-05
4.129805E+03	4.722891E-03	7.474255E-05
4.131802E+03	4.679458E-03	7.401649E-05
4.133799E+03	4.636993E-03	7.330655E-05
4.135796E+03	4.595744E-03	7.261659E-05
4.137793E+03	4.558214E-03	7.198612E-05
4.139790E+03	4.518905E-03	7.132826E-05
4.141787E+03	4.484069E-03	7.074170E-05
4.143784E+03	4.446701E-03	7.011585E-05
4.145781E+03	4.411559E-03	6.952577E-05
4.147778E+03	4.375635E-03	6.892403E-05
4.149775E+03	4.339934E-03	6.832644E-05
4.151772E+03	4.303449E-03	6.771719E-05
4.153769E+03	4.264676E-03	6.707260E-05
4.155766E+03	4.228132E-03	6.646375E-05
4.157763E+03	4.190552E-03	6.583930E-05
4.159760E+03	4.157468E-03	6.528611E-05
4.161757E+03	4.125362E-03	6.474889E-05
4.163754E+03	4.090714E-03	6.417237E-05
4.165751E+03	4.054024E-03	6.356446E-05
4.167748E+03	4.021333E-03	6.301986E-05
4.169745E+03	3.990631E-03	6.250701E-05
4.171742E+03	3.961667E-03	6.202193E-05
4.173739E+03	3.931923E-03	6.152517E-05
4.175736E+03	3.905181E-03	6.107589E-05
4.177733E+03	3.882957E-03	6.069773E-05
4.179730E+03	3.858443E-03	6.028421E-05
4.181727E+03	3.836686E-03	5.991420E-05
4.183724E+03	3.821983E-03	5.965468E-05
4.185721E+03	3.802971E-03	5.932825E-05
4.187718E+03	3.787987E-03	5.906498E-05
4.189715E+03	3.776277E-03	5.885303E-05
4.191712E+03	3.761014E-03	5.858600E-05
4.193709E+03	3.750293E-03	5.838998E-05
4.195706E+03	3.743107E-03	5.824918E-05
4.197703E+03	3.732114E-03	5.804936E-05
4.199700E+03	3.725164E-03	5.791263E-05
4.201697E+03	3.721755E-03	5.783109E-05
4.203694E+03	3.720876E-03	5.778897E-05
4.205691E+03	3.717966E-03	5.771539E-05
4.207688E+03	3.717336E-03	5.767728E-05
4.209685E+03	3.719241E-03	5.767857E-05
4.211682E+03	3.720637E-03	5.767202E-05
4.213679E+03	3.725588E-03	5.772058E-05
4.215676E+03	3.735115E-03	5.783999E-05
4.217673E+03	3.750239E-03	5.804595E-05
4.219670E+03	3.764101E-03	5.823222E-05
4.221667E+03	3.781531E-03	5.847354E-05
4.223665E+03	3.799991E-03	5.873057E-05
4.225662E+03	3.827372E-03	5.912519E-05
4.227659E+03	3.855026E-03	5.952370E-05
4.229656E+03	3.884227E-03	5.994573E-05
4.231653E+03	3.916760E-03	6.041880E-05
4.233650E+03	3.948805E-03	6.088393E-05
4.235647E+03	3.985207E-03	6.141581E-05
4.237644E+03	4.020868E-03	6.193581E-05
4.239641E+03	4.059615E-03	6.250287E-05
4.241638E+03	4.102729E-03	6.313663E-05
4.243635E+03	4.147916E-03	6.380172E-05
4.245632E+03	4.193644E-03	6.447454E-05
4.247629E+03	4.239915E-03	6.515511E-05
4.249626E+03	4.290052E-03	6.589447E-05
4.251623E+03	4.340991E-03	6.664548E-05
4.253620E+03	4.386846E-03	6.731784E-05
4.255617E+03	4.434012E-03	6.800971E-05
4.257614E+03	4.478390E-03	6.865824E-05
4.259611E+03	4.527157E-03	6.937347E-05
4.261608E+03	4.574418E-03	7.006501E-05
4.263605E+03	4.617863E-03	7.069754E-05
4.265602E+03	4.660053E-03	7.131033E-05
4.267599E+03	4.699451E-03	7.187989E-05
4.269596E+03	4.732202E-03	7.234736E-05
4.271593E+03	4.767284E-03	7.285008E-05
4.273590E+03	4.800075E-03	7.331740E-05
4.275587E+03	4.828261E-03	7.371402E-05
4.277584E+03	4.853383E-03	7.406359E-05
4.279581E+03	4.879287E-03	7.442482E-05
4.281578E+03	4.901096E-03	7.472334E-05
4.283575E+03	4.922912E-03	7.502177E-05
4.285572E+03	4.945000E-03	7.532410E-05
