#wls	flux	fluxerr
1.597604E+03	4.058043E-05	1.410749E-06
1.637544E+03	4.002341E-05	1.381854E-06
1.677484E+03	3.947525E-05	1.353327E-06
1.717424E+03	3.895271E-05	1.325740E-06
1.757364E+03	3.844555E-05	1.298732E-06
1.797304E+03	3.796433E-05	1.272653E-06
1.837244E+03	3.751958E-05	1.247840E-06
1.877184E+03	3.710313E-05	1.223999E-06
1.917124E+03	3.672664E-05	1.201495E-06
1.957064E+03	3.639608E-05	1.180494E-06
1.997004E+03	3.612419E-05	1.161372E-06
2.036945E+03	3.590635E-05	1.143935E-06
2.076885E+03	3.576336E-05	1.128796E-06
2.116825E+03	3.569916E-05	1.116016E-06
2.156765E+03	3.572535E-05	1.105882E-06
2.196705E+03	3.585543E-05	1.098727E-06
2.236645E+03	3.611117E-05	1.095113E-06
2.276585E+03	3.651140E-05	1.095482E-06
2.316525E+03	3.706668E-05	1.100006E-06
2.356465E+03	3.782194E-05	1.109843E-06
2.396405E+03	3.879797E-05	1.125391E-06
2.436345E+03	4.003454E-05	1.147555E-06
2.476286E+03	4.158690E-05	1.177619E-06
2.516226E+03	4.351592E-05	1.216941E-06
2.556166E+03	4.589005E-05	1.266995E-06
2.596106E+03	4.881765E-05	1.330235E-06
2.636046E+03	5.240211E-05	1.408817E-06
2.675986E+03	5.679891E-05	1.506116E-06
2.715926E+03	6.219446E-05	1.626074E-06
2.755866E+03	6.882272E-05	1.773571E-06
2.795806E+03	7.697624E-05	1.954611E-06
2.835746E+03	8.700519E-05	2.176184E-06
2.875686E+03	9.939280E-05	2.448016E-06
2.915627E+03	1.146346E-04	2.779387E-06
2.955567E+03	1.333660E-04	3.182156E-06
2.995507E+03	1.563013E-04	3.669076E-06
3.005492E+03	1.627551E-04	3.804864E-06
3.015477E+03	1.695460E-04	3.947257E-06
3.025462E+03	1.766621E-04	4.095880E-06
3.035447E+03	1.841129E-04	4.250863E-06
3.045432E+03	1.919074E-04	4.412315E-06
3.055417E+03	2.000816E-04	4.580967E-06
3.065402E+03	2.085874E-04	4.755615E-06
3.075387E+03	2.174875E-04	4.937591E-06
3.085372E+03	2.267581E-04	5.126245E-06
3.095357E+03	2.364011E-04	5.321522E-06
3.105342E+03	2.464166E-04	5.523317E-06
3.115327E+03	2.568020E-04	5.731475E-06
3.125312E+03	2.675888E-04	5.946595E-06
3.135297E+03	2.786961E-04	6.166778E-06
3.145282E+03	2.901869E-04	6.393331E-06
3.155267E+03	3.020085E-04	6.624993E-06
3.165252E+03	3.141403E-04	6.861235E-06
3.175237E+03	3.265574E-04	7.101431E-06
3.185222E+03	3.392294E-04	7.344858E-06
3.195207E+03	3.521205E-04	7.590684E-06
3.205192E+03	3.652387E-04	7.839030E-06
3.215177E+03	3.784392E-04	8.086754E-06
3.225162E+03	3.917680E-04	8.334829E-06
3.235147E+03	4.051152E-04	8.580901E-06
3.245132E+03	4.184135E-04	8.823569E-06
3.255117E+03	4.315886E-04	9.061302E-06
3.265102E+03	4.446192E-04	9.293711E-06
3.275087E+03	4.573010E-04	9.516600E-06
3.285072E+03	4.696603E-04	9.730635E-06
3.295057E+03	4.815395E-04	9.932674E-06
3.305042E+03	4.928349E-04	1.012074E-05
3.315027E+03	5.034384E-04	1.029281E-05
3.325012E+03	5.132404E-04	1.044685E-05
3.334998E+03	5.221286E-04	1.058083E-05
3.344983E+03	5.300614E-04	1.069419E-05
3.354968E+03	5.367916E-04	1.078222E-05
3.364953E+03	5.423536E-04	1.084597E-05
3.374938E+03	5.465791E-04	1.088240E-05
3.384923E+03	5.493797E-04	1.089014E-05
3.394908E+03	5.506799E-04	1.086808E-05
3.404893E+03	5.504192E-04	1.081544E-05
3.414878E+03	5.485590E-04	1.073187E-05
3.424863E+03	5.451538E-04	1.061887E-05
3.434848E+03	5.401468E-04	1.047572E-05
3.444833E+03	5.335180E-04	1.030245E-05
3.454818E+03	5.254902E-04	1.010374E-05
3.464803E+03	5.161228E-04	9.881076E-06
3.474788E+03	5.055866E-04	9.638040E-06
3.484773E+03	4.941578E-04	9.380147E-06
3.494758E+03	4.819624E-04	9.109981E-06
3.504743E+03	4.694023E-04	8.835272E-06
3.514728E+03	4.566564E-04	8.559442E-06
3.524713E+03	4.441382E-04	8.290231E-06
3.534698E+03	4.320747E-04	8.031787E-06
3.544683E+03	4.207236E-04	7.788752E-06
3.554668E+03	4.103067E-04	7.565034E-06
3.564653E+03	4.010002E-04	7.363638E-06
3.574638E+03	3.929836E-04	7.187584E-06
3.584623E+03	3.862416E-04	7.036293E-06
3.594608E+03	3.808897E-04	6.911576E-06
3.604593E+03	3.767354E-04	6.809641E-06
3.614578E+03	3.736997E-04	6.728797E-06
3.624563E+03	3.715294E-04	6.664261E-06
3.634548E+03	3.699842E-04	6.611550E-06
3.644533E+03	3.687934E-04	6.565715E-06
3.654518E+03	3.676622E-04	6.521449E-06
3.664503E+03	3.663240E-04	6.474025E-06
3.674488E+03	3.643809E-04	6.416471E-06
3.684473E+03	3.616281E-04	6.345299E-06
3.694458E+03	3.577335E-04	6.254851E-06
3.704443E+03	3.526102E-04	6.143806E-06
3.714428E+03	3.461468E-04	6.010442E-06
3.724413E+03	3.384011E-04	5.855982E-06
3.734398E+03	3.295682E-04	5.683990E-06
3.744383E+03	3.199747E-04	5.500248E-06
3.754368E+03	3.100569E-04	5.312334E-06
3.764353E+03	3.003260E-04	5.129004E-06
3.774338E+03	2.913619E-04	4.960070E-06
3.784324E+03	2.836438E-04	4.813515E-06
3.794309E+03	2.777306E-04	4.698572E-06
3.804294E+03	2.741474E-04	4.623797E-06
3.814279E+03	2.733013E-04	4.595665E-06
3.824264E+03	2.757182E-04	4.622572E-06
3.834249E+03	2.818463E-04	4.711531E-06
3.844234E+03	2.922018E-04	4.870616E-06
3.854219E+03	3.073497E-04	5.108641E-06
3.864204E+03	3.278983E-04	5.435052E-06
3.874189E+03	3.544651E-04	5.859362E-06
3.884174E+03	3.876066E-04	6.390004E-06
3.894159E+03	4.277045E-04	7.032471E-06
3.904144E+03	4.748057E-04	7.786731E-06
3.914129E+03	5.284392E-04	8.644322E-06
3.924114E+03	5.874569E-04	9.585837E-06
3.934099E+03	6.499574E-04	1.057984E-05
3.944084E+03	7.134417E-04	1.158550E-05
3.954069E+03	7.747723E-04	1.255205E-05
3.964054E+03	8.310502E-04	1.343306E-05
3.974039E+03	8.798878E-04	1.419073E-05
3.984024E+03	9.194496E-04	1.479648E-05
3.994009E+03	9.492456E-04	1.524353E-05
4.003994E+03	9.692726E-04	1.553293E-05
4.013979E+03	9.805729E-04	1.568236E-05
4.023964E+03	9.841122E-04	1.570814E-05
4.033949E+03	9.813566E-04	1.563437E-05
4.043934E+03	9.732992E-04	1.547741E-05
4.053919E+03	9.612516E-04	1.525853E-05
4.063904E+03	9.460241E-04	1.499088E-05
4.073889E+03	9.287657E-04	1.469286E-05
4.083874E+03	9.101700E-04	1.437556E-05
4.093859E+03	8.912561E-04	1.405508E-05
4.103844E+03	8.725671E-04	1.373996E-05
4.113829E+03	8.548907E-04	1.344252E-05
4.123814E+03	8.385052E-04	1.316701E-05
4.133799E+03	8.239158E-04	1.292123E-05
4.143784E+03	8.111810E-04	1.270595E-05
4.153769E+03	8.006289E-04	1.252616E-05
4.163754E+03	7.922034E-04	1.238085E-05
4.173739E+03	7.861363E-04	1.227351E-05
4.183724E+03	7.822952E-04	1.220194E-05
4.193709E+03	7.807462E-04	1.216708E-05
4.203694E+03	7.814240E-04	1.216782E-05
4.213679E+03	7.842969E-04	1.220359E-05
4.223665E+03	7.890666E-04	1.226970E-05
4.233650E+03	7.956666E-04	1.236509E-05
4.243635E+03	8.039699E-04	1.248776E-05
4.253620E+03	8.138779E-04	1.263618E-05
4.263605E+03	8.253231E-04	1.280933E-05
4.273590E+03	8.382511E-04	1.300638E-05
4.283575E+03	8.525842E-04	1.322617E-05
4.293560E+03	8.680920E-04	1.346517E-05
4.303545E+03	8.846855E-04	1.372208E-05
4.313530E+03	9.018762E-04	1.398938E-05
4.323515E+03	9.190053E-04	1.425694E-05
4.333500E+03	9.355124E-04	1.451615E-05
4.343485E+03	9.503149E-04	1.475026E-05
4.353470E+03	9.624862E-04	1.494494E-05
4.363455E+03	9.709918E-04	1.508413E-05
4.373440E+03	9.749245E-04	1.515371E-05
4.383425E+03	9.736879E-04	1.514429E-05
4.393410E+03	9.679036E-04	1.506542E-05
4.403395E+03	9.592989E-04	1.494383E-05
4.413380E+03	9.497328E-04	1.480837E-05
4.423365E+03	9.408761E-04	1.468505E-05
4.433350E+03	9.344325E-04	1.460050E-05
4.443335E+03	9.314538E-04	1.457128E-05
4.453320E+03	9.329763E-04	1.461381E-05
4.463305E+03	9.397087E-04	1.473951E-05
4.473290E+03	9.521790E-04	1.495701E-05
4.483275E+03	9.707739E-04	1.527282E-05
4.493260E+03	9.957361E-04	1.569127E-05
4.503245E+03	1.027122E-03	1.621381E-05
4.513230E+03	1.064634E-03	1.683635E-05
4.523215E+03	1.107823E-03	1.755241E-05
4.533200E+03	1.155829E-03	1.834897E-05
4.543185E+03	1.206998E-03	1.920033E-05
4.553170E+03	1.259442E-03	2.007685E-05
4.563155E+03	1.311211E-03	2.094761E-05
4.573140E+03	1.359895E-03	2.177415E-05
4.583125E+03	1.403162E-03	2.251879E-05
4.593110E+03	1.439362E-03	2.315448E-05
4.603095E+03	1.466794E-03	2.365307E-05
4.613080E+03	1.484709E-03	2.400145E-05
4.623065E+03	1.492829E-03	2.419398E-05
4.633050E+03	1.491331E-03	2.423230E-05
4.643035E+03	1.481368E-03	2.413394E-05
4.653020E+03	1.464053E-03	2.391591E-05
4.663005E+03	1.441277E-03	2.360815E-05
4.672991E+03	1.414973E-03	2.324154E-05
4.682976E+03	1.387017E-03	2.284641E-05
4.692961E+03	1.359036E-03	2.244932E-05
4.702946E+03	1.332144E-03	2.206858E-05
4.712931E+03	1.307216E-03	2.171883E-05
4.722916E+03	1.284641E-03	2.140669E-05
4.732901E+03	1.264060E-03	2.112648E-05
4.742886E+03	1.245079E-03	2.087179E-05
4.752871E+03	1.227355E-03	2.063703E-05
4.762856E+03	1.210030E-03	2.040786E-05
4.772841E+03	1.192584E-03	2.017546E-05
4.782826E+03	1.174474E-03	1.993056E-05
4.792811E+03	1.155343E-03	1.966692E-05
4.802796E+03	1.135107E-03	1.938289E-05
4.812781E+03	1.113910E-03	1.908070E-05
4.822766E+03	1.092520E-03	1.877332E-05
4.832751E+03	1.071586E-03	1.847188E-05
4.842736E+03	1.052148E-03	1.819437E-05
4.852721E+03	1.035497E-03	1.796342E-05
4.862706E+03	1.022606E-03	1.779635E-05
4.872691E+03	1.014352E-03	1.770907E-05
4.882676E+03	1.011672E-03	1.771873E-05
4.892661E+03	1.015320E-03	1.783951E-05
4.902646E+03	1.025893E-03	1.808293E-05
4.912631E+03	1.044183E-03	1.846419E-05
4.922616E+03	1.070525E-03	1.899050E-05
4.932601E+03	1.105330E-03	1.967055E-05
4.942586E+03	1.148561E-03	2.050509E-05
4.952571E+03	1.199478E-03	2.148228E-05
4.962556E+03	1.256784E-03	2.258015E-05
4.972541E+03	1.317702E-03	2.374970E-05
4.982526E+03	1.378620E-03	2.492624E-05
4.992511E+03	1.434845E-03	2.602462E-05
5.002496E+03	1.481111E-03	2.694818E-05
5.012481E+03	1.512967E-03	2.761399E-05
5.022466E+03	1.526911E-03	2.795542E-05
5.032451E+03	1.522116E-03	2.795421E-05
5.042436E+03	1.500296E-03	2.763870E-05
5.052421E+03	1.465427E-03	2.707943E-05
5.062406E+03	1.423330E-03	2.638210E-05
5.072391E+03	1.379650E-03	2.565040E-05
5.082376E+03	1.339773E-03	2.498450E-05
5.092361E+03	1.307640E-03	2.445878E-05
5.102346E+03	1.286075E-03	2.412748E-05
5.112332E+03	1.276023E-03	2.401017E-05
5.122317E+03	1.277510E-03	2.410926E-05
5.132302E+03	1.289424E-03	2.440562E-05
5.142287E+03	1.309827E-03	2.486415E-05
5.152272E+03	1.336065E-03	2.543573E-05
5.162257E+03	1.365384E-03	2.606869E-05
5.172242E+03	1.394913E-03	2.670853E-05
5.182227E+03	1.422094E-03	2.730613E-05
5.192212E+03	1.444969E-03	2.782336E-05
5.202197E+03	1.462238E-03	2.823440E-05
5.212182E+03	1.473740E-03	2.853518E-05
5.222167E+03	1.479439E-03	2.872406E-05
5.232152E+03	1.479952E-03	2.881212E-05
5.242137E+03	1.476362E-03	2.881966E-05
5.252122E+03	1.469319E-03	2.875873E-05
5.262107E+03	1.459791E-03	2.864779E-05
5.272092E+03	1.448497E-03	2.850062E-05
5.282077E+03	1.435988E-03	2.832779E-05
5.292062E+03	1.422630E-03	2.813637E-05
5.302047E+03	1.408501E-03	2.792776E-05
5.312032E+03	1.393767E-03	2.770516E-05
5.322017E+03	1.378381E-03	2.746756E-05
5.332002E+03	1.362271E-03	2.721343E-05
5.341987E+03	1.345415E-03	2.694221E-05
5.351972E+03	1.327776E-03	2.665308E-05
5.361957E+03	1.309654E-03	2.635198E-05
5.371942E+03	1.291343E-03	2.604478E-05
5.381927E+03	1.273238E-03	2.573943E-05
5.391912E+03	1.255829E-03	2.544594E-05
5.401897E+03	1.239615E-03	2.517454E-05
5.411882E+03	1.225520E-03	2.494422E-05
5.421867E+03	1.214188E-03	2.476841E-05
5.431852E+03	1.206594E-03	2.466743E-05
5.441837E+03	1.203995E-03	2.466756E-05
5.451822E+03	1.207351E-03	2.478915E-05
5.461807E+03	1.217485E-03	2.504989E-05
5.471792E+03	1.235116E-03	2.546548E-05
5.481777E+03	1.260361E-03	2.603927E-05
5.491762E+03	1.292595E-03	2.675921E-05
5.501747E+03	1.330118E-03	2.759090E-05
5.511732E+03	1.370510E-03	2.848457E-05
5.521717E+03	1.409920E-03	2.936033E-05
5.531702E+03	1.444108E-03	3.012954E-05
5.541687E+03	1.468557E-03	3.069705E-05
5.551672E+03	1.479331E-03	3.097931E-05
5.561658E+03	1.473695E-03	3.091726E-05
5.571643E+03	1.451039E-03	3.049625E-05
5.581628E+03	1.412090E-03	2.972967E-05
5.591613E+03	1.359374E-03	2.866909E-05
5.601598E+03	1.296035E-03	2.737949E-05
5.611583E+03	1.225099E-03	2.592389E-05
5.621568E+03	1.149397E-03	2.436157E-05
5.631553E+03	1.070734E-03	2.273055E-05
5.641538E+03	9.908086E-04	2.106673E-05
5.651523E+03	9.107527E-04	1.939426E-05
5.661508E+03	8.320334E-04	1.774454E-05
5.671493E+03	7.562211E-04	1.615141E-05
5.681478E+03	6.852702E-04	1.465706E-05
5.691463E+03	6.208428E-04	1.329769E-05
5.701448E+03	5.645323E-04	1.210817E-05
5.711433E+03	5.173042E-04	1.111007E-05
5.721418E+03	4.798314E-04	1.031873E-05
5.731403E+03	4.523921E-04	9.741037E-06
5.741388E+03	4.350401E-04	9.379023E-06
5.751373E+03	4.279149E-04	9.236544E-06
5.761358E+03	4.311274E-04	9.316807E-06
5.771343E+03	4.451370E-04	9.630525E-06
5.781328E+03	4.705134E-04	1.019081E-05
5.791313E+03	5.081665E-04	1.101814E-05
5.801298E+03	5.591007E-04	1.213510E-05
5.811283E+03	6.241941E-04	1.356155E-05
5.821268E+03	7.040716E-04	1.531186E-05
5.831253E+03	7.983818E-04	1.737915E-05
5.841238E+03	9.054222E-04	1.972699E-05
5.851223E+03	1.021877E-03	2.228361E-05
5.861208E+03	1.142441E-03	2.493348E-05
5.871193E+03	1.260102E-03	2.752338E-05
5.881178E+03	1.366891E-03	2.987873E-05
5.891163E+03	1.455069E-03	3.182944E-05
5.901148E+03	1.518318E-03	3.323610E-05
5.911133E+03	1.553326E-03	3.402488E-05
5.921118E+03	1.559456E-03	3.418053E-05
5.931103E+03	1.539407E-03	3.376102E-05
5.941088E+03	1.497912E-03	3.286924E-05
5.951073E+03	1.440789E-03	3.163221E-05
5.961058E+03	1.373909E-03	3.017850E-05
5.971043E+03	1.302434E-03	2.862138E-05
5.981028E+03	1.230447E-03	2.705063E-05
5.991013E+03	1.160850E-03	2.553022E-05
6.000999E+03	1.095934E-03	2.411079E-05
6.010984E+03	1.036937E-03	2.281985E-05
6.020969E+03	9.849769E-04	2.168223E-05
6.030954E+03	9.404946E-04	2.070790E-05
6.040939E+03	9.039290E-04	1.990675E-05
6.050924E+03	8.754149E-04	1.928192E-05
6.060909E+03	8.548706E-04	1.883179E-05
6.070894E+03	8.419465E-04	1.854874E-05
6.080879E+03	8.363412E-04	1.842623E-05
6.090864E+03	8.374432E-04	1.845081E-05
6.100849E+03	8.445945E-04	1.860800E-05
6.110834E+03	8.573686E-04	1.888835E-05
6.120819E+03	8.751761E-04	1.927885E-05
6.130804E+03	8.978380E-04	1.977547E-05
6.140789E+03	9.253911E-04	2.037892E-05
6.150774E+03	9.582242E-04	2.109764E-05
6.160759E+03	9.971035E-04	2.194833E-05
6.170744E+03	1.043126E-03	2.295496E-05
6.180729E+03	1.097597E-03	2.414596E-05
6.190714E+03	1.161846E-03	2.555030E-05
6.200699E+03	1.236885E-03	2.718979E-05
6.210684E+03	1.323473E-03	2.908069E-05
6.220669E+03	1.421061E-03	3.121034E-05
6.230654E+03	1.528310E-03	3.354880E-05
6.240639E+03	1.641982E-03	3.602443E-05
6.250624E+03	1.757713E-03	3.854102E-05
6.260609E+03	1.869931E-03	4.097611E-05
6.270594E+03	1.971949E-03	4.318309E-05
6.280579E+03	2.057663E-03	4.502861E-05
6.290564E+03	2.121826E-03	4.639844E-05
6.300549E+03	2.160923E-03	4.721668E-05
6.310534E+03	2.173618E-03	4.745529E-05
6.320519E+03	2.160795E-03	4.713500E-05
6.330504E+03	2.125080E-03	4.631444E-05
6.340489E+03	2.071009E-03	4.509385E-05
6.350474E+03	2.003383E-03	4.357890E-05
6.360459E+03	1.927245E-03	4.188019E-05
6.370444E+03	1.847853E-03	4.011267E-05
6.380429E+03	1.769197E-03	3.836322E-05
6.390414E+03	1.694989E-03	3.671243E-05
6.400399E+03	1.627384E-03	3.520677E-05
6.410384E+03	1.568003E-03	3.388093E-05
6.420369E+03	1.517439E-03	3.274721E-05
6.430354E+03	1.475649E-03	3.180409E-05
6.440339E+03	1.441627E-03	3.102927E-05
6.450325E+03	1.414297E-03	3.039908E-05
6.460310E+03	1.392165E-03	2.988091E-05
6.470295E+03	1.373581E-03	2.943896E-05
6.480280E+03	1.356878E-03	2.903729E-05
6.490265E+03	1.340518E-03	2.864287E-05
6.500250E+03	1.323118E-03	2.822625E-05
6.510235E+03	1.304023E-03	2.777359E-05
6.520220E+03	1.282715E-03	2.727413E-05
6.530205E+03	1.259219E-03	2.672866E-05
6.540190E+03	1.233813E-03	2.614339E-05
6.550175E+03	1.207416E-03	2.553804E-05
6.560160E+03	1.180824E-03	2.492956E-05
6.570145E+03	1.154857E-03	2.433534E-05
6.580130E+03	1.130498E-03	2.377607E-05
6.590115E+03	1.108124E-03	2.325947E-05
6.600100E+03	1.088099E-03	2.279304E-05
6.610085E+03	1.070469E-03	2.237744E-05
6.620070E+03	1.054706E-03	2.200143E-05
6.630055E+03	1.040298E-03	2.165412E-05
6.640040E+03	1.026531E-03	2.132054E-05
6.650025E+03	1.012328E-03	2.097830E-05
6.660010E+03	9.968587E-04	2.061038E-05
6.669995E+03	9.793110E-04	2.020021E-05
6.679980E+03	9.590672E-04	1.973544E-05
6.689965E+03	9.357887E-04	1.920956E-05
6.699950E+03	9.094561E-04	1.862270E-05
6.709935E+03	8.803570E-04	1.798126E-05
6.719920E+03	8.490313E-04	1.729674E-05
6.729905E+03	8.161949E-04	1.658413E-05
6.739890E+03	7.826442E-04	1.585990E-05
6.749875E+03	7.491687E-04	1.514018E-05
6.759860E+03	7.164785E-04	1.443939E-05
6.769845E+03	6.851561E-04	1.376916E-05
6.779830E+03	6.556294E-04	1.313793E-05
6.789815E+03	6.281181E-04	1.254985E-05
6.799800E+03	6.028653E-04	1.200947E-05
6.809785E+03	5.798487E-04	1.151602E-05
6.819770E+03	5.589957E-04	1.106771E-05
6.829755E+03	5.403742E-04	1.066554E-05
6.839740E+03	5.239154E-04	1.030780E-05
6.849725E+03	5.098166E-04	9.997973E-06
6.859710E+03	4.981938E-04	9.737931E-06
6.869695E+03	4.894244E-04	9.534571E-06
6.879680E+03	4.837936E-04	9.392894E-06
6.889666E+03	4.818109E-04	9.322152E-06
6.899651E+03	4.838595E-04	9.329006E-06
6.909636E+03	4.904735E-04	9.422894E-06
6.919621E+03	5.022108E-04	9.613545E-06
6.929606E+03	5.195169E-04	9.908358E-06
6.939591E+03	5.429563E-04	1.031685E-05
6.949576E+03	5.730134E-04	1.084683E-05
6.959561E+03	6.101190E-04	1.150492E-05
6.969546E+03	6.543557E-04	1.229106E-05
6.979531E+03	7.056324E-04	1.320187E-05
6.989516E+03	7.633506E-04	1.422451E-05
6.999501E+03	8.263227E-04	1.533536E-05
7.009486E+03	8.927109E-04	1.649912E-05
7.019471E+03	9.600730E-04	1.766991E-05
7.029456E+03	1.025530E-03	1.879459E-05
7.039441E+03	1.086046E-03	1.981806E-05
7.049426E+03	1.138695E-03	2.068821E-05
7.059411E+03	1.181430E-03	2.136976E-05
7.069396E+03	1.212828E-03	2.183942E-05
7.079381E+03	1.232646E-03	2.209552E-05
7.089366E+03	1.241641E-03	2.215434E-05
7.099351E+03	1.241826E-03	2.205435E-05
7.109336E+03	1.235580E-03	2.183976E-05
7.119321E+03	1.225651E-03	2.156060E-05
7.129306E+03	1.215212E-03	2.127333E-05
7.139291E+03	1.206909E-03	2.102426E-05
7.149276E+03	1.203584E-03	2.086210E-05
7.159261E+03	1.207390E-03	2.082272E-05
7.169246E+03	1.220514E-03	2.094176E-05
7.179231E+03	1.244883E-03	2.124966E-05
7.189216E+03	1.281857E-03	2.176652E-05
7.199201E+03	1.332831E-03	2.251243E-05
7.209186E+03	1.398719E-03	2.349894E-05
7.219171E+03	1.479915E-03	2.472847E-05
7.229156E+03	1.576049E-03	2.619058E-05
7.239141E+03	1.685672E-03	2.785709E-05
7.249126E+03	1.805907E-03	2.967683E-05
7.259111E+03	1.932146E-03	3.157141E-05
7.269096E+03	2.057920E-03	3.343386E-05
7.279081E+03	2.175121E-03	3.513322E-05
7.289066E+03	2.274689E-03	3.652630E-05
7.299051E+03	2.347544E-03	3.747305E-05
7.309036E+03	2.386811E-03	3.787193E-05
7.319021E+03	2.387997E-03	3.766172E-05
7.329006E+03	2.350473E-03	3.684357E-05
7.338992E+03	2.278157E-03	3.548978E-05
7.348977E+03	2.177324E-03	3.370770E-05
7.358962E+03	2.056695E-03	3.163998E-05
7.368947E+03	1.925281E-03	2.943028E-05
7.378932E+03	1.790600E-03	2.719613E-05
7.388917E+03	1.658933E-03	2.503342E-05
7.398902E+03	1.534361E-03	2.300259E-05
7.408887E+03	1.419064E-03	2.113413E-05
7.418872E+03	1.313679E-03	1.943484E-05
7.428857E+03	1.217772E-03	1.789547E-05
7.438842E+03	1.130284E-03	1.649785E-05
7.448827E+03	1.049916E-03	1.522069E-05
7.458812E+03	9.754155E-04	1.404390E-05
7.468797E+03	9.057100E-04	1.295045E-05
7.478782E+03	8.403219E-04	1.193214E-05
7.488767E+03	7.788057E-04	1.098146E-05
7.498752E+03	7.212965E-04	1.009914E-05
7.508737E+03	6.678485E-04	9.284760E-06
7.518722E+03	6.188521E-04	8.542512E-06
7.528707E+03	5.744558E-04	7.873110E-06
7.538692E+03	5.349229E-04	7.278771E-06
7.548677E+03	5.003907E-04	6.759909E-06
7.558662E+03	4.709404E-04	6.316133E-06
7.568647E+03	4.466130E-04	5.946494E-06
7.578632E+03	4.274254E-04	5.649714E-06
7.588617E+03	4.133876E-04	5.424429E-06
7.598602E+03	4.045181E-04	5.269396E-06
7.608587E+03	4.008307E-04	5.183319E-06
7.618572E+03	4.024885E-04	5.166836E-06
7.628557E+03	4.095626E-04	5.219367E-06
7.638542E+03	4.223140E-04	5.342739E-06
7.648527E+03	4.408852E-04	5.537223E-06
7.658512E+03	4.655205E-04	5.804345E-06
7.668497E+03	4.964100E-04	6.144909E-06
7.678482E+03	5.334824E-04	6.556487E-06
7.688467E+03	5.765657E-04	7.035495E-06
7.698452E+03	6.251144E-04	7.573946E-06
7.708437E+03	6.781378E-04	8.158736E-06
7.718422E+03	7.340331E-04	8.769844E-06
7.728407E+03	7.907644E-04	9.382690E-06
7.738392E+03	8.454700E-04	9.963667E-06
7.748377E+03	8.947325E-04	1.047360E-05
