#wls	flux	fluxerr
1.597604E+03	2.499905E-05	8.996326E-07
1.637544E+03	2.480142E-05	8.866716E-07
1.677484E+03	2.461461E-05	8.740655E-07
1.717424E+03	2.445003E-05	8.622107E-07
1.757364E+03	2.430630E-05	8.510432E-07
1.797304E+03	2.418672E-05	8.406634E-07
1.837244E+03	2.409922E-05	8.313268E-07
1.877184E+03	2.404365E-05	8.230039E-07
1.917124E+03	2.402467E-05	8.158272E-07
1.957064E+03	2.405171E-05	8.100837E-07
1.997004E+03	2.412651E-05	8.057928E-07
2.036945E+03	2.425585E-05	8.031364E-07
2.076885E+03	2.445174E-05	8.024590E-07
2.116825E+03	2.471894E-05	8.038535E-07
2.156765E+03	2.507214E-05	8.077255E-07
2.196705E+03	2.551924E-05	8.142423E-07
2.236645E+03	2.607442E-05	8.237581E-07
2.276585E+03	2.675892E-05	8.368272E-07
2.316525E+03	2.758811E-05	8.537910E-07
2.356465E+03	2.859034E-05	8.753637E-07
2.396405E+03	2.978902E-05	9.020688E-07
2.436345E+03	3.122291E-05	9.348526E-07
2.476286E+03	3.292733E-05	9.744994E-07
2.516226E+03	3.495044E-05	1.022114E-06
2.556166E+03	3.735626E-05	1.079186E-06
2.596106E+03	4.021522E-05	1.147283E-06
2.636046E+03	4.359702E-05	1.227845E-06
2.675986E+03	4.762178E-05	1.323597E-06
2.715926E+03	5.238305E-05	1.436347E-06
2.755866E+03	5.804135E-05	1.569560E-06
2.795806E+03	6.472343E-05	1.725542E-06
2.835746E+03	7.261975E-05	1.908065E-06
2.875686E+03	8.191592E-05	2.120465E-06
2.915627E+03	9.278511E-05	2.365459E-06
2.955567E+03	1.053960E-04	2.645365E-06
2.995507E+03	1.198960E-04	2.961706E-06
3.005492E+03	1.238374E-04	3.046737E-06
3.015477E+03	1.278798E-04	3.133444E-06
3.025462E+03	1.320420E-04	3.222254E-06
3.035447E+03	1.363450E-04	3.313642E-06
3.045432E+03	1.407433E-04	3.406461E-06
3.055417E+03	1.452793E-04	3.501710E-06
3.065402E+03	1.499034E-04	3.598153E-06
3.075387E+03	1.546344E-04	3.696215E-06
3.085372E+03	1.594933E-04	3.796362E-06
3.095357E+03	1.644501E-04	3.897846E-06
3.105342E+03	1.694708E-04	3.999836E-06
3.115327E+03	1.746018E-04	4.103402E-06
3.125312E+03	1.797789E-04	4.207012E-06
3.135297E+03	1.850497E-04	4.311760E-06
3.145282E+03	1.903752E-04	4.416718E-06
3.155267E+03	1.957121E-04	4.520868E-06
3.165252E+03	2.011098E-04	4.625343E-06
3.175237E+03	2.065233E-04	4.729101E-06
3.185222E+03	2.119037E-04	4.831020E-06
3.195207E+03	2.173016E-04	4.932265E-06
3.205192E+03	2.226665E-04	5.031690E-06
3.215177E+03	2.279799E-04	5.128894E-06
3.225162E+03	2.332224E-04	5.223458E-06
3.235147E+03	2.383354E-04	5.314103E-06
3.245132E+03	2.433728E-04	5.402068E-06
3.255117E+03	2.482753E-04	5.486069E-06
3.265102E+03	2.530200E-04	5.565648E-06
3.275087E+03	2.575838E-04	5.640348E-06
3.285072E+03	2.619428E-04	5.709712E-06
3.295057E+03	2.660733E-04	5.773289E-06
3.305042E+03	2.699518E-04	5.830642E-06
3.315027E+03	2.735547E-04	5.881350E-06
3.325012E+03	2.768596E-04	5.925018E-06
3.334998E+03	2.798451E-04	5.961282E-06
3.344983E+03	2.824910E-04	5.989817E-06
3.354968E+03	2.848242E-04	6.011297E-06
3.364953E+03	2.867396E-04	6.023608E-06
3.374938E+03	2.882688E-04	6.027544E-06
3.384923E+03	2.894025E-04	6.023027E-06
3.394908E+03	2.901352E-04	6.010066E-06
3.404893E+03	2.904657E-04	5.988755E-06
3.414878E+03	2.904430E-04	5.960222E-06
3.424863E+03	2.899840E-04	5.922880E-06
3.434848E+03	2.891477E-04	5.878055E-06
3.444833E+03	2.879523E-04	5.826227E-06
3.454818E+03	2.864652E-04	5.768862E-06
3.464803E+03	2.846235E-04	5.704786E-06
3.474788E+03	2.825028E-04	5.635610E-06
3.484773E+03	2.801798E-04	5.562935E-06
3.494758E+03	2.776015E-04	5.485774E-06
3.504743E+03	2.748896E-04	5.406597E-06
3.514728E+03	2.719927E-04	5.324431E-06
3.524713E+03	2.689865E-04	5.240806E-06
3.534698E+03	2.659416E-04	5.157120E-06
3.544683E+03	2.628009E-04	5.072285E-06
3.554668E+03	2.596680E-04	4.988314E-06
3.564653E+03	2.564802E-04	4.904005E-06
3.574638E+03	2.533322E-04	4.821177E-06
3.584623E+03	2.501595E-04	4.738594E-06
3.594608E+03	2.470550E-04	4.658017E-06
3.604593E+03	2.439603E-04	4.578327E-06
3.614578E+03	2.409721E-04	4.501327E-06
3.624563E+03	2.380380E-04	4.426015E-06
3.634548E+03	2.352551E-04	4.354171E-06
3.644533E+03	2.325752E-04	4.284858E-06
3.654518E+03	2.300960E-04	4.219837E-06
3.664503E+03	2.277752E-04	4.158284E-06
3.674488E+03	2.257158E-04	4.102022E-06
3.684473E+03	2.238859E-04	4.050408E-06
3.694458E+03	2.223983E-04	4.005412E-06
3.704443E+03	2.212693E-04	3.967239E-06
3.714428E+03	2.205235E-04	3.936243E-06
3.724413E+03	2.202944E-04	3.914700E-06
3.734398E+03	2.206227E-04	3.903208E-06
3.744383E+03	2.215569E-04	3.902492E-06
3.754368E+03	2.232550E-04	3.915183E-06
3.764353E+03	2.257479E-04	3.941647E-06
3.774338E+03	2.292104E-04	3.984750E-06
3.784324E+03	2.337235E-04	4.045680E-06
3.794309E+03	2.393733E-04	4.125695E-06
3.804294E+03	2.463603E-04	4.227997E-06
3.814279E+03	2.547838E-04	4.354003E-06
3.824264E+03	2.647419E-04	4.505089E-06
3.834249E+03	2.764504E-04	4.684602E-06
3.844234E+03	2.900030E-04	4.893778E-06
3.854219E+03	3.054732E-04	5.133492E-06
3.864204E+03	3.230449E-04	5.406457E-06
3.874189E+03	3.427298E-04	5.712476E-06
3.884174E+03	3.644667E-04	6.050145E-06
3.894159E+03	3.882617E-04	6.419205E-06
3.904144E+03	4.137717E-04	6.813650E-06
3.914129E+03	4.407117E-04	7.228533E-06
3.924114E+03	4.684106E-04	7.652676E-06
3.934099E+03	4.959513E-04	8.071082E-06
3.944084E+03	5.224311E-04	8.469217E-06
3.954069E+03	5.466171E-04	8.827443E-06
3.964054E+03	5.672966E-04	9.126745E-06
3.974039E+03	5.837174E-04	9.355768E-06
3.984024E+03	5.952388E-04	9.505098E-06
3.994009E+03	6.016572E-04	9.572409E-06
4.003994E+03	6.034679E-04	9.566471E-06
4.013979E+03	6.011115E-04	9.495053E-06
4.023964E+03	5.955016E-04	9.373244E-06
4.033949E+03	5.871697E-04	9.209921E-06
4.043934E+03	5.769173E-04	9.018042E-06
4.053919E+03	5.652150E-04	8.805229E-06
4.063904E+03	5.525055E-04	8.578562E-06
4.073889E+03	5.394720E-04	8.348740E-06
4.083874E+03	5.264757E-04	8.121355E-06
4.093859E+03	5.141804E-04	7.906578E-06
4.103844E+03	5.028728E-04	7.708670E-06
4.113829E+03	4.930226E-04	7.534643E-06
4.123814E+03	4.846703E-04	7.384887E-06
4.133799E+03	4.780438E-04	7.262639E-06
4.143784E+03	4.730434E-04	7.166147E-06
4.153769E+03	4.698474E-04	7.097886E-06
4.163754E+03	4.683668E-04	7.056282E-06
4.173739E+03	4.687130E-04	7.042804E-06
4.183724E+03	4.709675E-04	7.058465E-06
4.193709E+03	4.749470E-04	7.100322E-06
4.203694E+03	4.806566E-04	7.168282E-06
4.213679E+03	4.877356E-04	7.256820E-06
4.223665E+03	4.959722E-04	7.362691E-06
4.233650E+03	5.051567E-04	7.482711E-06
4.243635E+03	5.149029E-04	7.611128E-06
4.253620E+03	5.251024E-04	7.746341E-06
4.263605E+03	5.356221E-04	7.886405E-06
4.273590E+03	5.464341E-04	8.030937E-06
4.283575E+03	5.572690E-04	8.176021E-06
4.293560E+03	5.680533E-04	8.320636E-06
4.303545E+03	5.785875E-04	8.461927E-06
4.313530E+03	5.886450E-04	8.596663E-06
4.323515E+03	5.980983E-04	8.723072E-06
4.333500E+03	6.066097E-04	8.836328E-06
4.343485E+03	6.141454E-04	8.936040E-06
4.353470E+03	6.205895E-04	9.020623E-06
4.363455E+03	6.257262E-04	9.087034E-06
4.373440E+03	6.290615E-04	9.128193E-06
4.383425E+03	6.297048E-04	9.131281E-06
4.393410E+03	6.277165E-04	9.097267E-06
4.403395E+03	6.241048E-04	9.040824E-06
4.413380E+03	6.196338E-04	8.973045E-06
4.423365E+03	6.149419E-04	8.903172E-06
4.433350E+03	6.106203E-04	8.839754E-06
4.443335E+03	6.076843E-04	8.797477E-06
4.453320E+03	6.070884E-04	8.790156E-06
4.463305E+03	6.100048E-04	8.834792E-06
4.473290E+03	6.175981E-04	8.948316E-06
4.483275E+03	6.307857E-04	9.144125E-06
4.493260E+03	6.504321E-04	9.434932E-06
4.503245E+03	6.766268E-04	9.822290E-06
4.513230E+03	7.087559E-04	1.029760E-05
4.523215E+03	7.457073E-04	1.084504E-05
4.533200E+03	7.853017E-04	1.143322E-05
4.543185E+03	8.247350E-04	1.202157E-05
4.553170E+03	8.613434E-04	1.257133E-05
4.563155E+03	8.923780E-04	1.304230E-05
4.573140E+03	9.164751E-04	1.341428E-05
4.583125E+03	9.328667E-04	1.367561E-05
4.593110E+03	9.421149E-04	1.383406E-05
4.603095E+03	9.453823E-04	1.390620E-05
4.613080E+03	9.435999E-04	1.390527E-05
4.623065E+03	9.378976E-04	1.384750E-05
4.633050E+03	9.290508E-04	1.374396E-05
4.643035E+03	9.172041E-04	1.359647E-05
4.653020E+03	9.029058E-04	1.341281E-05
4.663005E+03	8.867588E-04	1.320166E-05
4.672991E+03	8.695560E-04	1.297457E-05
4.682976E+03	8.521729E-04	1.274446E-05
4.692961E+03	8.355571E-04	1.252541E-05
4.702946E+03	8.201638E-04	1.232429E-05
4.712931E+03	8.065949E-04	1.215020E-05
4.722916E+03	7.949798E-04	1.200526E-05
4.732901E+03	7.855282E-04	1.189279E-05
4.742886E+03	7.778542E-04	1.180714E-05
4.752871E+03	7.714219E-04	1.174032E-05
4.762856E+03	7.654493E-04	1.168049E-05
4.772841E+03	7.589708E-04	1.161291E-05
4.782826E+03	7.509119E-04	1.152098E-05
4.792811E+03	7.408213E-04	1.139753E-05
4.802796E+03	7.285876E-04	1.124054E-05
4.812781E+03	7.149235E-04	1.106071E-05
4.822766E+03	7.015370E-04	1.088432E-05
4.832751E+03	6.901054E-04	1.073746E-05
4.842736E+03	6.826288E-04	1.065155E-05
4.852721E+03	6.801748E-04	1.064382E-05
4.862706E+03	6.832072E-04	1.072219E-05
4.872691E+03	6.906630E-04	1.087065E-05
4.882676E+03	7.009440E-04	1.106457E-05
4.892661E+03	7.117288E-04	1.126757E-05
4.902646E+03	7.213379E-04	1.145304E-05
4.912631E+03	7.290415E-04	1.160919E-05
4.922616E+03	7.357438E-04	1.175018E-05
4.932601E+03	7.435715E-04	1.190990E-05
4.942586E+03	7.558368E-04	1.214171E-05
4.952571E+03	7.756589E-04	1.249648E-05
4.962556E+03	8.051705E-04	1.300970E-05
4.972541E+03	8.447761E-04	1.368927E-05
4.982526E+03	8.924297E-04	1.450335E-05
4.992511E+03	9.431500E-04	1.537187E-05
5.002496E+03	9.893796E-04	1.617170E-05
5.012481E+03	1.022450E-03	1.676008E-05
5.022466E+03	1.035632E-03	1.702452E-05
5.032451E+03	1.025742E-03	1.690973E-05
5.042436E+03	9.949729E-04	1.644871E-05
5.052421E+03	9.499405E-04	1.574824E-05
5.062406E+03	8.998321E-04	1.495905E-05
5.072391E+03	8.528727E-04	1.421758E-05
5.082376E+03	8.157693E-04	1.363638E-05
5.092361E+03	7.924871E-04	1.328327E-05
5.102346E+03	7.848888E-04	1.319146E-05
5.112332E+03	7.933328E-04	1.336910E-05
5.122317E+03	8.167737E-04	1.380068E-05
5.132302E+03	8.525232E-04	1.444264E-05
5.142287E+03	8.969043E-04	1.523412E-05
5.152272E+03	9.452241E-04	1.609629E-05
5.162257E+03	9.921351E-04	1.693831E-05
5.172242E+03	1.033427E-03	1.768789E-05
5.182227E+03	1.066427E-03	1.829837E-05
5.192212E+03	1.090553E-03	1.875862E-05
5.202197E+03	1.107105E-03	1.908989E-05
5.212182E+03	1.118379E-03	1.933089E-05
5.222167E+03	1.126526E-03	1.951818E-05
5.232152E+03	1.132769E-03	1.967260E-05
5.242137E+03	1.137307E-03	1.979735E-05
5.252122E+03	1.139684E-03	1.988428E-05
5.262107E+03	1.139238E-03	1.992151E-05
5.272092E+03	1.135257E-03	1.989623E-05
5.282077E+03	1.127748E-03	1.980812E-05
5.292062E+03	1.116521E-03	1.965348E-05
5.302047E+03	1.101562E-03	1.943159E-05
5.312032E+03	1.083350E-03	1.915053E-05
5.322017E+03	1.061952E-03	1.881117E-05
5.332002E+03	1.037631E-03	1.841781E-05
5.341987E+03	1.011420E-03	1.798855E-05
5.351972E+03	9.841499E-04	1.753804E-05
5.361957E+03	9.571896E-04	1.709064E-05
5.371942E+03	9.316941E-04	1.666708E-05
5.381927E+03	9.080380E-04	1.627426E-05
5.391912E+03	8.865696E-04	1.591866E-05
5.401897E+03	8.673428E-04	1.560148E-05
5.411882E+03	8.499697E-04	1.531598E-05
5.421867E+03	8.345561E-04	1.506428E-05
5.431852E+03	8.214353E-04	1.485261E-05
5.441837E+03	8.113931E-04	1.469543E-05
5.451822E+03	8.056298E-04	1.461480E-05
5.461807E+03	8.056161E-04	1.463784E-05
5.471792E+03	8.128777E-04	1.479280E-05
5.481777E+03	8.286771E-04	1.510329E-05
5.491762E+03	8.536048E-04	1.558078E-05
5.501747E+03	8.871299E-04	1.621625E-05
5.511732E+03	9.271852E-04	1.697248E-05
5.521717E+03	9.697049E-04	1.777537E-05
5.531702E+03	1.009166E-03	1.852366E-05
5.541687E+03	1.038609E-03	1.908914E-05
5.551672E+03	1.051615E-03	1.935288E-05
5.561658E+03	1.044630E-03	1.924825E-05
5.571643E+03	1.017446E-03	1.877001E-05
5.581628E+03	9.737492E-04	1.798495E-05
5.591613E+03	9.202024E-04	1.701529E-05
5.601598E+03	8.632833E-04	1.598041E-05
5.611583E+03	8.082735E-04	1.497809E-05
5.621568E+03	7.574012E-04	1.404988E-05
5.631553E+03	7.108171E-04	1.319891E-05
5.641538E+03	6.669473E-04	1.239624E-05
5.651523E+03	6.232324E-04	1.159449E-05
5.661508E+03	5.778312E-04	1.075947E-05
5.671493E+03	5.301911E-04	9.880882E-06
5.681478E+03	4.814496E-04	8.979922E-06
5.691463E+03	4.336377E-04	8.094545E-06
5.701448E+03	3.892582E-04	7.271634E-06
5.711433E+03	3.503698E-04	6.549906E-06
5.721418E+03	3.183808E-04	5.956001E-06
5.731403E+03	2.940725E-04	5.504871E-06
5.741388E+03	2.777946E-04	5.203396E-06
5.751373E+03	2.697025E-04	5.054800E-06
5.761358E+03	2.699586E-04	5.062414E-06
5.771343E+03	2.788824E-04	5.232495E-06
5.781328E+03	2.970540E-04	5.576172E-06
5.791313E+03	3.253003E-04	6.109198E-06
5.801298E+03	3.647893E-04	6.853724E-06
5.811283E+03	4.165802E-04	7.829861E-06
5.821268E+03	4.814220E-04	9.051870E-06
5.831253E+03	5.591034E-04	1.051593E-05
5.841238E+03	6.480946E-04	1.219337E-05
5.851223E+03	7.445447E-04	1.401174E-05
5.861208E+03	8.421878E-04	1.585305E-05
5.871193E+03	9.331348E-04	1.756861E-05
5.881178E+03	1.008376E-03	1.898853E-05
5.891163E+03	1.060602E-03	1.997489E-05
5.901148E+03	1.085024E-03	2.043718E-05
5.911133E+03	1.081560E-03	2.037367E-05
5.921118E+03	1.053600E-03	1.984810E-05
5.931103E+03	1.007723E-03	1.898436E-05
5.941088E+03	9.513945E-04	1.792316E-05
5.951073E+03	8.909482E-04	1.678391E-05
5.961058E+03	8.313234E-04	1.565977E-05
5.971043E+03	7.752982E-04	1.460315E-05
5.981028E+03	7.235605E-04	1.362710E-05
5.991013E+03	6.761641E-04	1.273267E-05
6.000999E+03	6.329142E-04	1.191624E-05
6.010984E+03	5.939269E-04	1.118004E-05
6.020969E+03	5.596809E-04	1.053308E-05
6.030954E+03	5.309311E-04	9.989559E-06
6.040939E+03	5.082405E-04	9.560042E-06
6.050924E+03	4.922500E-04	9.256523E-06
6.060909E+03	4.832679E-04	9.084709E-06
6.070894E+03	4.812751E-04	9.044133E-06
6.080879E+03	4.858819E-04	9.127347E-06
6.090864E+03	4.962117E-04	9.317749E-06
6.100849E+03	5.111524E-04	9.594329E-06
6.110834E+03	5.290972E-04	9.926822E-06
6.120819E+03	5.485095E-04	1.028632E-05
6.130804E+03	5.682630E-04	1.065165E-05
6.140789E+03	5.880694E-04	1.101739E-05
6.150774E+03	6.087275E-04	1.139848E-05
6.160759E+03	6.325242E-04	1.183767E-05
6.170744E+03	6.624746E-04	1.239124E-05
6.180729E+03	7.021573E-04	1.312588E-05
6.190714E+03	7.551108E-04	1.410733E-05
6.200699E+03	8.249298E-04	1.540224E-05
6.210684E+03	9.143424E-04	1.706085E-05
6.220669E+03	1.024912E-03	1.911154E-05
6.230654E+03	1.156733E-03	2.155525E-05
6.240639E+03	1.306633E-03	2.433196E-05
6.250624E+03	1.468619E-03	2.732938E-05
6.260609E+03	1.632435E-03	3.035618E-05
6.270594E+03	1.785955E-03	3.318687E-05
6.280579E+03	1.915468E-03	3.556718E-05
6.290564E+03	2.009921E-03	3.729294E-05
6.300549E+03	2.061142E-03	3.821408E-05
6.310534E+03	2.066945E-03	3.829192E-05
6.320519E+03	2.030359E-03	3.758452E-05
6.330504E+03	1.957684E-03	3.621031E-05
6.340489E+03	1.858736E-03	3.435235E-05
6.350474E+03	1.743090E-03	3.218873E-05
6.360459E+03	1.620570E-03	2.990153E-05
6.370444E+03	1.499296E-03	2.764083E-05
6.380429E+03	1.385633E-03	2.552391E-05
6.390414E+03	1.283332E-03	2.361947E-05
6.400399E+03	1.194871E-03	2.197264E-05
6.410384E+03	1.121044E-03	2.059735E-05
6.420369E+03	1.061533E-03	1.948713E-05
6.430354E+03	1.015234E-03	1.862107E-05
6.440339E+03	9.806377E-04	1.797090E-05
6.450325E+03	9.554686E-04	1.749442E-05
6.460310E+03	9.376083E-04	1.715244E-05
6.470295E+03	9.247158E-04	1.690182E-05
6.480280E+03	9.145609E-04	1.670163E-05
6.490265E+03	9.052338E-04	1.651688E-05
6.500250E+03	8.953583E-04	1.632247E-05
6.510235E+03	8.842605E-04	1.610615E-05
6.520220E+03	8.720191E-04	1.586942E-05
6.530205E+03	8.587798E-04	1.561496E-05
6.540190E+03	8.443502E-04	1.533932E-05
6.550175E+03	8.288226E-04	1.504421E-05
6.560160E+03	8.123346E-04	1.473219E-05
6.570145E+03	7.953427E-04	1.441156E-05
6.580130E+03	7.778959E-04	1.408321E-05
6.590115E+03	7.600960E-04	1.374902E-05
6.600100E+03	7.420452E-04	1.341083E-05
6.610085E+03	7.238684E-04	1.307090E-05
6.620070E+03	7.055677E-04	1.272929E-05
6.630055E+03	6.873219E-04	1.238920E-05
6.640040E+03	6.688755E-04	1.204605E-05
6.650025E+03	6.499579E-04	1.169495E-05
6.660010E+03	6.301881E-04	1.132909E-05
6.669995E+03	6.095247E-04	1.094776E-05
6.679980E+03	5.878581E-04	1.054904E-05
6.689965E+03	5.653452E-04	1.013580E-05
6.699950E+03	5.425933E-04	9.718952E-06
6.709935E+03	5.199844E-04	9.305350E-06
6.719920E+03	4.980963E-04	8.905321E-06
6.729905E+03	4.771007E-04	8.521903E-06
6.739890E+03	4.569914E-04	8.154945E-06
6.749875E+03	4.378145E-04	7.805228E-06
6.759860E+03	4.193034E-04	7.467961E-06
6.769845E+03	4.014159E-04	7.142365E-06
6.779830E+03	3.839199E-04	6.824290E-06
6.789815E+03	3.668719E-04	6.514724E-06
6.799800E+03	3.502212E-04	6.212748E-06
6.809785E+03	3.342289E-04	5.922977E-06
6.819770E+03	3.190742E-04	5.648555E-06
6.829755E+03	3.051512E-04	5.396411E-06
6.839740E+03	2.928836E-04	5.173970E-06
6.849725E+03	2.825813E-04	4.986614E-06
6.859710E+03	2.746957E-04	4.842188E-06
6.869695E+03	2.694949E-04	4.745284E-06
6.879680E+03	2.673257E-04	4.701845E-06
6.889666E+03	2.684981E-04	4.717139E-06
6.899651E+03	2.731767E-04	4.793854E-06
6.909636E+03	2.816003E-04	4.935961E-06
6.919621E+03	2.939524E-04	5.146439E-06
6.929606E+03	3.104527E-04	5.428878E-06
6.939591E+03	3.311890E-04	5.784540E-06
6.949576E+03	3.563296E-04	6.216082E-06
6.959561E+03	3.859036E-04	6.723707E-06
6.969546E+03	4.197529E-04	7.304362E-06
6.979531E+03	4.574268E-04	7.949910E-06
6.989516E+03	4.981430E-04	8.646492E-06
6.999501E+03	5.404653E-04	9.368979E-06
7.009486E+03	5.827391E-04	1.008859E-05
7.019471E+03	6.230223E-04	1.077172E-05
7.029456E+03	6.594221E-04	1.138579E-05
7.039441E+03	6.903784E-04	1.190416E-05
7.049426E+03	7.148996E-04	1.231010E-05
7.059411E+03	7.326908E-04	1.259898E-05
7.069396E+03	7.441410E-04	1.277797E-05
7.079381E+03	7.501912E-04	1.286363E-05
7.089366E+03	7.521588E-04	1.287894E-05
7.099351E+03	7.515620E-04	1.285013E-05
7.109336E+03	7.499924E-04	1.280459E-05
7.119321E+03	7.490457E-04	1.276959E-05
7.129306E+03	7.503158E-04	1.277222E-05
7.139291E+03	7.554372E-04	1.284010E-05
7.149276E+03	7.661198E-04	1.300195E-05
7.159261E+03	7.840514E-04	1.328595E-05
7.169246E+03	8.113095E-04	1.372668E-05
7.179231E+03	8.497244E-04	1.435431E-05
7.189216E+03	9.012852E-04	1.520151E-05
7.199201E+03	9.679861E-04	1.630080E-05
7.209186E+03	1.051536E-03	1.767968E-05
7.219171E+03	1.153626E-03	1.936517E-05
7.229156E+03	1.274619E-03	2.136182E-05
7.239141E+03	1.413400E-03	2.364944E-05
7.249126E+03	1.566214E-03	2.616380E-05
7.259111E+03	1.726741E-03	2.879835E-05
7.269096E+03	1.884556E-03	3.137885E-05
7.279081E+03	2.026184E-03	3.368151E-05
7.289066E+03	2.137726E-03	3.547699E-05
7.299051E+03	2.205922E-03	3.654813E-05
7.309036E+03	2.221795E-03	3.675000E-05
7.319021E+03	2.183752E-03	3.606067E-05
7.329006E+03	2.096017E-03	3.455425E-05
7.338992E+03	1.969651E-03	3.241692E-05
7.348977E+03	1.817625E-03	2.986498E-05
7.358962E+03	1.654201E-03	2.713453E-05
7.368947E+03	1.490690E-03	2.441172E-05
7.378932E+03	1.336161E-03	2.184481E-05
7.388917E+03	1.195515E-03	1.951304E-05
7.398902E+03	1.071486E-03	1.745979E-05
7.408887E+03	9.639435E-04	1.568159E-05
7.418872E+03	8.717229E-04	1.415814E-05
7.428857E+03	7.926761E-04	1.285338E-05
7.438842E+03	7.238518E-04	1.171843E-05
7.448827E+03	6.627015E-04	1.071129E-05
7.458812E+03	6.066927E-04	9.790454E-06
7.468797E+03	5.543484E-04	8.931691E-06
7.478782E+03	5.049599E-04	8.123295E-06
7.488767E+03	4.585944E-04	7.366086E-06
7.498752E+03	4.155537E-04	6.664643E-06
7.508737E+03	3.764703E-04	6.028813E-06
7.518722E+03	3.417883E-04	5.465378E-06
7.528707E+03	3.117391E-04	4.977686E-06
7.538692E+03	2.861635E-04	4.562848E-06
7.548677E+03	2.648732E-04	4.217531E-06
7.558662E+03	2.475769E-04	3.936793E-06
7.568647E+03	2.340028E-04	3.716042E-06
7.578632E+03	2.239358E-04	3.551614E-06
7.588617E+03	2.172305E-04	3.440982E-06
7.598602E+03	2.138176E-04	3.382841E-06
7.608587E+03	2.137051E-04	3.377135E-06
7.618572E+03	2.169759E-04	3.424993E-06
7.628557E+03	2.237739E-04	3.528521E-06
7.638542E+03	2.342745E-04	3.690325E-06
7.648527E+03	2.486348E-04	3.912734E-06
7.658512E+03	2.669349E-04	4.196875E-06
7.668497E+03	2.891251E-04	4.541854E-06
7.678482E+03	3.149834E-04	4.944100E-06
7.688467E+03	3.440775E-04	5.396780E-06
7.698452E+03	3.757349E-04	5.889337E-06
7.708437E+03	4.090305E-04	6.407309E-06
7.718422E+03	4.427951E-04	6.932464E-06
7.728407E+03	4.755754E-04	7.442177E-06
7.738392E+03	5.059433E-04	7.914256E-06
7.748377E+03	5.322040E-04	8.322370E-06
