#wls	flux	fluxerr
1.597604E+03	2.435940E-05	8.798857E-07
1.637544E+03	2.418412E-05	8.675544E-07
1.677484E+03	2.402207E-05	8.556505E-07
1.717424E+03	2.388454E-05	8.445650E-07
1.757364E+03	2.377031E-05	8.342365E-07
1.797304E+03	2.368276E-05	8.247649E-07
1.837244E+03	2.362567E-05	8.162596E-07
1.877184E+03	2.360742E-05	8.089823E-07
1.917124E+03	2.362859E-05	8.029190E-07
1.957064E+03	2.369453E-05	7.982148E-07
1.997004E+03	2.381132E-05	7.950313E-07
2.036945E+03	2.399007E-05	7.936881E-07
2.076885E+03	2.423456E-05	7.942484E-07
2.116825E+03	2.455393E-05	7.969429E-07
2.156765E+03	2.495872E-05	8.020336E-07
2.196705E+03	2.546563E-05	8.099618E-07
2.236645E+03	2.608473E-05	8.209349E-07
2.276585E+03	2.683282E-05	8.353534E-07
2.316525E+03	2.772968E-05	8.536819E-07
2.356465E+03	2.880362E-05	8.766130E-07
2.396405E+03	3.007765E-05	9.046348E-07
2.436345E+03	3.158455E-05	9.384870E-07
2.476286E+03	3.336892E-05	9.792013E-07
2.516226E+03	3.547173E-05	1.027631E-06
2.556166E+03	3.794757E-05	1.084948E-06
2.596106E+03	4.086070E-05	1.152506E-06
2.636046E+03	4.429390E-05	1.232063E-06
2.675986E+03	4.832810E-05	1.325184E-06
2.715926E+03	5.306341E-05	1.433811E-06
2.755866E+03	5.862208E-05	1.560302E-06
2.795806E+03	6.511915E-05	1.706612E-06
2.835746E+03	7.268440E-05	1.874874E-06
2.875686E+03	8.144665E-05	2.066965E-06
2.915627E+03	9.153786E-05	2.284613E-06
2.955567E+03	1.030333E-04	2.527926E-06
2.995507E+03	1.159689E-04	2.795923E-06
3.005492E+03	1.194148E-04	2.866248E-06
3.015477E+03	1.229670E-04	2.938359E-06
3.025462E+03	1.266039E-04	3.011710E-06
3.035447E+03	1.303012E-04	3.085695E-06
3.045432E+03	1.340988E-04	3.161237E-06
3.055417E+03	1.379719E-04	3.237723E-06
3.065402E+03	1.418926E-04	3.314478E-06
3.075387E+03	1.459032E-04	3.392464E-06
3.085372E+03	1.499751E-04	3.470996E-06
3.095357E+03	1.540770E-04	3.549330E-06
3.105342E+03	1.582529E-04	3.628469E-06
3.115327E+03	1.624708E-04	3.707657E-06
3.125312E+03	1.667231E-04	3.786710E-06
3.135297E+03	1.709730E-04	3.864788E-06
3.145282E+03	1.752682E-04	3.942961E-06
3.155267E+03	1.795714E-04	4.020385E-06
3.165252E+03	1.838729E-04	4.096841E-06
3.175237E+03	1.881625E-04	4.172106E-06
3.185222E+03	1.924295E-04	4.245950E-06
3.195207E+03	1.966303E-04	4.317424E-06
3.205192E+03	2.008182E-04	4.387717E-06
3.215177E+03	2.049494E-04	4.455885E-06
3.225162E+03	2.090123E-04	4.521698E-06
3.235147E+03	2.129949E-04	4.584922E-06
3.245132E+03	2.168850E-04	4.645325E-06
3.255117E+03	2.206704E-04	4.702682E-06
3.265102E+03	2.243388E-04	4.756769E-06
3.275087E+03	2.278779E-04	4.807367E-06
3.285072E+03	2.312752E-04	4.854262E-06
3.295057E+03	2.345184E-04	4.897244E-06
3.305042E+03	2.375947E-04	4.936104E-06
3.315027E+03	2.404918E-04	4.970643E-06
3.325012E+03	2.431968E-04	5.000661E-06
3.334998E+03	2.456971E-04	5.025964E-06
3.344983E+03	2.479801E-04	5.046366E-06
3.354968E+03	2.500330E-04	5.061686E-06
3.364953E+03	2.518438E-04	5.071756E-06
3.374938E+03	2.534008E-04	5.076422E-06
3.384923E+03	2.546929E-04	5.075554E-06
3.394908E+03	2.557107E-04	5.069050E-06
3.404893E+03	2.564463E-04	5.056846E-06
3.414878E+03	2.568941E-04	5.038924E-06
3.424863E+03	2.570932E-04	5.016143E-06
3.434848E+03	2.569602E-04	4.986967E-06
3.444833E+03	2.565415E-04	4.952397E-06
3.454818E+03	2.558456E-04	4.912688E-06
3.464803E+03	2.548855E-04	4.868180E-06
3.474788E+03	2.536784E-04	4.819281E-06
3.484773E+03	2.522864E-04	4.767245E-06
3.494758E+03	2.506518E-04	4.711044E-06
3.504743E+03	2.488425E-04	4.652026E-06
3.514728E+03	2.468866E-04	4.590765E-06
3.524713E+03	2.448114E-04	4.527814E-06
3.534698E+03	2.426818E-04	4.464403E-06
3.544683E+03	2.404406E-04	4.399500E-06
3.554668E+03	2.381438E-04	4.334162E-06
3.564653E+03	2.358015E-04	4.268586E-06
3.574638E+03	2.334166E-04	4.202840E-06
3.584623E+03	2.310236E-04	4.137553E-06
3.594608E+03	2.285465E-04	4.071373E-06
3.604593E+03	2.260345E-04	4.005196E-06
3.614578E+03	2.235417E-04	3.939984E-06
3.624563E+03	2.210117E-04	3.874743E-06
3.634548E+03	2.184945E-04	3.810350E-06
3.644533E+03	2.160032E-04	3.747021E-06
3.654518E+03	2.135871E-04	3.685593E-06
3.664503E+03	2.111964E-04	3.625186E-06
3.674488E+03	2.088913E-04	3.566812E-06
3.684473E+03	2.067050E-04	3.511011E-06
3.694458E+03	2.047127E-04	3.459012E-06
3.704443E+03	2.028999E-04	3.410519E-06
3.714428E+03	2.013612E-04	3.367058E-06
3.724413E+03	2.001990E-04	3.330258E-06
3.734398E+03	1.994285E-04	3.300271E-06
3.744383E+03	1.991697E-04	3.278967E-06
3.754368E+03	1.995495E-04	3.268294E-06
3.764353E+03	2.006070E-04	3.268724E-06
3.774338E+03	2.024832E-04	3.282377E-06
3.784324E+03	2.052943E-04	3.310922E-06
3.794309E+03	2.091961E-04	3.356631E-06
3.804294E+03	2.142518E-04	3.420252E-06
3.814279E+03	2.206290E-04	3.504171E-06
3.824264E+03	2.285035E-04	3.610859E-06
3.834249E+03	2.379467E-04	3.741091E-06
3.844234E+03	2.491355E-04	3.897275E-06
3.854219E+03	2.622472E-04	4.081778E-06
3.864204E+03	2.773237E-04	4.294821E-06
3.874189E+03	2.945036E-04	4.538106E-06
3.884174E+03	3.138989E-04	4.812896E-06
3.894159E+03	3.354185E-04	5.117330E-06
3.904144E+03	3.590028E-04	5.450056E-06
3.914129E+03	3.843536E-04	5.806151E-06
3.924114E+03	4.110335E-04	6.178691E-06
3.934099E+03	4.381417E-04	6.553958E-06
3.944084E+03	4.645664E-04	6.915363E-06
3.954069E+03	4.889099E-04	7.242405E-06
3.964054E+03	5.095500E-04	7.511668E-06
3.974039E+03	5.254708E-04	7.709090E-06
3.984024E+03	5.359454E-04	7.825096E-06
3.994009E+03	5.408780E-04	7.859469E-06
4.003994E+03	5.408171E-04	7.821311E-06
4.013979E+03	5.370470E-04	7.730145E-06
4.023964E+03	5.306583E-04	7.602352E-06
4.033949E+03	5.223361E-04	7.448224E-06
4.043934E+03	5.122953E-04	7.271185E-06
4.053919E+03	5.009863E-04	7.077925E-06
4.063904E+03	4.887818E-04	6.873913E-06
4.073889E+03	4.760634E-04	6.664646E-06
4.083874E+03	4.633823E-04	6.457877E-06
4.093859E+03	4.512558E-04	6.260758E-06
4.103844E+03	4.404361E-04	6.083550E-06
4.113829E+03	4.313555E-04	5.931938E-06
4.123814E+03	4.240179E-04	5.805643E-06
4.133799E+03	4.183175E-04	5.702897E-06
4.143784E+03	4.140122E-04	5.620118E-06
4.153769E+03	4.112099E-04	5.558519E-06
4.163754E+03	4.100248E-04	5.519373E-06
4.173739E+03	4.105693E-04	5.503925E-06
4.183724E+03	4.129324E-04	5.513078E-06
4.193709E+03	4.171788E-04	5.547415E-06
4.203694E+03	4.232386E-04	5.605725E-06
4.213679E+03	4.307396E-04	5.682839E-06
4.223665E+03	4.392205E-04	5.772504E-06
4.233650E+03	4.480821E-04	5.866761E-06
4.243635E+03	4.571602E-04	5.963449E-06
4.253620E+03	4.663431E-04	6.061124E-06
4.263605E+03	4.755593E-04	6.158888E-06
4.273590E+03	4.848002E-04	6.256668E-06
4.283575E+03	4.940776E-04	6.354653E-06
4.293560E+03	5.033083E-04	6.451819E-06
4.303545E+03	5.121882E-04	6.544332E-06
4.313530E+03	5.203103E-04	6.627096E-06
4.323515E+03	5.272409E-04	6.694740E-06
4.333500E+03	5.329603E-04	6.747195E-06
4.343485E+03	5.373415E-04	6.783030E-06
4.353470E+03	5.404392E-04	6.803112E-06
4.363455E+03	5.424421E-04	6.809974E-06
4.373440E+03	5.436921E-04	6.808029E-06
4.383425E+03	5.441567E-04	6.796962E-06
4.393410E+03	5.432413E-04	6.769457E-06
4.403395E+03	5.408897E-04	6.724947E-06
4.413380E+03	5.376507E-04	6.670361E-06
4.423365E+03	5.336356E-04	6.607153E-06
4.433350E+03	5.290169E-04	6.537504E-06
4.443335E+03	5.243099E-04	6.467808E-06
4.453320E+03	5.210677E-04	6.417185E-06
4.463305E+03	5.209383E-04	6.405799E-06
4.473290E+03	5.255478E-04	6.453425E-06
4.483275E+03	5.361850E-04	6.575622E-06
4.493260E+03	5.543315E-04	6.790290E-06
4.503245E+03	5.807450E-04	7.106436E-06
4.513230E+03	6.146828E-04	7.514760E-06
4.523215E+03	6.546286E-04	7.996602E-06
4.533200E+03	6.978635E-04	8.518735E-06
4.543185E+03	7.408996E-04	9.038673E-06
4.553170E+03	7.788958E-04	9.497526E-06
4.563155E+03	8.080856E-04	9.849594E-06
4.573140E+03	8.271458E-04	1.007896E-05
4.583125E+03	8.366137E-04	1.019231E-05
4.593110E+03	8.381349E-04	1.020976E-05
4.603095E+03	8.340622E-04	1.015999E-05
4.613080E+03	8.265729E-04	1.006948E-05
4.623065E+03	8.175513E-04	9.961123E-06
4.633050E+03	8.066681E-04	9.830842E-06
4.643035E+03	7.933899E-04	9.672062E-06
4.653020E+03	7.771674E-04	9.477989E-06
4.663005E+03	7.588740E-04	9.259170E-06
4.672991E+03	7.396971E-04	9.029992E-06
4.682976E+03	7.208668E-04	8.805393E-06
4.692961E+03	7.031068E-04	8.594157E-06
4.702946E+03	6.873183E-04	8.407270E-06
4.712931E+03	6.740474E-04	8.251414E-06
4.722916E+03	6.635625E-04	8.129904E-06
4.732901E+03	6.556466E-04	8.040121E-06
4.742886E+03	6.502021E-04	7.980920E-06
4.752871E+03	6.466878E-04	7.945710E-06
4.762856E+03	6.443551E-04	7.925330E-06
4.772841E+03	6.420709E-04	7.905855E-06
4.782826E+03	6.379639E-04	7.864202E-06
4.792811E+03	6.300013E-04	7.775184E-06
4.802796E+03	6.172677E-04	7.627295E-06
4.812781E+03	6.010728E-04	7.436493E-06
4.822766E+03	5.837063E-04	7.230946E-06
4.832751E+03	5.677653E-04	7.042781E-06
4.842736E+03	5.563544E-04	6.910598E-06
4.852721E+03	5.524922E-04	6.872149E-06
4.862706E+03	5.575223E-04	6.944547E-06
4.872691E+03	5.692983E-04	7.101484E-06
4.882676E+03	5.838999E-04	7.294356E-06
4.892661E+03	5.972424E-04	7.472224E-06
4.902646E+03	6.062827E-04	7.596890E-06
4.912631E+03	6.084756E-04	7.636173E-06
4.922616E+03	6.038427E-04	7.589939E-06
4.932601E+03	5.970984E-04	7.517127E-06
4.942586E+03	5.951050E-04	7.504131E-06
4.952571E+03	6.032873E-04	7.619752E-06
4.962556E+03	6.245917E-04	7.901898E-06
4.972541E+03	6.613460E-04	8.380908E-06
4.982526E+03	7.135070E-04	9.057243E-06
4.992511E+03	7.751338E-04	9.856395E-06
5.002496E+03	8.344239E-04	1.062869E-05
5.012481E+03	8.777143E-04	1.119969E-05
5.022466E+03	8.949507E-04	1.143983E-05
5.032451E+03	8.799575E-04	1.126828E-05
5.042436E+03	8.346851E-04	1.070784E-05
5.052421E+03	7.716989E-04	9.917863E-06
5.062406E+03	7.055280E-04	9.084135E-06
5.072391E+03	6.472405E-04	8.349147E-06
5.082376E+03	6.028028E-04	7.790529E-06
5.092361E+03	5.759543E-04	7.457673E-06
5.102346E+03	5.683172E-04	7.372895E-06
5.112332E+03	5.788869E-04	7.524567E-06
5.122317E+03	6.058612E-04	7.890607E-06
5.132302E+03	6.472573E-04	8.446419E-06
5.142287E+03	6.984746E-04	9.133013E-06
5.152272E+03	7.523305E-04	9.857106E-06
5.162257E+03	8.012254E-04	1.051920E-05
5.172242E+03	8.399703E-04	1.105069E-05
5.182227E+03	8.659199E-04	1.141592E-05
5.192212E+03	8.788409E-04	1.161080E-05
5.202197E+03	8.828273E-04	1.168847E-05
5.212182E+03	8.839307E-04	1.172848E-05
5.222167E+03	8.865759E-04	1.178944E-05
5.232152E+03	8.910673E-04	1.187555E-05
5.242137E+03	8.957207E-04	1.196450E-05
5.252122E+03	8.986785E-04	1.203146E-05
5.262107E+03	8.990203E-04	1.206394E-05
5.272092E+03	8.957891E-04	1.204884E-05
5.282077E+03	8.886145E-04	1.198084E-05
5.292062E+03	8.779137E-04	1.186520E-05
5.302047E+03	8.644242E-04	1.171157E-05
5.312032E+03	8.484083E-04	1.152323E-05
5.322017E+03	8.297155E-04	1.129785E-05
5.332002E+03	8.076235E-04	1.102528E-05
5.341987E+03	7.822755E-04	1.070711E-05
5.351972E+03	7.557506E-04	1.037147E-05
5.361957E+03	7.302240E-04	1.004814E-05
5.371942E+03	7.071686E-04	9.757512E-06
5.381927E+03	6.871439E-04	9.507569E-06
5.391912E+03	6.697248E-04	9.292736E-06
5.401897E+03	6.546389E-04	9.109498E-06
5.411882E+03	6.408628E-04	8.943832E-06
5.421867E+03	6.277058E-04	8.786212E-06
5.431852E+03	6.147029E-04	8.630164E-06
5.441837E+03	6.029426E-04	8.491018E-06
5.451822E+03	5.936608E-04	8.386375E-06
5.461807E+03	5.886122E-04	8.341416E-06
5.471792E+03	5.900778E-04	8.389125E-06
5.481777E+03	6.003653E-04	8.563299E-06
5.491762E+03	6.214298E-04	8.893155E-06
5.501747E+03	6.534597E-04	9.382962E-06
5.511732E+03	6.952817E-04	1.001745E-05
5.521717E+03	7.443019E-04	1.076064E-05
5.531702E+03	7.939565E-04	1.151845E-05
5.541687E+03	8.346806E-04	1.215180E-05
5.551672E+03	8.566775E-04	1.251626E-05
5.561658E+03	8.547233E-04	1.253236E-05
5.571643E+03	8.276597E-04	1.217925E-05
5.581628E+03	7.797878E-04	1.151643E-05
5.591613E+03	7.221385E-04	1.070395E-05
5.601598E+03	6.662395E-04	9.911637E-06
5.611583E+03	6.189727E-04	9.242421E-06
5.621568E+03	5.814035E-04	8.713613E-06
5.631553E+03	5.522899E-04	8.308071E-06
5.641538E+03	5.288002E-04	7.984405E-06
5.651523E+03	5.053577E-04	7.659000E-06
5.661508E+03	4.761625E-04	7.243595E-06
5.671493E+03	4.386813E-04	6.698486E-06
5.681478E+03	3.954630E-04	6.061272E-06
5.691463E+03	3.506379E-04	5.394467E-06
5.701448E+03	3.079708E-04	4.755884E-06
5.711433E+03	2.702796E-04	4.189543E-06
5.721418E+03	2.393002E-04	3.723293E-06
5.731403E+03	2.157302E-04	3.369178E-06
5.741388E+03	1.996326E-04	3.129472E-06
5.751373E+03	1.910880E-04	3.006744E-06
5.761358E+03	1.901146E-04	3.002605E-06
5.771343E+03	1.966257E-04	3.117010E-06
5.781328E+03	2.110028E-04	3.357349E-06
5.791313E+03	2.340877E-04	3.738451E-06
5.801298E+03	2.669920E-04	4.279668E-06
5.811283E+03	3.111536E-04	5.005859E-06
5.821268E+03	3.677921E-04	5.938695E-06
5.831253E+03	4.375416E-04	7.090635E-06
5.841238E+03	5.193027E-04	8.446083E-06
5.851223E+03	6.099752E-04	9.956512E-06
5.861208E+03	7.033226E-04	1.152128E-05
5.871193E+03	7.904412E-04	1.299444E-05
5.881178E+03	8.606590E-04	1.419877E-05
5.891163E+03	9.059156E-04	1.499784E-05
5.901148E+03	9.209880E-04	1.530049E-05
5.911133E+03	9.057975E-04	1.510017E-05
5.921118E+03	8.664220E-04	1.449332E-05
5.931103E+03	8.114774E-04	1.362043E-05
5.941088E+03	7.498642E-04	1.262877E-05
5.951073E+03	6.890805E-04	1.164393E-05
5.961058E+03	6.342490E-04	1.075296E-05
5.971043E+03	5.875400E-04	9.993803E-06
5.981028E+03	5.470908E-04	9.336083E-06
5.991013E+03	5.101589E-04	8.733917E-06
6.000999E+03	4.750278E-04	8.158437E-06
6.010984E+03	4.421061E-04	7.617013E-06
6.020969E+03	4.123344E-04	7.126292E-06
6.030954E+03	3.866723E-04	6.703449E-06
6.040939E+03	3.662198E-04	6.368298E-06
6.050924E+03	3.520353E-04	6.140152E-06
6.060909E+03	3.446067E-04	6.028549E-06
6.070894E+03	3.439579E-04	6.034969E-06
6.080879E+03	3.499207E-04	6.157502E-06
6.090864E+03	3.620143E-04	6.388663E-06
6.100849E+03	3.786730E-04	6.701657E-06
6.110834E+03	3.975624E-04	7.055709E-06
6.120819E+03	4.163072E-04	7.408846E-06
6.130804E+03	4.332481E-04	7.731404E-06
6.140789E+03	4.472638E-04	8.003022E-06
6.150774E+03	4.586280E-04	8.228162E-06
6.160759E+03	4.706345E-04	8.465673E-06
6.170744E+03	4.881794E-04	8.803915E-06
6.180729E+03	5.162972E-04	9.334648E-06
6.190714E+03	5.587827E-04	1.012805E-05
6.200699E+03	6.196868E-04	1.125960E-05
6.210684E+03	7.034330E-04	1.281222E-05
6.220669E+03	8.130554E-04	1.484415E-05
6.230654E+03	9.497758E-04	1.738092E-05
6.240639E+03	1.112632E-03	2.040809E-05
6.250624E+03	1.295279E-03	2.381200E-05
6.260609E+03	1.484883E-03	2.735831E-05
6.270594E+03	1.663318E-03	3.071280E-05
6.280579E+03	1.813255E-03	3.355308E-05
6.290564E+03	1.918608E-03	3.557722E-05
6.300549E+03	1.968336E-03	3.657459E-05
6.310534E+03	1.962163E-03	3.653358E-05
6.320519E+03	1.906533E-03	3.556813E-05
6.330504E+03	1.811756E-03	3.386556E-05
6.340489E+03	1.690476E-03	3.165861E-05
6.350474E+03	1.554322E-03	2.916287E-05
6.360459E+03	1.413918E-03	2.657680E-05
6.370444E+03	1.279005E-03	2.408363E-05
6.380429E+03	1.156007E-03	2.180540E-05
6.390414E+03	1.049181E-03	1.982396E-05
6.400399E+03	9.595166E-04	1.815979E-05
6.410384E+03	8.873159E-04	1.682045E-05
6.420369E+03	8.313967E-04	1.578524E-05
6.430354E+03	7.900681E-04	1.502357E-05
6.440339E+03	7.610448E-04	1.449330E-05
6.450325E+03	7.424406E-04	1.415956E-05
6.460310E+03	7.312823E-04	1.396646E-05
6.470295E+03	7.248747E-04	1.386309E-05
6.480280E+03	7.203714E-04	1.379533E-05
6.490265E+03	7.157656E-04	1.372485E-05
6.500250E+03	7.089071E-04	1.361037E-05
6.510235E+03	6.988448E-04	1.343345E-05
6.520220E+03	6.862654E-04	1.320712E-05
6.530205E+03	6.717892E-04	1.294317E-05
6.540190E+03	6.559930E-04	1.265265E-05
6.550175E+03	6.396546E-04	1.235051E-05
6.560160E+03	6.232978E-04	1.204689E-05
6.570145E+03	6.073787E-04	1.175064E-05
6.580130E+03	5.917872E-04	1.145970E-05
6.590115E+03	5.759595E-04	1.116317E-05
6.600100E+03	5.598119E-04	1.085947E-05
6.610085E+03	5.436031E-04	1.055363E-05
6.620070E+03	5.278112E-04	1.025499E-05
6.630055E+03	5.124745E-04	9.964326E-06
6.640040E+03	4.974574E-04	9.679071E-06
6.650025E+03	4.823827E-04	9.391921E-06
6.660010E+03	4.668392E-04	9.094897E-06
6.669995E+03	4.503678E-04	8.779071E-06
6.679980E+03	4.326606E-04	8.438441E-06
6.689965E+03	4.136615E-04	8.071916E-06
6.699950E+03	3.942464E-04	7.696601E-06
6.709935E+03	3.754059E-04	7.331877E-06
6.719920E+03	3.577838E-04	6.990378E-06
6.729905E+03	3.414706E-04	6.673941E-06
6.739890E+03	3.263262E-04	6.379892E-06
6.749875E+03	3.121633E-04	6.104623E-06
6.759860E+03	2.987455E-04	5.843558E-06
6.769845E+03	2.858395E-04	5.592172E-06
6.779830E+03	2.732586E-04	5.346850E-06
6.789815E+03	2.608794E-04	5.105204E-06
6.799800E+03	2.486306E-04	4.865873E-06
6.809785E+03	2.365656E-04	4.629930E-06
6.819770E+03	2.249422E-04	4.402447E-06
6.829755E+03	2.140732E-04	4.189570E-06
6.839740E+03	2.042761E-04	3.997541E-06
6.849725E+03	1.959195E-04	3.833582E-06
6.859710E+03	1.893589E-04	3.704666E-06
6.869695E+03	1.849022E-04	3.616809E-06
6.879680E+03	1.828233E-04	3.575357E-06
6.889666E+03	1.834111E-04	3.585935E-06
6.899651E+03	1.869113E-04	3.653304E-06
6.909636E+03	1.934034E-04	3.778960E-06
6.919621E+03	2.029058E-04	3.963192E-06
6.929606E+03	2.155850E-04	4.209171E-06
6.939591E+03	2.315704E-04	4.519322E-06
6.949576E+03	2.510484E-04	4.897170E-06
6.959561E+03	2.741708E-04	5.345539E-06
6.969546E+03	3.008998E-04	5.863541E-06
6.979531E+03	3.311266E-04	6.448897E-06
6.989516E+03	3.642594E-04	7.089916E-06
6.999501E+03	3.991058E-04	7.763241E-06
7.009486E+03	4.338450E-04	8.433352E-06
7.019471E+03	4.663290E-04	9.058468E-06
7.029456E+03	4.949327E-04	9.607080E-06
7.039441E+03	5.181496E-04	1.005008E-05
7.049426E+03	5.349689E-04	1.036810E-05
7.059411E+03	5.456139E-04	1.056571E-05
7.069396E+03	5.507609E-04	1.065629E-05
7.079381E+03	5.514326E-04	1.065988E-05
7.089366E+03	5.491492E-04	1.060607E-05
7.099351E+03	5.452766E-04	1.052138E-05
7.109336E+03	5.410809E-04	1.043032E-05
7.119321E+03	5.378347E-04	1.035743E-05
7.129306E+03	5.363829E-04	1.031892E-05
7.139291E+03	5.379927E-04	1.033904E-05
7.149276E+03	5.439961E-04	1.044318E-05
7.159261E+03	5.559589E-04	1.066111E-05
7.169246E+03	5.758177E-04	1.102951E-05
7.179231E+03	6.052658E-04	1.158027E-05
7.189216E+03	6.467137E-04	1.235878E-05
7.199201E+03	7.025674E-04	1.341013E-05
7.209186E+03	7.755781E-04	1.478571E-05
7.219171E+03	8.682957E-04	1.653282E-05
7.229156E+03	9.835979E-04	1.870469E-05
7.239141E+03	1.122288E-03	2.131486E-05
7.249126E+03	1.283609E-03	2.434713E-05
7.259111E+03	1.462669E-03	2.770704E-05
7.269096E+03	1.649408E-03	3.120282E-05
7.279081E+03	1.826532E-03	3.450703E-05
7.289066E+03	1.973749E-03	3.723746E-05
7.299051E+03	2.072403E-03	3.904487E-05
7.309036E+03	2.107118E-03	3.964370E-05
7.319021E+03	2.072487E-03	3.893744E-05
7.329006E+03	1.975351E-03	3.705997E-05
7.338992E+03	1.831746E-03	3.431678E-05
7.348977E+03	1.660709E-03	3.106785E-05
7.358962E+03	1.480807E-03	2.766235E-05
7.368947E+03	1.307706E-03	2.439329E-05
7.378932E+03	1.151122E-03	2.144120E-05
7.388917E+03	1.014689E-03	1.887233E-05
7.398902E+03	8.994859E-04	1.670514E-05
7.408887E+03	8.044221E-04	1.491771E-05
7.418872E+03	7.269050E-04	1.346039E-05
7.428857E+03	6.637263E-04	1.227244E-05
7.438842E+03	6.116413E-04	1.129280E-05
7.448827E+03	5.662843E-04	1.044007E-05
7.458812E+03	5.236587E-04	9.640129E-06
7.468797E+03	4.814570E-04	8.850349E-06
7.478782E+03	4.391819E-04	8.061557E-06
7.488767E+03	3.974382E-04	7.284832E-06
7.498752E+03	3.572305E-04	6.538503E-06
7.508737E+03	3.201097E-04	5.850780E-06
7.518722E+03	2.873473E-04	5.244610E-06
7.528707E+03	2.594665E-04	4.729171E-06
7.538692E+03	2.360942E-04	4.297286E-06
7.548677E+03	2.167517E-04	3.939894E-06
7.558662E+03	2.009953E-04	3.648633E-06
7.568647E+03	1.885187E-04	3.417672E-06
7.578632E+03	1.791071E-04	3.242882E-06
7.588617E+03	1.726113E-04	3.121338E-06
7.598602E+03	1.689496E-04	3.051368E-06
7.608587E+03	1.681312E-04	3.032942E-06
7.618572E+03	1.702556E-04	3.067676E-06
7.628557E+03	1.755004E-04	3.158588E-06
7.638542E+03	1.841512E-04	3.310638E-06
7.648527E+03	1.964974E-04	3.528846E-06
7.658512E+03	2.125981E-04	3.814093E-06
7.668497E+03	2.323328E-04	4.164054E-06
7.678482E+03	2.554503E-04	4.574098E-06
7.688467E+03	2.815239E-04	5.036482E-06
7.698452E+03	3.098152E-04	5.537947E-06
7.708437E+03	3.394820E-04	6.063432E-06
7.718422E+03	3.694770E-04	6.594284E-06
7.728407E+03	3.986606E-04	7.110263E-06
7.738392E+03	4.256926E-04	7.587613E-06
7.748377E+03	4.490778E-04	7.999870E-06
