#wls	flux	fluxerr
1.597604E+03	1.071703E-05	4.155090E-07
1.637544E+03	1.070384E-05	4.128210E-07
1.677484E+03	1.070211E-05	4.105386E-07
1.717424E+03	1.071321E-05	4.087056E-07
1.757364E+03	1.073861E-05	4.073708E-07
1.797304E+03	1.077998E-05	4.065866E-07
1.837244E+03	1.083916E-05	4.064109E-07
1.877184E+03	1.091818E-05	4.069072E-07
1.917124E+03	1.101934E-05	4.081460E-07
1.957064E+03	1.114520E-05	4.102050E-07
1.997004E+03	1.129864E-05	4.131711E-07
2.036945E+03	1.148291E-05	4.171409E-07
2.076885E+03	1.170169E-05	4.222229E-07
2.116825E+03	1.195916E-05	4.285392E-07
2.156765E+03	1.226005E-05	4.362270E-07
2.196705E+03	1.260978E-05	4.454413E-07
2.236645E+03	1.301451E-05	4.563578E-07
2.276585E+03	1.348130E-05	4.691750E-07
2.316525E+03	1.402075E-05	4.842055E-07
2.356465E+03	1.463715E-05	5.015337E-07
2.396405E+03	1.534350E-05	5.215330E-07
2.436345E+03	1.615186E-05	5.445306E-07
2.476286E+03	1.707909E-05	5.709979E-07
2.516226E+03	1.813488E-05	6.011494E-07
2.556166E+03	1.933990E-05	6.355466E-07
2.596106E+03	2.071790E-05	6.748256E-07
2.636046E+03	2.228413E-05	7.193200E-07
2.675986E+03	2.406705E-05	7.697644E-07
2.715926E+03	2.609886E-05	8.269770E-07
2.755866E+03	2.840061E-05	8.913863E-07
2.795806E+03	3.101453E-05	9.640512E-07
2.835746E+03	3.396437E-05	1.045410E-06
2.875686E+03	3.729784E-05	1.136603E-06
2.915627E+03	4.103934E-05	1.238005E-06
2.955567E+03	4.524054E-05	1.350779E-06
2.995507E+03	4.992395E-05	1.475165E-06
3.005492E+03	5.118257E-05	1.508389E-06
3.015477E+03	5.246569E-05	1.542138E-06
3.025462E+03	5.379248E-05	1.576966E-06
3.035447E+03	5.514449E-05	1.612324E-06
3.045432E+03	5.653169E-05	1.648498E-06
3.055417E+03	5.796509E-05	1.685801E-06
3.065402E+03	5.942480E-05	1.723643E-06
3.075387E+03	6.092154E-05	1.762330E-06
3.085372E+03	6.246709E-05	1.802194E-06
3.095357E+03	6.404001E-05	1.842606E-06
3.105342E+03	6.566355E-05	1.884228E-06
3.115327E+03	6.731516E-05	1.926403E-06
3.125312E+03	6.900695E-05	1.969471E-06
3.135297E+03	7.075220E-05	2.013801E-06
3.145282E+03	7.252657E-05	2.058691E-06
3.155267E+03	7.435628E-05	2.104876E-06
3.165252E+03	7.621574E-05	2.151622E-06
3.175237E+03	7.811850E-05	2.199305E-06
3.185222E+03	8.007939E-05	2.248331E-06
3.195207E+03	8.207058E-05	2.297910E-06
3.205192E+03	8.412149E-05	2.348856E-06
3.215177E+03	8.620263E-05	2.400336E-06
3.225162E+03	8.834448E-05	2.453191E-06
3.235147E+03	9.051566E-05	2.506538E-06
3.245132E+03	9.273096E-05	2.560781E-06
3.255117E+03	9.500639E-05	2.616352E-06
3.265102E+03	9.730672E-05	2.672272E-06
3.275087E+03	9.966395E-05	2.729412E-06
3.285072E+03	1.020395E-04	2.786708E-06
3.295057E+03	1.044462E-04	2.844506E-06
3.305042E+03	1.068968E-04	2.903150E-06
3.315027E+03	1.093455E-04	2.961390E-06
3.325012E+03	1.118206E-04	3.019991E-06
3.334998E+03	1.142692E-04	3.077528E-06
3.344983E+03	1.166944E-04	3.134091E-06
3.354968E+03	1.190973E-04	3.189716E-06
3.364953E+03	1.214113E-04	3.242633E-06
3.374938E+03	1.236504E-04	3.293238E-06
3.384923E+03	1.257372E-04	3.339493E-06
3.394908E+03	1.276779E-04	3.381601E-06
3.404893E+03	1.293846E-04	3.417276E-06
3.414878E+03	1.308339E-04	3.445951E-06
3.424863E+03	1.320008E-04	3.467031E-06
3.434848E+03	1.327890E-04	3.478060E-06
3.444833E+03	1.331977E-04	3.479101E-06
3.454818E+03	1.331348E-04	3.467838E-06
3.464803E+03	1.325852E-04	3.443983E-06
3.474788E+03	1.456959E-04	3.774106E-06
3.476785E+03	1.450400E-04	3.755042E-06
3.478782E+03	1.440226E-04	3.726646E-06
3.480779E+03	1.433244E-04	3.706537E-06
3.482776E+03	1.429875E-04	3.695787E-06
3.484773E+03	1.428705E-04	3.690731E-06
3.486770E+03	1.431256E-04	3.695284E-06
3.488767E+03	1.423747E-04	3.673876E-06
3.490764E+03	1.411678E-04	3.640728E-06
3.492761E+03	1.403327E-04	3.617201E-06
3.494758E+03	1.396652E-04	3.598017E-06
3.496755E+03	1.386672E-04	3.570346E-06
3.498752E+03	1.383559E-04	3.560374E-06
3.500749E+03	1.381967E-04	3.554325E-06
3.502746E+03	1.373661E-04	3.531025E-06
3.504743E+03	1.363203E-04	3.502221E-06
3.506740E+03	1.357306E-04	3.485161E-06
3.508737E+03	1.357967E-04	3.484948E-06
3.510734E+03	1.351859E-04	3.467374E-06
3.512731E+03	1.348690E-04	3.457352E-06
3.514728E+03	1.346989E-04	3.451103E-06
3.516725E+03	1.340616E-04	3.432898E-06
3.518722E+03	1.330986E-04	3.406377E-06
3.520719E+03	1.328023E-04	3.396938E-06
3.522716E+03	1.314976E-04	3.361729E-06
3.524713E+03	1.310961E-04	3.349637E-06
3.526710E+03	1.304108E-04	3.330310E-06
3.528707E+03	1.299513E-04	3.316767E-06
3.530704E+03	1.295179E-04	3.303906E-06
3.532701E+03	1.289479E-04	3.287575E-06
3.534698E+03	1.283777E-04	3.271258E-06
3.536695E+03	1.277864E-04	3.254420E-06
3.538692E+03	1.276840E-04	3.250045E-06
3.540689E+03	1.272240E-04	3.236578E-06
3.542686E+03	1.267586E-04	3.222988E-06
3.544683E+03	1.259091E-04	3.199654E-06
3.546680E+03	1.251015E-04	3.177408E-06
3.548677E+03	1.243358E-04	3.156250E-06
3.550674E+03	1.232226E-04	3.126299E-06
3.552671E+03	1.231724E-04	3.123334E-06
3.554668E+03	1.228168E-04	3.112634E-06
3.556665E+03	1.227350E-04	3.108880E-06
3.558662E+03	1.227427E-04	3.107397E-06
3.560659E+03	1.230191E-04	3.112714E-06
3.562656E+03	1.229268E-04	3.108704E-06
3.564653E+03	1.229611E-04	3.107894E-06
3.566650E+03	1.231956E-04	3.112145E-06
3.568647E+03	1.219862E-04	3.079938E-06
3.570644E+03	1.222313E-04	3.084468E-06
3.572641E+03	1.221075E-04	3.079688E-06
3.574638E+03	1.218255E-04	3.070927E-06
3.576635E+03	1.216490E-04	3.064832E-06
3.578632E+03	1.224533E-04	3.083444E-06
3.580629E+03	1.218127E-04	3.065671E-06
3.582626E+03	1.216256E-04	3.059326E-06
3.584623E+03	1.208635E-04	3.038529E-06
3.586620E+03	1.211882E-04	3.045065E-06
3.588617E+03	1.222308E-04	3.069624E-06
3.590614E+03	1.225454E-04	3.075882E-06
3.592611E+03	1.228864E-04	3.082799E-06
3.594608E+03	1.234494E-04	3.095275E-06
3.596605E+03	1.238173E-04	3.102846E-06
3.598602E+03	1.245180E-04	3.118748E-06
3.600599E+03	1.250130E-04	3.129484E-06
3.602596E+03	1.257935E-04	3.147351E-06
3.604593E+03	1.265796E-04	3.165340E-06
3.606590E+03	1.264199E-04	3.159672E-06
3.608587E+03	1.267730E-04	3.166819E-06
3.610584E+03	1.273641E-04	3.179903E-06
3.612581E+03	1.270512E-04	3.170416E-06
3.614578E+03	1.275845E-04	3.182042E-06
3.616575E+03	1.280175E-04	3.191157E-06
3.618572E+03	1.289903E-04	3.213712E-06
3.620569E+03	1.288364E-04	3.208188E-06
3.622566E+03	1.287407E-04	3.204119E-06
3.624563E+03	1.287032E-04	3.201503E-06
3.626560E+03	1.284382E-04	3.193232E-06
3.628557E+03	1.291473E-04	3.209179E-06
3.630554E+03	1.294384E-04	3.214725E-06
3.632551E+03	1.293906E-04	3.211856E-06
3.634548E+03	1.293375E-04	3.208860E-06
3.636545E+03	1.282779E-04	3.180906E-06
3.638542E+03	1.275094E-04	3.160198E-06
3.640539E+03	1.276098E-04	3.161037E-06
3.642536E+03	1.268622E-04	3.140880E-06
3.644533E+03	1.263317E-04	3.126119E-06
3.646530E+03	1.264905E-04	3.128419E-06
3.648527E+03	1.255568E-04	3.103714E-06
3.650524E+03	1.242145E-04	3.068938E-06
3.652521E+03	1.234234E-04	3.047812E-06
3.654518E+03	1.229983E-04	3.035740E-06
3.656515E+03	1.224192E-04	3.019883E-06
3.658512E+03	1.211127E-04	2.986109E-06
3.660509E+03	1.208145E-04	2.977218E-06
3.662506E+03	1.200490E-04	2.956827E-06
3.664503E+03	1.184760E-04	2.916581E-06
3.666500E+03	1.174656E-04	2.890218E-06
3.668497E+03	1.165665E-04	2.866619E-06
3.670494E+03	1.153323E-04	2.834810E-06
3.672491E+03	1.147620E-04	2.819345E-06
3.674488E+03	1.137345E-04	2.792669E-06
3.676485E+03	1.130628E-04	2.774753E-06
3.678482E+03	1.114658E-04	2.734161E-06
3.680479E+03	1.102618E-04	2.703245E-06
3.682476E+03	1.097116E-04	2.688382E-06
3.684473E+03	1.091825E-04	2.674052E-06
3.686470E+03	1.089139E-04	2.666116E-06
3.688467E+03	1.078897E-04	2.639700E-06
3.690464E+03	1.072484E-04	2.622674E-06
3.692461E+03	1.069156E-04	2.613208E-06
3.694458E+03	1.068649E-04	2.610643E-06
3.696455E+03	1.072721E-04	2.619265E-06
3.698452E+03	1.077168E-04	2.628792E-06
3.700449E+03	1.090034E-04	2.658845E-06
3.702446E+03	1.097257E-04	2.675111E-06
3.704443E+03	1.109598E-04	2.703834E-06
3.706440E+03	1.120345E-04	2.728647E-06
3.708437E+03	1.134401E-04	2.761490E-06
3.710434E+03	1.152034E-04	2.803005E-06
3.712431E+03	1.162528E-04	2.827119E-06
3.714428E+03	1.176600E-04	2.859904E-06
3.716425E+03	1.185449E-04	2.879970E-06
3.718422E+03	1.205452E-04	2.927102E-06
3.720419E+03	1.210842E-04	2.938720E-06
3.722416E+03	1.211003E-04	2.937645E-06
3.724413E+03	1.212073E-04	2.938773E-06
3.726410E+03	1.221578E-04	2.960345E-06
3.728407E+03	1.214747E-04	2.942327E-06
3.730404E+03	1.217047E-04	2.946433E-06
3.732401E+03	1.215662E-04	2.941621E-06
3.734398E+03	1.214383E-04	2.937071E-06
3.736395E+03	1.210112E-04	2.925293E-06
3.738392E+03	1.198945E-04	2.896866E-06
3.740389E+03	1.194724E-04	2.885242E-06
3.742386E+03	1.182267E-04	2.853752E-06
3.744383E+03	1.164137E-04	2.808608E-06
3.746380E+03	1.150709E-04	2.774846E-06
3.748377E+03	1.131016E-04	2.726020E-06
3.750374E+03	1.110782E-04	2.675937E-06
3.752371E+03	1.088721E-04	2.621508E-06
3.754368E+03	1.059319E-04	2.549464E-06
3.756365E+03	1.034832E-04	2.489316E-06
3.758362E+03	1.000324E-04	2.405131E-06
3.760359E+03	9.689089E-05	2.328465E-06
3.762356E+03	9.412323E-05	2.260853E-06
3.764353E+03	9.197071E-05	2.208076E-06
3.766350E+03	8.827417E-05	2.118300E-06
3.768347E+03	8.469956E-05	2.031536E-06
3.770344E+03	8.153106E-05	1.954594E-06
3.772341E+03	7.773951E-05	1.862797E-06
3.774338E+03	7.485278E-05	1.792760E-06
3.776335E+03	7.164322E-05	1.715063E-06
3.778333E+03	6.837350E-05	1.636003E-06
3.780330E+03	6.574641E-05	1.572388E-06
3.782327E+03	6.338129E-05	1.515097E-06
3.784324E+03	6.083282E-05	1.453481E-06
3.786321E+03	5.815997E-05	1.388954E-06
3.788318E+03	5.609824E-05	1.339077E-06
3.790315E+03	5.368130E-05	1.280774E-06
3.792312E+03	5.205306E-05	1.241335E-06
3.794309E+03	5.043010E-05	1.202060E-06
3.796306E+03	4.845033E-05	1.154322E-06
3.798303E+03	4.739204E-05	1.128574E-06
3.800300E+03	4.657634E-05	1.108625E-06
3.802297E+03	4.538722E-05	1.079811E-06
3.804294E+03	4.491390E-05	1.068046E-06
3.806291E+03	4.501808E-05	1.070020E-06
3.808288E+03	4.522879E-05	1.074523E-06
3.810285E+03	4.487088E-05	1.065519E-06
3.812282E+03	4.481098E-05	1.063599E-06
3.814279E+03	4.513106E-05	1.070695E-06
3.816276E+03	4.547818E-05	1.078426E-06
3.818273E+03	4.600420E-05	1.090391E-06
3.820270E+03	4.610121E-05	1.092182E-06
3.822267E+03	4.660817E-05	1.103679E-06
3.824264E+03	4.636219E-05	1.097345E-06
3.826261E+03	4.564246E-05	1.079810E-06
3.828258E+03	4.579556E-05	1.082931E-06
3.830255E+03	4.570343E-05	1.080254E-06
3.832252E+03	4.489098E-05	1.060562E-06
3.834249E+03	4.415753E-05	1.042754E-06
3.836246E+03	4.361525E-05	1.029475E-06
3.838243E+03	4.361545E-05	1.029008E-06
3.840240E+03	4.354392E-05	1.026851E-06
3.842237E+03	4.339357E-05	1.022838E-06
3.844234E+03	4.389524E-05	1.034191E-06
3.846231E+03	4.387772E-05	1.033308E-06
3.848228E+03	4.380726E-05	1.031180E-06
3.850225E+03	4.359853E-05	1.025801E-06
3.852222E+03	4.345402E-05	1.021939E-06
3.854219E+03	4.347750E-05	1.022029E-06
3.856216E+03	4.331453E-05	1.017739E-06
3.858213E+03	4.333261E-05	1.017705E-06
3.860210E+03	4.315876E-05	1.013167E-06
3.862207E+03	4.378781E-05	1.027473E-06
3.864204E+03	4.390658E-05	1.029799E-06
3.866201E+03	4.379169E-05	1.026646E-06
3.868198E+03	4.385046E-05	1.027565E-06
3.870195E+03	4.416898E-05	1.034569E-06
3.872192E+03	4.438321E-05	1.039125E-06
3.874189E+03	4.523411E-05	1.058577E-06
3.876186E+03	4.578429E-05	1.070979E-06
3.878183E+03	4.588737E-05	1.072916E-06
3.880180E+03	4.640002E-05	1.084425E-06
3.882177E+03	4.748168E-05	1.109216E-06
3.884174E+03	4.888236E-05	1.141436E-06
3.886171E+03	4.980993E-05	1.162587E-06
3.888168E+03	5.108427E-05	1.191809E-06
3.890165E+03	5.247566E-05	1.223737E-06
3.892162E+03	5.399283E-05	1.258569E-06
3.894159E+03	5.577314E-05	1.299504E-06
3.896156E+03	5.763933E-05	1.342404E-06
3.898153E+03	5.972325E-05	1.390336E-06
3.900150E+03	6.261666E-05	1.457065E-06
3.902147E+03	6.445269E-05	1.499142E-06
3.904144E+03	6.708210E-05	1.559631E-06
3.906141E+03	6.953336E-05	1.615929E-06
3.908138E+03	7.256131E-05	1.685576E-06
3.910135E+03	7.522104E-05	1.746615E-06
3.912132E+03	7.871312E-05	1.826921E-06
3.914129E+03	8.190765E-05	1.900258E-06
3.916126E+03	8.595140E-05	1.993228E-06
3.918123E+03	8.949659E-05	2.074564E-06
3.920120E+03	9.289088E-05	2.152336E-06
3.922117E+03	9.665095E-05	2.238515E-06
3.924114E+03	1.002438E-04	2.320755E-06
3.926111E+03	1.048338E-04	2.426000E-06
3.928108E+03	1.095072E-04	2.533090E-06
3.930105E+03	1.143349E-04	2.643659E-06
3.932102E+03	1.188270E-04	2.746381E-06
3.934099E+03	1.237890E-04	2.859879E-06
3.936096E+03	1.286605E-04	2.971193E-06
3.938093E+03	1.335284E-04	3.082335E-06
3.940090E+03	1.388179E-04	3.203114E-06
3.942087E+03	1.437496E-04	3.315547E-06
3.944084E+03	1.486344E-04	3.426806E-06
3.946081E+03	1.538045E-04	3.544554E-06
3.948078E+03	1.580170E-04	3.640149E-06
3.950075E+03	1.621494E-04	3.733823E-06
3.952072E+03	1.673089E-04	3.851068E-06
3.954069E+03	1.720012E-04	3.957471E-06
3.956066E+03	1.763626E-04	4.056179E-06
3.958063E+03	1.806001E-04	4.151966E-06
3.960060E+03	1.849649E-04	4.250602E-06
3.962057E+03	1.887416E-04	4.335656E-06
3.964054E+03	1.927602E-04	4.426199E-06
3.966051E+03	1.963052E-04	4.505802E-06
3.968048E+03	1.998242E-04	4.584751E-06
3.970045E+03	2.027654E-04	4.650390E-06
3.972042E+03	2.051503E-04	4.703226E-06
3.974039E+03	2.077220E-04	4.760307E-06
3.976036E+03	2.100214E-04	4.811107E-06
3.978033E+03	2.120700E-04	4.856132E-06
3.980030E+03	2.136765E-04	4.891004E-06
3.982027E+03	2.151851E-04	4.923615E-06
3.984024E+03	2.171649E-04	4.966982E-06
3.986021E+03	2.190743E-04	5.008711E-06
3.988018E+03	2.206177E-04	5.042048E-06
3.990015E+03	2.221836E-04	5.075878E-06
3.992012E+03	2.234051E-04	5.101822E-06
3.994009E+03	2.237727E-04	5.108257E-06
3.996006E+03	2.240088E-04	5.111694E-06
3.998003E+03	2.242615E-04	5.115511E-06
4.000000E+03	2.246020E-04	5.121331E-06
4.001997E+03	2.243012E-04	5.112537E-06
4.003994E+03	2.243239E-04	5.111122E-06
4.005991E+03	2.244890E-04	5.112961E-06
4.007988E+03	2.245062E-04	5.111434E-06
4.009985E+03	2.242820E-04	5.104419E-06
4.011982E+03	2.238546E-04	5.092793E-06
4.013979E+03	2.238003E-04	5.089664E-06
4.015976E+03	2.239107E-04	5.090287E-06
4.017973E+03	2.239167E-04	5.088545E-06
4.019970E+03	2.236427E-04	5.080447E-06
4.021967E+03	2.236652E-04	5.079093E-06
4.023964E+03	2.235173E-04	5.073880E-06
4.025961E+03	2.226661E-04	5.052713E-06
4.027958E+03	2.225454E-04	5.048141E-06
4.029955E+03	2.222983E-04	5.040709E-06
4.031952E+03	2.222270E-04	5.037274E-06
4.033949E+03	2.219302E-04	5.028738E-06
4.035946E+03	2.216498E-04	5.020583E-06
4.037943E+03	2.214242E-04	5.013683E-06
4.039940E+03	2.211105E-04	5.004798E-06
4.041937E+03	2.206096E-04	4.991689E-06
4.043934E+03	2.205378E-04	4.988300E-06
4.045931E+03	2.201852E-04	4.978571E-06
4.047928E+03	2.200582E-04	4.973953E-06
4.049925E+03	2.194299E-04	4.958018E-06
4.051922E+03	2.189667E-04	4.945827E-06
4.053919E+03	2.180734E-04	4.923941E-06
4.055916E+03	2.171797E-04	4.902066E-06
4.057913E+03	2.165062E-04	4.885181E-06
4.059910E+03	2.161963E-04	4.876513E-06
4.061907E+03	2.150812E-04	4.849701E-06
4.063904E+03	2.135188E-04	4.812832E-06
4.065901E+03	2.117185E-04	4.770633E-06
4.067898E+03	2.100223E-04	4.730813E-06
4.069895E+03	2.082317E-04	4.688899E-06
4.071892E+03	2.068267E-04	4.655700E-06
4.073889E+03	2.054101E-04	4.622267E-06
4.075886E+03	2.041530E-04	4.592451E-06
4.077883E+03	2.026083E-04	4.556191E-06
4.079880E+03	2.005933E-04	4.509390E-06
4.081877E+03	1.989919E-04	4.471920E-06
4.083874E+03	1.971523E-04	4.429126E-06
4.085871E+03	1.955108E-04	4.390819E-06
4.087868E+03	1.936918E-04	4.348555E-06
4.089865E+03	1.917726E-04	4.304074E-06
4.091862E+03	1.899852E-04	4.262586E-06
4.093859E+03	1.879648E-04	4.215904E-06
4.095856E+03	1.859879E-04	4.170231E-06
4.097853E+03	1.846410E-04	4.138716E-06
4.099850E+03	1.835760E-04	4.113541E-06
4.101847E+03	1.817686E-04	4.071757E-06
4.103844E+03	1.801874E-04	4.035073E-06
4.105841E+03	1.787220E-04	4.001007E-06
4.107838E+03	1.773446E-04	3.968937E-06
4.109835E+03	1.762105E-04	3.942335E-06
4.111832E+03	1.757464E-04	3.930742E-06
4.113829E+03	1.749772E-04	3.912339E-06
4.115826E+03	1.745238E-04	3.901011E-06
4.117823E+03	1.740036E-04	3.888202E-06
4.119820E+03	1.737384E-04	3.881101E-06
4.121817E+03	1.734009E-04	3.872396E-06
4.123814E+03	1.730299E-04	3.862955E-06
4.125811E+03	1.727698E-04	3.855999E-06
4.127808E+03	1.722875E-04	3.844095E-06
4.129805E+03	1.721825E-04	3.840619E-06
4.131802E+03	1.729104E-04	3.855722E-06
4.133799E+03	1.734663E-04	3.866990E-06
4.135796E+03	1.735781E-04	3.868358E-06
4.137793E+03	1.740510E-04	3.877776E-06
4.139790E+03	1.740351E-04	3.876306E-06
4.141787E+03	1.737245E-04	3.868282E-06
4.143784E+03	1.736640E-04	3.865834E-06
4.145781E+03	1.737202E-04	3.865989E-06
4.147778E+03	1.740989E-04	3.873328E-06
4.149775E+03	1.737991E-04	3.865576E-06
4.151772E+03	1.745285E-04	3.880717E-06
4.153769E+03	1.747907E-04	3.885470E-06
4.155766E+03	1.744074E-04	3.875881E-06
4.157763E+03	1.739737E-04	3.865185E-06
4.159760E+03	1.736122E-04	3.856104E-06
4.161757E+03	1.732060E-04	3.846040E-06
4.163754E+03	1.729389E-04	3.839074E-06
4.165751E+03	1.726048E-04	3.830632E-06
4.167748E+03	1.720532E-04	3.817374E-06
4.169745E+03	1.714234E-04	3.802393E-06
4.171742E+03	1.709270E-04	3.790386E-06
4.173739E+03	1.700680E-04	3.770352E-06
4.175736E+03	1.698667E-04	3.764911E-06
4.177733E+03	1.698104E-04	3.762690E-06
4.179730E+03	1.698488E-04	3.762575E-06
4.181727E+03	1.697365E-04	3.759129E-06
4.183724E+03	1.701934E-04	3.768293E-06
4.185721E+03	1.701983E-04	3.767453E-06
4.187718E+03	1.700693E-04	3.763654E-06
4.189715E+03	1.702025E-04	3.765667E-06
4.191712E+03	1.706263E-04	3.774110E-06
4.193709E+03	1.708267E-04	3.777616E-06
4.195706E+03	1.716697E-04	3.795333E-06
4.197703E+03	1.728148E-04	3.819724E-06
4.199700E+03	1.740441E-04	3.845972E-06
4.201697E+03	1.752236E-04	3.871111E-06
4.203694E+03	1.767949E-04	3.904898E-06
4.205691E+03	1.780647E-04	3.932020E-06
4.207688E+03	1.795084E-04	3.962974E-06
4.209685E+03	1.807177E-04	3.988745E-06
4.211682E+03	1.816420E-04	4.008221E-06
4.213679E+03	1.826449E-04	4.029430E-06
4.215676E+03	1.838217E-04	4.054473E-06
4.217673E+03	1.854693E-04	4.089891E-06
4.219670E+03	1.871175E-04	4.125313E-06
4.221667E+03	1.888055E-04	4.161604E-06
4.223665E+03	1.905781E-04	4.199750E-06
4.225662E+03	1.919310E-04	4.228640E-06
4.227659E+03	1.937721E-04	4.268277E-06
4.229656E+03	1.951933E-04	4.298660E-06
4.231653E+03	1.968057E-04	4.333244E-06
4.233650E+03	1.978187E-04	4.354625E-06
4.235647E+03	1.991628E-04	4.383295E-06
4.237644E+03	2.004402E-04	4.410490E-06
4.239641E+03	2.014430E-04	4.431642E-06
4.241638E+03	2.020141E-04	4.443295E-06
4.243635E+03	2.029950E-04	4.463965E-06
4.245632E+03	2.037967E-04	4.480693E-06
4.247629E+03	2.041943E-04	4.488540E-06
4.249626E+03	2.046706E-04	4.498121E-06
4.251623E+03	2.053324E-04	4.511783E-06
4.253620E+03	2.062360E-04	4.530760E-06
4.255617E+03	2.069376E-04	4.545299E-06
4.257614E+03	2.077012E-04	4.561204E-06
4.259611E+03	2.084932E-04	4.577733E-06
4.261608E+03	2.089987E-04	4.587974E-06
4.263605E+03	2.098867E-04	4.606616E-06
4.265602E+03	2.102407E-04	4.613540E-06
4.267599E+03	2.105947E-04	4.620471E-06
4.269596E+03	2.112526E-04	4.634075E-06
4.271593E+03	2.126199E-04	4.663238E-06
4.273590E+03	2.134022E-04	4.679573E-06
4.275587E+03	2.142241E-04	4.696780E-06
4.277584E+03	2.157220E-04	4.728806E-06
4.279581E+03	2.171866E-04	4.760101E-06
4.281578E+03	2.189051E-04	4.796958E-06
4.283575E+03	2.204214E-04	4.829381E-06
4.285572E+03	2.221242E-04	4.865886E-06
4.287569E+03	2.231963E-04	4.888576E-06
4.289566E+03	2.250917E-04	4.929297E-06
4.291563E+03	2.272640E-04	4.976077E-06
4.293560E+03	2.290141E-04	5.013609E-06
4.295557E+03	2.307592E-04	5.051028E-06
4.297554E+03	2.322340E-04	5.082530E-06
4.299551E+03	2.336247E-04	5.112192E-06
4.301548E+03	2.350779E-04	5.143222E-06
4.303545E+03	2.362663E-04	5.168459E-06
4.305542E+03	2.375736E-04	5.196300E-06
4.307539E+03	2.386216E-04	5.218472E-06
4.309536E+03	2.400652E-04	5.249297E-06
4.311533E+03	2.415318E-04	5.280627E-06
4.313530E+03	2.428916E-04	5.309623E-06
4.315527E+03	2.440145E-04	5.333443E-06
4.317524E+03	2.450472E-04	5.355298E-06
4.319521E+03	2.461199E-04	5.378029E-06
4.321518E+03	2.467971E-04	5.392125E-06
4.323515E+03	2.476894E-04	5.410925E-06
4.325512E+03	2.486101E-04	5.430354E-06
4.327509E+03	2.490956E-04	5.440281E-06
4.329506E+03	2.495416E-04	5.449355E-06
