#wls	flux	fluxerr
1.590552E+03	5.355503E-04	5.028321E-05
1.630316E+03	5.595599E-04	5.211192E-05
1.670080E+03	5.846573E-04	5.399976E-05
1.709844E+03	6.110587E-04	5.596364E-05
1.749607E+03	6.390460E-04	5.802580E-05
1.789371E+03	6.689642E-04	6.021327E-05
1.829135E+03	7.012118E-04	6.255681E-05
1.868899E+03	7.362264E-04	6.508936E-05
1.908663E+03	7.744623E-04	6.784395E-05
1.948426E+03	8.169569E-04	7.090283E-05
1.988190E+03	8.636082E-04	7.424694E-05
2.027954E+03	9.154835E-04	7.795725E-05
2.067718E+03	9.730714E-04	8.206258E-05
2.107482E+03	1.035799E-03	8.650168E-05
2.147245E+03	1.104202E-03	9.130700E-05
2.187009E+03	1.176380E-03	9.631044E-05
2.226773E+03	1.251271E-03	1.014183E-04
2.266537E+03	1.327971E-03	1.065533E-04
2.306301E+03	1.405866E-03	1.116650E-04
2.346064E+03	1.483032E-03	1.166019E-04
2.385828E+03	1.557649E-03	1.212267E-04
2.425592E+03	1.628237E-03	1.254347E-04
2.465356E+03	1.694642E-03	1.292271E-04
2.505120E+03	1.757266E-03	1.326476E-04
2.544883E+03	1.814446E-03	1.355848E-04
2.584647E+03	1.869912E-03	1.383313E-04
2.624411E+03	1.924508E-03	1.409573E-04
2.664175E+03	1.977975E-03	1.434510E-04
2.703939E+03	2.027365E-03	1.456088E-04
2.743702E+03	2.071659E-03	1.473722E-04
2.783466E+03	2.109875E-03	1.486886E-04
2.823230E+03	2.142151E-03	1.495849E-04
2.862994E+03	2.169606E-03	1.501530E-04
2.902758E+03	2.195671E-03	1.506390E-04
2.942521E+03	2.221773E-03	1.511446E-04
2.982285E+03	2.252470E-03	1.519793E-04
2.992226E+03	2.260336E-03	1.522034E-04
3.002167E+03	2.269865E-03	1.525403E-04
3.012108E+03	2.278966E-03	1.528491E-04
3.022049E+03	2.289041E-03	1.532239E-04
3.031990E+03	2.299409E-03	1.536188E-04
3.041931E+03	2.310749E-03	1.540792E-04
3.051872E+03	2.322389E-03	1.545599E-04
3.061813E+03	2.334988E-03	1.551048E-04
3.071754E+03	2.347884E-03	1.556695E-04
3.081695E+03	2.361715E-03	1.562963E-04
3.091636E+03	2.376458E-03	1.569835E-04
3.101577E+03	2.391460E-03	1.576876E-04
3.111518E+03	2.407331E-03	1.584489E-04
3.121459E+03	2.424039E-03	1.592651E-04
3.131399E+03	2.440942E-03	1.600938E-04
3.141340E+03	2.458622E-03	1.609732E-04
3.151281E+03	2.477637E-03	1.619395E-04
3.161222E+03	2.496749E-03	1.629118E-04
3.171163E+03	2.516518E-03	1.639266E-04
3.181104E+03	2.536904E-03	1.649811E-04
3.191045E+03	2.558436E-03	1.661096E-04
3.200986E+03	2.579924E-03	1.672348E-04
3.210927E+03	2.602470E-03	1.684281E-04
3.220868E+03	2.625463E-03	1.696500E-04
3.230809E+03	2.648872E-03	1.708982E-04
3.240750E+03	2.672667E-03	1.721711E-04
3.250691E+03	2.697361E-03	1.735016E-04
3.260632E+03	2.722386E-03	1.748532E-04
3.270573E+03	2.748254E-03	1.762588E-04
3.280514E+03	2.774417E-03	1.776831E-04
3.290455E+03	2.801385E-03	1.791590E-04
3.300396E+03	2.829142E-03	1.806853E-04
3.310337E+03	2.857162E-03	1.822286E-04
3.320278E+03	2.886450E-03	1.838529E-04
3.330219E+03	2.916474E-03	1.855243E-04
3.340159E+03	2.947207E-03	1.872412E-04
3.350100E+03	2.978619E-03	1.890016E-04
3.360041E+03	3.011149E-03	1.908334E-04
3.369982E+03	3.044248E-03	1.927019E-04
3.379923E+03	3.078326E-03	1.946332E-04
3.389864E+03	3.113765E-03	1.966513E-04
3.399805E+03	3.149524E-03	1.986906E-04
3.409746E+03	3.186440E-03	2.008041E-04
3.419687E+03	3.223938E-03	2.029555E-04
3.429628E+03	3.262350E-03	2.051659E-04
3.439569E+03	3.301071E-03	2.073975E-04
3.449510E+03	3.340799E-03	2.096943E-04
3.459451E+03	3.380801E-03	2.120104E-04
3.469392E+03	3.420722E-03	2.143239E-04
3.479333E+03	3.460590E-03	2.166368E-04
3.489274E+03	3.499990E-03	2.189237E-04
3.499215E+03	3.538574E-03	2.211627E-04
3.509156E+03	3.576088E-03	2.233386E-04
3.519097E+03	3.612409E-03	2.254437E-04
3.529038E+03	3.647929E-03	2.275027E-04
3.538978E+03	3.682707E-03	2.295196E-04
3.548919E+03	3.716822E-03	2.314994E-04
3.558860E+03	3.750304E-03	2.334441E-04
3.568801E+03	3.783029E-03	2.353461E-04
3.578742E+03	3.815019E-03	2.372070E-04
3.588683E+03	3.845242E-03	2.389627E-04
3.598624E+03	3.872731E-03	2.405533E-04
3.608565E+03	3.896571E-03	2.419223E-04
3.618506E+03	3.915247E-03	2.429759E-04
3.628447E+03	3.926796E-03	2.435929E-04
3.638388E+03	3.930014E-03	2.436989E-04
3.648329E+03	3.923264E-03	2.431931E-04
3.658270E+03	3.906006E-03	2.420423E-04
3.668211E+03	3.877330E-03	2.401909E-04
3.678152E+03	3.838249E-03	2.377017E-04
3.688093E+03	3.789807E-03	2.346398E-04
3.698034E+03	3.733124E-03	2.310747E-04
3.707975E+03	3.670681E-03	2.271598E-04
3.717916E+03	3.604996E-03	2.230508E-04
3.727857E+03	3.538502E-03	2.188981E-04
3.737797E+03	3.474124E-03	2.148821E-04
3.747738E+03	3.414390E-03	2.111588E-04
3.757679E+03	3.361390E-03	2.078571E-04
3.767620E+03	3.317385E-03	2.051163E-04
3.777561E+03	3.283919E-03	2.030313E-04
3.787502E+03	3.262483E-03	2.016942E-04
3.797443E+03	3.254506E-03	2.011929E-04
3.807384E+03	3.260634E-03	2.015671E-04
3.817325E+03	3.282068E-03	2.028909E-04
3.827266E+03	3.319276E-03	2.051934E-04
3.837207E+03	3.372737E-03	2.085040E-04
3.847148E+03	3.442569E-03	2.128304E-04
3.857089E+03	3.529208E-03	2.181997E-04
3.867030E+03	3.632155E-03	2.245814E-04
3.876971E+03	3.751170E-03	2.319612E-04
3.886912E+03	3.885553E-03	2.402962E-04
3.896853E+03	4.034109E-03	2.495132E-04
3.906794E+03	4.195698E-03	2.595422E-04
3.916735E+03	4.368701E-03	2.702837E-04
3.926676E+03	4.551033E-03	2.816095E-04
3.936616E+03	4.740551E-03	2.933874E-04
3.946557E+03	4.935116E-03	3.054859E-04
3.956498E+03	5.132035E-03	3.177385E-04
3.966439E+03	5.328707E-03	3.299848E-04
3.976380E+03	5.522704E-03	3.420748E-04
3.986321E+03	5.711209E-03	3.538341E-04
3.996262E+03	5.891947E-03	3.651219E-04
4.006203E+03	6.062179E-03	3.757684E-04
4.016144E+03	6.220319E-03	3.856750E-04
4.026085E+03	6.364439E-03	3.947217E-04
4.036026E+03	6.493387E-03	4.028367E-04
4.045967E+03	6.605883E-03	4.099398E-04
4.055908E+03	6.701128E-03	4.159807E-04
4.065849E+03	6.778527E-03	4.209216E-04
4.075790E+03	6.837850E-03	4.247472E-04
4.085731E+03	6.878529E-03	4.274211E-04
4.095672E+03	6.900559E-03	4.289419E-04
4.105613E+03	6.903669E-03	4.292914E-04
4.115554E+03	6.888269E-03	4.284940E-04
4.125495E+03	6.854691E-03	4.265688E-04
4.135436E+03	6.804295E-03	4.235991E-04
4.145376E+03	6.738093E-03	4.196468E-04
4.155317E+03	6.658157E-03	4.148394E-04
4.165258E+03	6.566937E-03	4.093285E-04
4.175199E+03	6.466650E-03	4.032513E-04
4.185140E+03	6.360429E-03	3.968023E-04
4.195081E+03	6.250941E-03	3.901472E-04
4.205022E+03	6.141139E-03	3.834701E-04
4.214963E+03	6.033655E-03	3.769352E-04
4.224904E+03	5.930902E-03	3.706933E-04
4.234845E+03	5.835039E-03	3.648795E-04
4.244786E+03	5.747952E-03	3.596124E-04
4.254727E+03	5.671257E-03	3.549939E-04
4.264668E+03	5.606433E-03	3.511173E-04
4.274609E+03	5.554544E-03	3.480505E-04
4.284550E+03	5.516492E-03	3.458512E-04
4.294491E+03	5.492491E-03	3.445342E-04
4.304432E+03	5.482923E-03	3.441249E-04
4.314373E+03	5.487457E-03	3.446040E-04
4.324314E+03	5.505688E-03	3.459476E-04
4.334255E+03	5.536808E-03	3.481066E-04
4.344195E+03	5.579928E-03	3.510264E-04
4.354136E+03	5.633826E-03	3.546317E-04
4.364077E+03	5.697419E-03	3.588556E-04
4.374018E+03	5.769868E-03	3.636466E-04
4.383959E+03	5.850370E-03	3.689552E-04
4.393900E+03	5.938225E-03	3.747386E-04
4.403841E+03	6.032772E-03	3.809561E-04
4.413782E+03	6.133366E-03	3.875681E-04
4.423723E+03	6.239512E-03	3.945441E-04
4.433664E+03	6.350577E-03	4.018450E-04
4.443605E+03	6.466198E-03	4.094486E-04
4.453546E+03	6.586354E-03	4.173543E-04
4.463487E+03	6.711050E-03	4.255631E-04
4.473428E+03	6.840647E-03	4.340988E-04
4.483369E+03	6.975660E-03	4.429948E-04
4.493310E+03	7.116491E-03	4.522777E-04
4.503251E+03	7.263562E-03	4.619754E-04
4.513192E+03	7.416480E-03	4.720637E-04
4.523133E+03	7.574474E-03	4.824948E-04
4.533074E+03	7.735594E-03	4.931452E-04
4.543014E+03	7.896923E-03	5.038295E-04
4.552955E+03	8.054186E-03	5.142749E-04
4.562896E+03	8.202390E-03	5.241619E-04
4.572837E+03	8.335725E-03	5.331178E-04
4.582778E+03	8.448154E-03	5.407538E-04
4.592719E+03	8.534061E-03	5.467070E-04
4.602660E+03	8.588545E-03	5.506591E-04
4.612601E+03	8.608048E-03	5.523767E-04
4.622542E+03	8.590483E-03	5.517199E-04
4.632483E+03	8.536202E-03	5.487054E-04
4.642424E+03	8.446842E-03	5.434320E-04
4.652365E+03	8.325928E-03	5.361209E-04
4.662306E+03	8.178429E-03	5.270868E-04
4.672247E+03	8.009913E-03	5.166840E-04
4.682188E+03	7.826810E-03	5.053238E-04
4.692129E+03	7.635529E-03	4.934176E-04
4.702070E+03	7.442193E-03	4.813597E-04
4.712011E+03	7.252542E-03	4.695211E-04
4.721952E+03	7.071673E-03	4.582324E-04
4.731893E+03	6.903868E-03	4.477727E-04
4.741834E+03	6.752813E-03	4.383834E-04
4.751774E+03	6.621370E-03	4.302532E-04
4.761715E+03	6.511624E-03	4.235213E-04
4.771656E+03	6.425090E-03	4.182900E-04
4.781597E+03	6.362654E-03	4.146214E-04
4.791538E+03	6.324650E-03	4.125416E-04
4.801479E+03	6.310632E-03	4.120261E-04
4.811420E+03	6.319569E-03	4.130120E-04
4.821361E+03	6.349835E-03	4.153975E-04
4.831302E+03	6.399036E-03	4.190299E-04
4.841243E+03	6.464434E-03	4.237336E-04
4.851184E+03	6.542666E-03	4.292911E-04
4.861125E+03	6.630266E-03	4.354777E-04
4.871066E+03	6.723743E-03	4.420657E-04
4.881007E+03	6.819652E-03	4.488297E-04
4.890948E+03	6.915210E-03	4.555873E-04
4.900889E+03	7.007864E-03	4.621700E-04
4.910830E+03	7.095760E-03	4.684553E-04
4.920771E+03	7.177653E-03	4.743599E-04
4.930712E+03	7.252569E-03	4.798186E-04
4.940653E+03	7.319861E-03	4.847870E-04
4.950593E+03	7.379055E-03	4.892325E-04
4.960534E+03	7.429491E-03	4.931097E-04
4.970475E+03	7.470600E-03	4.963790E-04
4.980416E+03	7.501361E-03	4.989708E-04
4.990357E+03	7.521054E-03	5.008348E-04
5.000298E+03	7.528623E-03	5.018986E-04
5.010239E+03	7.523585E-03	5.021272E-04
5.020180E+03	7.505752E-03	5.015053E-04
5.030121E+03	7.475711E-03	5.000694E-04
5.040062E+03	7.434692E-03	4.978992E-04
5.050003E+03	7.385040E-03	4.951493E-04
5.059944E+03	7.329552E-03	4.920055E-04
5.069885E+03	7.271696E-03	4.886994E-04
5.079826E+03	7.215180E-03	4.854801E-04
5.089767E+03	7.163682E-03	4.825956E-04
5.099708E+03	7.120443E-03	4.802657E-04
5.109649E+03	7.088184E-03	4.786761E-04
5.119590E+03	7.068876E-03	4.779632E-04
5.129531E+03	7.063664E-03	4.782075E-04
5.139472E+03	7.072535E-03	4.794120E-04
5.149412E+03	7.094967E-03	4.815451E-04
5.159353E+03	7.129575E-03	4.845162E-04
5.169294E+03	7.174276E-03	4.881871E-04
5.179235E+03	7.226960E-03	4.924170E-04
5.189176E+03	7.285086E-03	4.970350E-04
5.199117E+03	7.346464E-03	5.018933E-04
5.209058E+03	7.409077E-03	5.068551E-04
5.218999E+03	7.471248E-03	5.118064E-04
5.228940E+03	7.531800E-03	5.166664E-04
5.238881E+03	7.590063E-03	5.213893E-04
5.248822E+03	7.645529E-03	5.259397E-04
5.258763E+03	7.698172E-03	5.303155E-04
5.268704E+03	7.747980E-03	5.345153E-04
5.278645E+03	7.795053E-03	5.385456E-04
5.288586E+03	7.839501E-03	5.424135E-04
5.298527E+03	7.881065E-03	5.461006E-04
5.308468E+03	7.919567E-03	5.495940E-04
5.318409E+03	7.954512E-03	5.528587E-04
5.328350E+03	7.985398E-03	5.558590E-04
5.338291E+03	8.011730E-03	5.585594E-04
5.348232E+03	8.032985E-03	5.609222E-04
5.358172E+03	8.048910E-03	5.629284E-04
5.368113E+03	8.059403E-03	5.645691E-04
5.378054E+03	8.064823E-03	5.658682E-04
5.387995E+03	8.065648E-03	5.668576E-04
5.397936E+03	8.062575E-03	5.675851E-04
5.407877E+03	8.056889E-03	5.681400E-04
5.417818E+03	8.049603E-03	5.685932E-04
5.427759E+03	8.042188E-03	5.690484E-04
5.437700E+03	8.035597E-03	5.695731E-04
5.447641E+03	8.030649E-03	5.702259E-04
5.457582E+03	8.027152E-03	5.709936E-04
5.467523E+03	8.023933E-03	5.717928E-04
5.477464E+03	8.018203E-03	5.724243E-04
5.487405E+03	8.006162E-03	5.726151E-04
5.497346E+03	7.983399E-03	5.720463E-04
5.507287E+03	7.945491E-03	5.703958E-04
5.517228E+03	7.888246E-03	5.673555E-04
5.527169E+03	7.808389E-03	5.626813E-04
5.537110E+03	7.703914E-03	5.562183E-04
5.547051E+03	7.574422E-03	5.479268E-04
5.556991E+03	7.421029E-03	5.378766E-04
5.566932E+03	7.246711E-03	5.262727E-04
5.576873E+03	7.056090E-03	5.134418E-04
5.586814E+03	6.854523E-03	4.997664E-04
5.596755E+03	6.648238E-03	4.856959E-04
5.606696E+03	6.443474E-03	4.716841E-04
5.616637E+03	6.245686E-03	4.581308E-04
5.626578E+03	6.059636E-03	4.453883E-04
5.636519E+03	5.888827E-03	4.337191E-04
5.646460E+03	5.735177E-03	4.232708E-04
5.656401E+03	5.599590E-03	4.141176E-04
5.666342E+03	5.481694E-03	4.062395E-04
5.676283E+03	5.380322E-03	3.995575E-04
5.686224E+03	5.293886E-03	3.939606E-04
5.696165E+03	5.220877E-03	3.893428E-04
5.706106E+03	5.160071E-03	3.856189E-04
5.716047E+03	5.110771E-03	3.827417E-04
5.725988E+03	5.073167E-03	3.807309E-04
5.735929E+03	5.048260E-03	3.796672E-04
5.745870E+03	5.037702E-03	3.796808E-04
5.755810E+03	5.043717E-03	3.809465E-04
5.765751E+03	5.068528E-03	3.836405E-04
5.775692E+03	5.114492E-03	3.879506E-04
5.785633E+03	5.183362E-03	3.940203E-04
5.795574E+03	5.276327E-03	4.019514E-04
5.805515E+03	5.393698E-03	4.117797E-04
5.815456E+03	5.534623E-03	4.234518E-04
5.825397E+03	5.697215E-03	4.368351E-04
5.835338E+03	5.878267E-03	4.516939E-04
5.845279E+03	6.073133E-03	4.676799E-04
5.855220E+03	6.276277E-03	4.843729E-04
5.865161E+03	6.481062E-03	5.012637E-04
5.875102E+03	6.680219E-03	5.177901E-04
5.885043E+03	6.866611E-03	5.333949E-04
5.894984E+03	7.033492E-03	5.475465E-04
5.904925E+03	7.175252E-03	5.597975E-04
5.914866E+03	7.287850E-03	5.698191E-04
5.924807E+03	7.368944E-03	5.774129E-04
5.934748E+03	7.418229E-03	5.825389E-04
5.944689E+03	7.437276E-03	5.853043E-04
5.954630E+03	7.428883E-03	5.859142E-04
5.964570E+03	7.397040E-03	5.846697E-04
5.974511E+03	7.346301E-03	5.819193E-04
5.984452E+03	7.281335E-03	5.780239E-04
5.994393E+03	7.206740E-03	5.733415E-04
6.004334E+03	7.126490E-03	5.681841E-04
6.014275E+03	7.044154E-03	5.628337E-04
6.024216E+03	6.962512E-03	5.575115E-04
6.034157E+03	6.883772E-03	5.523950E-04
6.044098E+03	6.809529E-03	5.476139E-04
6.054039E+03	6.740878E-03	5.432583E-04
6.063980E+03	6.678419E-03	5.393799E-04
6.073921E+03	6.622484E-03	5.360083E-04
6.083862E+03	6.573180E-03	5.331557E-04
6.093803E+03	6.530256E-03	5.308048E-04
6.103744E+03	6.493238E-03	5.289203E-04
6.113685E+03	6.461631E-03	5.274648E-04
6.123626E+03	6.434557E-03	5.263692E-04
6.133567E+03	6.411014E-03	5.255536E-04
6.143508E+03	6.389903E-03	5.249294E-04
6.153449E+03	6.369881E-03	5.243872E-04
6.163389E+03	6.349577E-03	5.238145E-04
6.173330E+03	6.327633E-03	5.230988E-04
6.183271E+03	6.302621E-03	5.221207E-04
6.193212E+03	6.273143E-03	5.207627E-04
6.203153E+03	6.237943E-03	5.189178E-04
6.213094E+03	6.195796E-03	5.164809E-04
6.223035E+03	6.145834E-03	5.133759E-04
6.232976E+03	6.087450E-03	5.095477E-04
6.242917E+03	6.020507E-03	5.049807E-04
6.252858E+03	5.945214E-03	4.996877E-04
6.262799E+03	5.862432E-03	4.937372E-04
6.272740E+03	5.773308E-03	4.872218E-04
6.282681E+03	5.679500E-03	4.802787E-04
6.292622E+03	5.582941E-03	4.730692E-04
6.302563E+03	5.485820E-03	4.657777E-04
6.312504E+03	5.390633E-03	4.586163E-04
6.322445E+03	5.299873E-03	4.517985E-04
6.332386E+03	5.216278E-03	4.455605E-04
6.342327E+03	5.142603E-03	4.401417E-04
6.352268E+03	5.081926E-03	4.358112E-04
6.362208E+03	5.037156E-03	4.328256E-04
6.372149E+03	5.011416E-03	4.314619E-04
6.382090E+03	5.007834E-03	4.319995E-04
6.392031E+03	5.029371E-03	4.347055E-04
6.401972E+03	5.078984E-03	4.398487E-04
6.411913E+03	5.159211E-03	4.476633E-04
6.421854E+03	5.272289E-03	4.583593E-04
6.431795E+03	5.419898E-03	4.720993E-04
6.441736E+03	5.602869E-03	4.889729E-04
6.451677E+03	5.821198E-03	5.089975E-04
6.461618E+03	6.073683E-03	5.320850E-04
6.471559E+03	6.357919E-03	5.580410E-04
6.481500E+03	6.669826E-03	5.865225E-04
6.491441E+03	7.003976E-03	6.170643E-04
6.501382E+03	7.353096E-03	6.490352E-04
6.511323E+03	7.708892E-03	6.817088E-04
6.521264E+03	8.061609E-03	7.142234E-04
6.531205E+03	8.400845E-03	7.456540E-04
6.541146E+03	8.716085E-03	7.750583E-04
6.551087E+03	8.997166E-03	8.015188E-04
6.561027E+03	9.235086E-03	8.242151E-04
6.570968E+03	9.422336E-03	8.424542E-04
6.580909E+03	9.553721E-03	8.557459E-04
6.590850E+03	9.626491E-03	8.638161E-04
6.600791E+03	9.640017E-03	8.665798E-04
6.610732E+03	9.596432E-03	8.642005E-04
6.620673E+03	9.499534E-03	8.569931E-04
6.630614E+03	9.354890E-03	8.454355E-04
6.640555E+03	9.169021E-03	8.300954E-04
6.650496E+03	8.949115E-03	8.116050E-04
6.660437E+03	8.702472E-03	7.906117E-04
6.670378E+03	8.436627E-03	7.677889E-04
6.680319E+03	8.158410E-03	7.437504E-04
6.690260E+03	7.874435E-03	7.190950E-04
6.700201E+03	7.590734E-03	6.943719E-04
6.710142E+03	7.312393E-03	6.700477E-04
6.720083E+03	7.044048E-03	6.465509E-04
6.730024E+03	6.789524E-03	6.242382E-04
6.739965E+03	6.551954E-03	6.034049E-04
6.749906E+03	6.333481E-03	5.842568E-04
6.759847E+03	6.135727E-03	5.669529E-04
6.769787E+03	5.959427E-03	5.515711E-04
6.779728E+03	5.804838E-03	5.381453E-04
6.789669E+03	5.671308E-03	5.266249E-04
6.799610E+03	5.557834E-03	5.169267E-04
6.809551E+03	5.462830E-03	5.089119E-04
6.819492E+03	5.384496E-03	5.024210E-04
6.829433E+03	5.320675E-03	4.972603E-04
6.839374E+03	5.269257E-03	4.932386E-04
6.849315E+03	5.228041E-03	4.901553E-04
6.859256E+03	5.195061E-03	4.878304E-04
6.869197E+03	5.168634E-03	4.861092E-04
6.879138E+03	5.147443E-03	4.848707E-04
6.889079E+03	5.130524E-03	4.840261E-04
6.899020E+03	5.117522E-03	4.835438E-04
6.908961E+03	5.108211E-03	4.834043E-04
6.918902E+03	5.102864E-03	4.836349E-04
6.928843E+03	5.101894E-03	4.842766E-04
6.938784E+03	5.105676E-03	4.853670E-04
6.948725E+03	5.114800E-03	4.869642E-04
6.958666E+03	5.129523E-03	4.890951E-04
6.968606E+03	5.149923E-03	4.917692E-04
6.978547E+03	5.175823E-03	4.949723E-04
6.988488E+03	5.206495E-03	4.986369E-04
6.998429E+03	5.240956E-03	5.026705E-04
7.008370E+03	5.277991E-03	5.069580E-04
7.018311E+03	5.315811E-03	5.113284E-04
7.028252E+03	5.352548E-03	5.156020E-04
7.038193E+03	5.386258E-03	5.195908E-04
7.048134E+03	5.415163E-03	5.231215E-04
7.058075E+03	5.437621E-03	5.260335E-04
7.068016E+03	5.452509E-03	5.282153E-04
7.077957E+03	5.459280E-03	5.296107E-04
7.087898E+03	5.458030E-03	5.302255E-04
7.097839E+03	5.449407E-03	5.301198E-04
7.107780E+03	5.434735E-03	5.294195E-04
7.117721E+03	5.415639E-03	5.282808E-04
7.127662E+03	5.393861E-03	5.268719E-04
7.137603E+03	5.371208E-03	5.253688E-04
7.147544E+03	5.349389E-03	5.239384E-04
7.157485E+03	5.329683E-03	5.227067E-04
7.167425E+03	5.313019E-03	5.217655E-04
7.177366E+03	5.300160E-03	5.211914E-04
7.187307E+03	5.291308E-03	5.210055E-04
7.197248E+03	5.286419E-03	5.212053E-04
7.207189E+03	5.285188E-03	5.217620E-04
7.217130E+03	5.287023E-03	5.226187E-04
7.227071E+03	5.291308E-03	5.237154E-04
7.237012E+03	5.297228E-03	5.249725E-04
7.246953E+03	5.303811E-03	5.262941E-04
7.256894E+03	5.310188E-03	5.275940E-04
7.266835E+03	5.315349E-03	5.287718E-04
7.276776E+03	5.318494E-03	5.297472E-04
7.286717E+03	5.318791E-03	5.304368E-04
7.296658E+03	5.315726E-03	5.307878E-04
7.306599E+03	5.308846E-03	5.307540E-04
7.316540E+03	5.298006E-03	5.303194E-04
7.326481E+03	5.283365E-03	5.294985E-04
7.336422E+03	5.265153E-03	5.283130E-04
7.346363E+03	5.243917E-03	5.268167E-04
7.356304E+03	5.220186E-03	5.250616E-04
7.366245E+03	5.194626E-03	5.231141E-04
7.376185E+03	5.167984E-03	5.210488E-04
7.386126E+03	5.140886E-03	5.189286E-04
7.396067E+03	5.113800E-03	5.168006E-04
7.406008E+03	5.087139E-03	5.147067E-04
7.415949E+03	5.061245E-03	5.126818E-04
7.425890E+03	5.036242E-03	5.107388E-04
7.435831E+03	5.012045E-03	5.088694E-04
7.445772E+03	4.988594E-03	5.070679E-04
7.455713E+03	4.965602E-03	5.053053E-04
7.465654E+03	4.942874E-03	5.035619E-04
7.475595E+03	4.920128E-03	5.018093E-04
7.485536E+03	4.897103E-03	5.000208E-04
7.495477E+03	4.873592E-03	4.981751E-04
7.505418E+03	4.849394E-03	4.962515E-04
7.515359E+03	4.824548E-03	4.942540E-04
7.525300E+03	4.799147E-03	4.921918E-04
7.535241E+03	4.773479E-03	4.900944E-04
7.545182E+03	4.747749E-03	4.879829E-04
7.555123E+03	4.722492E-03	4.859123E-04
7.565064E+03	4.698258E-03	4.839395E-04
7.575004E+03	4.675716E-03	4.821339E-04
7.584945E+03	4.655323E-03	4.805431E-04
7.594886E+03	4.637813E-03	4.792440E-04
7.604827E+03	4.623381E-03	4.782575E-04
7.614768E+03	4.612391E-03	4.776224E-04
7.624709E+03	4.604860E-03	4.773418E-04
7.634650E+03	4.600538E-03	4.773907E-04
7.644591E+03	4.599132E-03	4.777399E-04
7.654532E+03	4.600151E-03	4.783392E-04
7.664473E+03	4.602959E-03	4.791231E-04
7.674414E+03	4.607109E-03	4.800458E-04
7.684355E+03	4.611971E-03	4.810421E-04
7.694296E+03	4.616973E-03	4.820523E-04
7.704237E+03	4.621897E-03	4.830537E-04
7.714178E+03	4.626168E-03	4.839864E-04
