#wls	flux	fluxerr
1.600000E+03	1.272528E-16	2.123224E-16
1.640000E+03	1.274958E-16	2.124500E-16
1.680000E+03	1.277488E-16	2.125600E-16
1.720000E+03	1.279380E-16	2.125262E-16
1.760000E+03	1.281208E-16	2.124406E-16
1.800000E+03	1.282439E-16	2.122110E-16
1.840000E+03	1.283406E-16	2.118886E-16
1.880000E+03	1.283778E-16	2.114146E-16
1.920000E+03	1.283430E-16	2.107647E-16
1.960000E+03	1.282231E-16	2.099132E-16
2.000000E+03	1.280249E-16	2.088677E-16
2.040000E+03	1.277117E-16	2.075649E-16
2.080000E+03	1.273088E-16	2.060427E-16
2.120000E+03	1.267569E-16	2.042027E-16
2.160000E+03	1.260788E-16	2.020799E-16
2.200000E+03	1.252150E-16	1.995785E-16
2.240000E+03	1.242057E-16	1.967632E-16
2.280000E+03	1.229914E-16	1.935413E-16
2.320000E+03	1.215718E-16	1.899166E-16
2.360000E+03	1.199279E-16	1.858649E-16
2.400000E+03	1.180595E-16	1.813938E-16
2.440000E+03	1.159492E-16	1.764867E-16
2.480000E+03	1.135657E-16	1.711084E-16
2.520000E+03	1.109155E-16	1.652845E-16
2.560000E+03	1.080070E-16	1.590456E-16
2.600000E+03	1.048369E-16	1.524059E-16
2.640000E+03	1.014074E-16	1.453909E-16
2.680000E+03	9.774119E-17	1.380564E-16
2.720000E+03	9.384047E-17	1.304298E-16
2.760000E+03	8.975390E-17	1.226035E-16
2.800000E+03	8.549925E-17	1.146255E-16
2.840000E+03	8.112623E-17	1.065851E-16
2.880000E+03	7.668935E-17	9.857361E-17
2.920000E+03	7.222952E-17	9.065993E-17
2.960000E+03	6.782080E-17	8.294937E-17
3.000000E+03	6.352119E-17	7.551917E-17
3.010000E+03	6.247180E-17	7.371574E-17
3.020000E+03	6.142949E-17	7.193021E-17
3.030000E+03	6.040251E-17	7.017219E-17
3.040000E+03	5.939165E-17	6.844242E-17
3.050000E+03	5.839107E-17	6.673399E-17
3.060000E+03	5.741504E-17	6.506305E-17
3.070000E+03	5.644484E-17	6.340809E-17
3.080000E+03	5.550083E-17	6.179186E-17
3.090000E+03	5.457124E-17	6.020083E-17
3.100000E+03	5.366326E-17	5.864268E-17
3.110000E+03	5.277770E-17	5.711789E-17
3.120000E+03	5.191539E-17	5.562690E-17
3.130000E+03	5.107163E-17	5.416422E-17
3.140000E+03	5.025306E-17	5.273650E-17
3.150000E+03	4.945520E-17	5.133851E-17
3.160000E+03	4.868966E-17	4.998175E-17
3.170000E+03	4.794679E-17	4.865558E-17
3.180000E+03	4.723279E-17	4.736568E-17
3.190000E+03	4.654854E-17	4.611218E-17
3.200000E+03	4.589498E-17	4.489518E-17
3.210000E+03	4.526836E-17	4.371020E-17
3.220000E+03	4.467915E-17	4.256645E-17
3.230000E+03	4.411908E-17	4.145501E-17
3.240000E+03	4.359390E-17	4.038032E-17
3.250000E+03	4.310474E-17	3.934228E-17
3.260000E+03	4.265279E-17	3.834076E-17
3.270000E+03	4.223512E-17	3.737189E-17
3.280000E+03	4.186154E-17	3.644302E-17
3.290000E+03	4.152516E-17	3.554663E-17
3.300000E+03	4.123176E-17	3.468620E-17
3.310000E+03	4.098302E-17	3.386147E-17
3.320000E+03	4.078472E-17	3.307535E-17
3.330000E+03	4.063098E-17	3.232112E-17
3.340000E+03	4.052799E-17	3.160179E-17
3.350000E+03	4.047437E-17	3.091415E-17
3.360000E+03	4.048047E-17	3.026387E-17
3.370000E+03	4.054542E-17	2.964768E-17
3.380000E+03	4.067254E-17	2.906535E-17
3.390000E+03	4.086547E-17	2.851669E-17
3.400000E+03	4.112458E-17	2.799896E-17
3.410000E+03	4.146191E-17	2.751721E-17
3.420000E+03	4.187879E-17	2.706876E-17
3.430000E+03	4.237716E-17	2.665123E-17
3.440000E+03	4.297091E-17	2.626952E-17
3.450000E+03	4.366345E-17	2.592139E-17
3.460000E+03	4.446281E-17	2.560718E-17
3.470000E+03	4.537801E-17	2.532735E-17
3.480000E+03	4.641523E-17	2.508045E-17
3.490000E+03	4.759378E-17	2.487170E-17
3.500000E+03	4.892261E-17	2.470009E-17
3.510000E+03	5.041623E-17	2.456715E-17
3.520000E+03	5.209096E-17	2.447482E-17
3.530000E+03	5.396968E-17	2.442752E-17
3.540000E+03	5.606433E-17	2.442423E-17
3.550000E+03	5.840261E-17	2.447072E-17
3.560000E+03	6.101568E-17	2.457354E-17
3.570000E+03	6.392334E-17	2.473428E-17
3.580000E+03	6.716868E-17	2.496366E-17
3.590000E+03	7.077812E-17	2.526574E-17
3.600000E+03	7.480368E-17	2.565408E-17
3.610000E+03	7.928561E-17	2.613792E-17
3.620000E+03	8.427424E-17	2.673027E-17
3.630000E+03	8.982485E-17	2.744605E-17
3.640000E+03	9.600507E-17	2.830424E-17
3.650000E+03	1.028664E-16	2.931930E-17
3.660000E+03	1.104946E-16	3.051602E-17
3.670000E+03	1.189498E-16	3.191188E-17
3.680000E+03	1.283299E-16	3.353465E-17
3.690000E+03	1.387127E-16	3.540605E-17
3.700000E+03	1.501886E-16	3.755050E-17
3.710000E+03	1.628524E-16	3.999240E-17
3.720000E+03	1.768152E-16	4.275885E-17
3.730000E+03	1.921545E-16	4.586731E-17
3.740000E+03	2.089867E-16	4.934299E-17
3.750000E+03	2.274337E-16	5.321073E-17
3.760000E+03	2.475894E-16	5.748710E-17
3.770000E+03	2.695605E-16	6.219029E-17
3.780000E+03	2.934516E-16	6.733677E-17
3.790000E+03	3.193632E-16	7.294101E-17
3.800000E+03	3.473888E-16	7.901521E-17
3.810000E+03	3.776124E-16	8.556901E-17
3.820000E+03	4.101320E-16	9.261509E-17
3.830000E+03	4.449500E-16	1.001449E-16
3.840000E+03	4.821557E-16	1.081698E-16
3.850000E+03	5.216975E-16	1.166707E-16
3.860000E+03	5.636189E-16	1.256505E-16
3.870000E+03	6.077960E-16	1.350758E-16
3.880000E+03	6.542112E-16	1.449382E-16
3.890000E+03	7.026977E-16	1.551971E-16
3.900000E+03	7.530364E-16	1.658011E-16
3.910000E+03	8.051024E-16	1.767206E-16
3.920000E+03	8.585967E-16	1.878879E-16
3.930000E+03	9.131715E-16	1.992252E-16
3.940000E+03	9.686064E-16	2.106828E-16
3.950000E+03	1.024435E-15	2.221574E-16
3.960000E+03	1.080403E-15	2.335918E-16
3.970000E+03	1.136003E-15	2.448748E-16
3.980000E+03	1.190916E-15	2.559358E-16
3.990000E+03	1.244777E-15	2.666944E-16
4.000000E+03	1.297248E-15	2.770767E-16
4.010000E+03	1.348038E-15	2.870181E-16
4.020000E+03	1.396836E-15	2.964492E-16
4.030000E+03	1.443553E-15	3.053468E-16
4.040000E+03	1.488108E-15	3.136872E-16
4.050000E+03	1.530509E-15	3.214630E-16
4.060000E+03	1.570765E-15	3.286641E-16
4.070000E+03	1.609140E-15	3.353295E-16
4.080000E+03	1.645888E-15	3.414922E-16
4.090000E+03	1.681233E-15	3.471747E-16
4.100000E+03	1.715616E-15	3.524395E-16
4.110000E+03	1.749412E-15	3.573300E-16
4.120000E+03	1.782903E-15	3.618653E-16
4.130000E+03	1.816442E-15	3.660727E-16
4.140000E+03	1.850438E-15	3.699836E-16
4.150000E+03	1.885158E-15	3.735931E-16
4.160000E+03	1.920620E-15	3.768376E-16
4.170000E+03	1.957255E-15	3.797248E-16
4.180000E+03	1.994853E-15	3.821254E-16
4.190000E+03	2.033622E-15	3.839799E-16
4.200000E+03	2.073424E-15	3.851483E-16
4.210000E+03	2.114266E-15	3.855054E-16
4.220000E+03	2.155816E-15	3.848497E-16
4.230000E+03	2.198117E-15	3.830353E-16
4.240000E+03	2.240891E-15	3.798463E-16
4.250000E+03	2.283960E-15	3.750742E-16
4.260000E+03	2.327154E-15	3.685042E-16
4.270000E+03	2.370321E-15	3.599203E-16
4.280000E+03	2.413335E-15	3.491124E-16
4.290000E+03	2.456099E-15	3.358858E-16
4.300000E+03	2.498541E-15	3.200748E-16
4.310000E+03	2.540500E-15	3.015531E-16
4.320000E+03	2.582166E-15	2.803274E-16
4.330000E+03	2.623285E-15	2.565109E-16
4.340000E+03	2.664066E-15	2.305517E-16
4.350000E+03	2.704147E-15	2.033622E-16
4.360000E+03	2.743880E-15	1.768620E-16
4.370000E+03	2.783062E-15	1.545406E-16
4.380000E+03	2.821913E-15	1.418758E-16
4.390000E+03	2.860563E-15	1.441735E-16
4.400000E+03	2.899618E-15	1.619328E-16
4.410000E+03	2.939796E-15	1.906869E-16
4.420000E+03	2.981794E-15	2.254765E-16
4.430000E+03	3.026415E-15	2.630239E-16
4.440000E+03	3.074480E-15	3.015213E-16
4.450000E+03	3.126371E-15	3.400065E-16
4.460000E+03	3.182334E-15	3.779907E-16
4.470000E+03	3.242417E-15	4.152325E-16
4.480000E+03	3.306030E-15	4.515547E-16
4.490000E+03	3.372307E-15	4.868079E-16
4.500000E+03	3.439979E-15	5.208112E-16
4.510000E+03	3.507417E-15	5.533289E-16
4.520000E+03	3.572845E-15	5.840908E-16
4.530000E+03	3.634041E-15	6.127365E-16
4.540000E+03	3.688741E-15	6.388788E-16
4.550000E+03	3.735230E-15	6.622122E-16
4.560000E+03	3.771639E-15	6.823994E-16
4.570000E+03	3.796499E-15	6.991734E-16
4.580000E+03	3.809276E-15	7.124442E-16
4.590000E+03	3.809411E-15	7.221283E-16
4.600000E+03	3.797469E-15	7.283670E-16
4.610000E+03	3.773948E-15	7.313022E-16
4.620000E+03	3.740188E-15	7.312511E-16
4.630000E+03	3.697694E-15	7.285739E-16
4.640000E+03	3.648151E-15	7.236745E-16
4.650000E+03	3.593178E-15	7.169486E-16
4.660000E+03	3.534624E-15	7.088394E-16
4.670000E+03	3.474080E-15	6.997385E-16
4.680000E+03	3.412958E-15	6.899992E-16
4.690000E+03	3.352342E-15	6.799036E-16
4.700000E+03	3.293339E-15	6.697336E-16
4.710000E+03	3.236714E-15	6.596967E-16
4.720000E+03	3.182926E-15	6.499311E-16
4.730000E+03	3.132488E-15	6.405815E-16
4.740000E+03	3.085657E-15	6.317342E-16
4.750000E+03	3.042463E-15	6.234251E-16
4.760000E+03	3.002963E-15	6.156906E-16
4.770000E+03	2.967349E-15	6.085914E-16
4.780000E+03	2.935340E-15	6.020880E-16
4.790000E+03	2.906829E-15	5.961739E-16
4.800000E+03	2.881776E-15	5.908537E-16
4.810000E+03	2.860011E-15	5.861036E-16
4.820000E+03	2.841243E-15	5.818734E-16
4.830000E+03	2.825260E-15	5.781280E-16
4.840000E+03	2.811924E-15	5.748459E-16
4.850000E+03	2.800977E-15	5.719809E-16
4.860000E+03	2.792046E-15	5.694626E-16
4.870000E+03	2.784926E-15	5.672550E-16
4.880000E+03	2.779202E-15	5.652795E-16
4.890000E+03	2.774631E-15	5.634922E-16
4.900000E+03	2.770766E-15	5.618092E-16
4.910000E+03	2.767344E-15	5.601837E-16
4.920000E+03	2.763924E-15	5.585334E-16
4.930000E+03	2.760271E-15	5.568188E-16
4.940000E+03	2.756017E-15	5.549729E-16
4.950000E+03	2.751042E-15	5.529796E-16
4.960000E+03	2.745135E-15	5.508043E-16
4.970000E+03	2.738381E-15	5.484711E-16
4.980000E+03	2.730808E-15	5.459922E-16
4.990000E+03	2.722754E-15	5.434407E-16
5.000000E+03	2.714498E-15	5.408767E-16
5.010000E+03	2.706601E-15	5.384146E-16
5.020000E+03	2.699603E-15	5.361635E-16
5.030000E+03	2.693993E-15	5.342200E-16
5.040000E+03	2.690336E-15	5.326948E-16
5.050000E+03	2.689230E-15	5.317032E-16
5.060000E+03	2.691096E-15	5.313234E-16
5.070000E+03	2.696143E-15	5.315909E-16
5.080000E+03	2.704605E-15	5.325444E-16
5.090000E+03	2.716385E-15	5.341560E-16
5.100000E+03	2.731396E-15	5.363981E-16
5.110000E+03	2.749309E-15	5.391942E-16
5.120000E+03	2.769570E-15	5.424220E-16
5.130000E+03	2.791594E-15	5.459514E-16
5.140000E+03	2.814886E-15	5.496676E-16
5.150000E+03	2.838540E-15	5.533735E-16
5.160000E+03	2.861798E-15	5.568991E-16
5.170000E+03	2.884000E-15	5.600902E-16
5.180000E+03	2.904430E-15	5.627798E-16
5.190000E+03	2.922434E-15	5.648096E-16
5.200000E+03	2.937348E-15	5.660169E-16
5.210000E+03	2.948790E-15	5.662907E-16
5.220000E+03	2.956309E-15	5.655035E-16
5.230000E+03	2.959754E-15	5.635822E-16
5.240000E+03	2.959004E-15	5.604560E-16
5.250000E+03	2.953956E-15	5.560550E-16
5.260000E+03	2.944889E-15	5.503774E-16
5.270000E+03	2.931805E-15	5.433660E-16
5.280000E+03	2.914961E-15	5.350088E-16
5.290000E+03	2.894761E-15	5.253170E-16
5.300000E+03	2.871644E-15	5.143040E-16
5.310000E+03	2.845716E-15	5.019207E-16
5.320000E+03	2.817622E-15	4.882108E-16
5.330000E+03	2.787560E-15	4.731369E-16
5.340000E+03	2.755974E-15	4.567025E-16
5.350000E+03	2.723192E-15	4.388906E-16
5.360000E+03	2.689501E-15	4.196788E-16
5.370000E+03	2.655058E-15	3.990289E-16
5.380000E+03	2.620195E-15	3.769391E-16
5.390000E+03	2.584838E-15	3.533643E-16
5.400000E+03	2.549058E-15	3.283109E-16
5.410000E+03	2.512656E-15	3.017979E-16
5.420000E+03	2.475548E-15	2.739356E-16
5.430000E+03	2.437222E-15	2.449087E-16
5.440000E+03	2.397365E-15	2.151255E-16
5.450000E+03	2.355288E-15	1.852904E-16
5.460000E+03	2.310489E-15	1.566902E-16
5.470000E+03	2.262411E-15	1.315375E-16
5.480000E+03	2.210596E-15	1.132859E-16
5.490000E+03	2.154773E-15	1.057414E-16
5.500000E+03	2.094899E-15	1.098540E-16
5.510000E+03	2.031453E-15	1.221594E-16
5.520000E+03	1.964991E-15	1.379631E-16
5.530000E+03	1.896263E-15	1.539936E-16
5.540000E+03	1.826312E-15	1.685345E-16
5.550000E+03	1.756017E-15	1.808218E-16
5.560000E+03	1.686492E-15	1.906557E-16
5.570000E+03	1.618611E-15	1.981138E-16
5.580000E+03	1.553391E-15	2.034577E-16
5.590000E+03	1.491604E-15	2.070117E-16
5.600000E+03	1.433921E-15	2.091293E-16
5.610000E+03	1.381027E-15	2.101813E-16
5.620000E+03	1.333349E-15	2.104987E-16
5.630000E+03	1.291248E-15	2.103864E-16
5.640000E+03	1.254978E-15	2.101118E-16
5.650000E+03	1.224703E-15	2.099036E-16
5.660000E+03	1.200512E-15	2.099526E-16
5.670000E+03	1.182430E-15	2.104153E-16
5.680000E+03	1.170468E-15	2.114236E-16
5.690000E+03	1.164489E-15	2.130626E-16
5.700000E+03	1.164467E-15	2.154193E-16
5.710000E+03	1.170232E-15	2.185398E-16
5.720000E+03	1.181620E-15	2.224574E-16
5.730000E+03	1.198462E-15	2.271933E-16
5.740000E+03	1.220434E-15	2.327301E-16
5.750000E+03	1.247302E-15	2.390590E-16
5.760000E+03	1.278654E-15	2.461308E-16
5.770000E+03	1.314076E-15	2.538901E-16
5.780000E+03	1.352949E-15	2.622373E-16
5.790000E+03	1.394723E-15	2.710815E-16
5.800000E+03	1.438681E-15	2.802963E-16
5.810000E+03	1.483936E-15	2.897183E-16
5.820000E+03	1.529711E-15	2.992026E-16
5.830000E+03	1.575055E-15	3.085675E-16
5.840000E+03	1.619102E-15	3.176450E-16
5.850000E+03	1.660917E-15	3.262507E-16
5.860000E+03	1.699673E-15	3.342196E-16
5.870000E+03	1.734695E-15	3.414149E-16
5.880000E+03	1.765330E-15	3.477039E-16
5.890000E+03	1.791126E-15	3.529936E-16
5.900000E+03	1.811848E-15	3.572355E-16
5.910000E+03	1.827319E-15	3.603948E-16
5.920000E+03	1.837638E-15	3.624933E-16
5.930000E+03	1.842950E-15	3.635642E-16
5.940000E+03	1.843656E-15	3.636928E-16
5.950000E+03	1.840169E-15	3.629680E-16
5.960000E+03	1.833070E-15	3.615117E-16
5.970000E+03	1.823085E-15	3.594735E-16
5.980000E+03	1.810951E-15	3.570045E-16
5.990000E+03	1.797403E-15	3.542534E-16
6.000000E+03	1.783267E-15	3.513853E-16
6.010000E+03	1.769443E-15	3.485785E-16
6.020000E+03	1.756784E-15	3.460007E-16
6.030000E+03	1.746090E-15	3.438085E-16
6.040000E+03	1.738265E-15	3.421779E-16
6.050000E+03	1.734099E-15	3.412622E-16
6.060000E+03	1.734486E-15	3.412343E-16
6.070000E+03	1.740208E-15	3.422452E-16
6.080000E+03	1.752155E-15	3.444666E-16
6.090000E+03	1.771167E-15	3.480593E-16
6.100000E+03	1.798029E-15	3.531730E-16
6.110000E+03	1.833628E-15	3.599760E-16
6.120000E+03	1.878721E-15	3.686097E-16
6.130000E+03	1.934190E-15	3.792381E-16
6.140000E+03	2.000540E-15	3.919488E-16
6.150000E+03	2.078501E-15	4.068698E-16
6.160000E+03	2.168287E-15	4.240247E-16
6.170000E+03	2.269935E-15	4.433979E-16
6.180000E+03	2.383239E-15	4.649204E-16
6.190000E+03	2.507208E-15	4.883644E-16
6.200000E+03	2.640388E-15	5.134053E-16
6.210000E+03	2.780820E-15	5.396137E-16
6.220000E+03	2.925506E-15	5.663522E-16
6.230000E+03	3.071009E-15	5.928936E-16
6.240000E+03	3.213220E-15	6.183773E-16
6.250000E+03	3.347515E-15	6.418434E-16
6.260000E+03	3.469316E-15	6.623441E-16
6.270000E+03	3.574107E-15	6.789509E-16
6.280000E+03	3.657753E-15	6.908201E-16
6.290000E+03	3.717276E-15	6.973445E-16
6.300000E+03	3.750316E-15	6.980540E-16
6.310000E+03	3.756110E-15	6.928012E-16
6.320000E+03	3.735079E-15	6.816822E-16
6.330000E+03	3.688762E-15	6.650208E-16
6.340000E+03	3.620102E-15	6.434142E-16
6.350000E+03	3.532380E-15	6.175296E-16
6.360000E+03	3.429724E-15	5.881860E-16
6.370000E+03	3.316339E-15	5.562056E-16
6.380000E+03	3.196343E-15	5.223759E-16
6.390000E+03	3.073441E-15	4.873870E-16
6.400000E+03	2.951156E-15	4.518617E-16
6.410000E+03	2.832038E-15	4.162276E-16
6.420000E+03	2.718389E-15	3.808325E-16
6.430000E+03	2.611528E-15	3.458416E-16
6.440000E+03	2.512458E-15	3.113480E-16
6.450000E+03	2.421566E-15	2.773485E-16
6.460000E+03	2.338785E-15	2.437970E-16
6.470000E+03	2.263679E-15	2.106592E-16
6.480000E+03	2.195526E-15	1.779963E-16
6.490000E+03	2.133419E-15	1.461093E-16
6.500000E+03	2.076354E-15	1.158332E-16
6.510000E+03	2.023265E-15	8.920019E-17
6.520000E+03	1.973358E-15	7.071019E-17
6.530000E+03	1.925765E-15	6.676054E-17
6.540000E+03	1.879829E-15	7.768010E-17
6.550000E+03	1.835053E-15	9.620013E-17
6.560000E+03	1.791126E-15	1.165142E-16
6.570000E+03	1.747911E-15	1.359897E-16
6.580000E+03	1.705415E-15	1.535909E-16
6.590000E+03	1.663742E-15	1.689674E-16
6.600000E+03	1.623041E-15	1.820790E-16
6.610000E+03	1.583476E-15	1.930338E-16
6.620000E+03	1.545250E-15	2.020169E-16
6.630000E+03	1.508387E-15	2.092235E-16
6.640000E+03	1.473037E-15	2.148748E-16
6.650000E+03	1.439316E-15	2.191867E-16
6.660000E+03	1.407214E-15	2.223470E-16
6.670000E+03	1.376748E-15	2.245335E-16
6.680000E+03	1.347917E-15	2.259057E-16
6.690000E+03	1.320702E-15	2.266045E-16
6.700000E+03	1.295072E-15	2.267532E-16
6.710000E+03	1.271028E-15	2.264666E-16
6.720000E+03	1.248438E-15	2.258222E-16
6.730000E+03	1.227335E-15	2.249146E-16
6.740000E+03	1.207624E-15	2.238047E-16
6.750000E+03	1.189256E-15	2.225513E-16
6.760000E+03	1.172223E-15	2.212126E-16
6.770000E+03	1.156409E-15	2.198181E-16
6.780000E+03	1.141862E-15	2.184214E-16
6.790000E+03	1.128523E-15	2.170499E-16
6.800000E+03	1.116384E-15	2.157350E-16
6.810000E+03	1.105446E-15	2.145054E-16
6.820000E+03	1.095761E-15	2.133949E-16
6.830000E+03	1.087313E-15	2.124213E-16
6.840000E+03	1.080132E-15	2.116081E-16
6.850000E+03	1.074256E-15	2.109774E-16
6.860000E+03	1.069728E-15	2.105502E-16
6.870000E+03	1.066631E-15	2.103537E-16
6.880000E+03	1.064979E-15	2.103999E-16
6.890000E+03	1.064827E-15	2.107074E-16
6.900000E+03	1.066232E-15	2.112942E-16
6.910000E+03	1.069257E-15	2.121785E-16
6.920000E+03	1.074006E-15	2.133857E-16
6.930000E+03	1.080517E-15	2.149280E-16
6.940000E+03	1.088875E-15	2.168255E-16
6.950000E+03	1.099175E-15	2.191003E-16
6.960000E+03	1.111562E-15	2.217843E-16
6.970000E+03	1.126126E-15	2.248973E-16
6.980000E+03	1.142968E-15	2.284620E-16
6.990000E+03	1.162328E-15	2.325279E-16
7.000000E+03	1.184391E-15	2.371338E-16
7.010000E+03	1.209281E-15	2.423057E-16
7.020000E+03	1.237302E-15	2.481064E-16
7.030000E+03	1.268656E-15	2.545778E-16
7.040000E+03	1.303557E-15	2.617638E-16
7.050000E+03	1.342406E-15	2.697464E-16
7.060000E+03	1.385337E-15	2.785541E-16
7.070000E+03	1.432658E-15	2.882499E-16
7.080000E+03	1.484658E-15	2.988935E-16
7.090000E+03	1.541441E-15	3.105069E-16
7.100000E+03	1.603253E-15	3.231410E-16
7.110000E+03	1.670103E-15	3.367990E-16
7.120000E+03	1.741942E-15	3.514715E-16
7.130000E+03	1.818577E-15	3.671206E-16
7.140000E+03	1.899644E-15	3.836735E-16
7.150000E+03	1.984582E-15	4.010167E-16
7.160000E+03	2.072604E-15	4.189913E-16
7.170000E+03	2.162762E-15	4.374052E-16
7.180000E+03	2.253650E-15	4.559729E-16
7.190000E+03	2.343855E-15	4.744073E-16
7.200000E+03	2.431789E-15	4.923853E-16
7.210000E+03	2.515474E-15	5.095044E-16
7.220000E+03	2.593203E-15	5.254166E-16
7.230000E+03	2.662936E-15	5.397059E-16
7.240000E+03	2.723002E-15	5.520310E-16
7.250000E+03	2.771935E-15	5.620919E-16
7.260000E+03	2.808256E-15	5.695860E-16
7.270000E+03	2.831113E-15	5.743378E-16
7.280000E+03	2.839941E-15	5.762308E-16
7.290000E+03	2.834578E-15	5.752301E-16
7.300000E+03	2.815259E-15	5.713819E-16
7.310000E+03	2.782583E-15	5.648074E-16
7.320000E+03	2.737473E-15	5.556933E-16
7.330000E+03	2.681020E-15	5.442613E-16
7.340000E+03	2.614797E-15	5.308316E-16
7.350000E+03	2.540129E-15	5.156746E-16
7.360000E+03	2.458694E-15	4.991320E-16
7.370000E+03	2.372082E-15	4.815282E-16
7.380000E+03	2.281763E-15	4.631637E-16
7.390000E+03	2.189374E-15	4.443725E-16
7.400000E+03	2.096121E-15	4.254010E-16
7.410000E+03	2.003315E-15	4.065170E-16
7.420000E+03	1.912045E-15	3.879426E-16
7.430000E+03	1.823248E-15	3.698691E-16
7.440000E+03	1.737647E-15	3.524439E-16
7.450000E+03	1.655949E-15	3.358109E-16
7.460000E+03	1.578657E-15	3.200719E-16
7.470000E+03	1.506088E-15	3.052914E-16
7.480000E+03	1.438561E-15	2.915332E-16
7.490000E+03	1.376233E-15	2.788285E-16
7.500000E+03	1.319126E-15	2.671808E-16
7.510000E+03	1.267287E-15	2.565983E-16
7.520000E+03	1.220648E-15	2.470663E-16
7.530000E+03	1.179091E-15	2.385593E-16
7.540000E+03	1.142418E-15	2.310354E-16
7.550000E+03	1.110439E-15	2.244551E-16
7.560000E+03	1.083018E-15	2.187890E-16
7.570000E+03	1.059839E-15	2.139716E-16
7.580000E+03	1.040650E-15	2.099503E-16
7.590000E+03	1.025225E-15	2.066777E-16
7.600000E+03	1.013288E-15	2.040964E-16
7.610000E+03	1.004519E-15	2.021400E-16
7.620000E+03	9.986674E-16	2.007556E-16
7.630000E+03	9.954013E-16	1.998742E-16
7.640000E+03	9.944596E-16	1.994404E-16
7.650000E+03	9.955052E-16	1.993830E-16
7.660000E+03	9.982730E-16	1.996450E-16
7.670000E+03	1.002463E-15	2.001619E-16
7.680000E+03	1.007743E-15	2.008620E-16
7.690000E+03	1.013825E-15	2.016818E-16
7.700000E+03	1.020471E-15	2.025670E-16
7.710000E+03	1.027385E-15	2.034513E-16
7.720000E+03	1.034369E-15	2.042865E-16
7.730000E+03	1.041215E-15	2.050215E-16
7.740000E+03	1.047708E-15	2.056028E-16
7.750000E+03	1.053708E-15	2.059900E-16
7.760000E+03	1.059156E-15	2.061571E-16
