#wls	flux	fluxerr
1.600000E+03	1.116736E-16	1.862579E-16
1.640000E+03	1.123225E-16	1.870792E-16
1.680000E+03	1.129885E-16	1.878936E-16
1.720000E+03	1.136687E-16	1.886919E-16
1.760000E+03	1.143597E-16	1.894640E-16
1.800000E+03	1.150576E-16	1.901981E-16
1.840000E+03	1.157772E-16	1.909135E-16
1.880000E+03	1.164937E-16	1.915630E-16
1.920000E+03	1.172204E-16	1.921622E-16
1.960000E+03	1.179304E-16	1.926603E-16
2.000000E+03	1.186352E-16	1.930689E-16
2.040000E+03	1.193253E-16	1.933650E-16
2.080000E+03	1.199702E-16	1.934918E-16
2.120000E+03	1.205774E-16	1.934541E-16
2.160000E+03	1.211529E-16	1.932538E-16
2.200000E+03	1.216420E-16	1.927964E-16
2.240000E+03	1.220472E-16	1.920800E-16
2.280000E+03	1.223693E-16	1.911003E-16
2.320000E+03	1.225680E-16	1.897902E-16
2.360000E+03	1.226211E-16	1.881134E-16
2.400000E+03	1.225238E-16	1.860630E-16
2.440000E+03	1.222315E-16	1.835744E-16
2.480000E+03	1.217369E-16	1.806437E-16
2.520000E+03	1.210128E-16	1.772408E-16
2.560000E+03	1.200321E-16	1.733413E-16
2.600000E+03	1.187686E-16	1.689276E-16
2.640000E+03	1.171986E-16	1.639910E-16
2.680000E+03	1.153181E-16	1.585562E-16
2.720000E+03	1.130938E-16	1.526117E-16
2.760000E+03	1.105166E-16	1.461843E-16
2.800000E+03	1.076007E-16	1.393342E-16
2.840000E+03	1.043536E-16	1.321127E-16
2.880000E+03	1.007801E-16	1.245673E-16
2.920000E+03	9.694025E-17	1.168104E-16
2.960000E+03	9.285214E-17	1.088964E-16
3.000000E+03	8.860019E-17	1.009507E-16
3.010000E+03	8.752490E-17	9.897663E-17
3.020000E+03	8.642988E-17	9.699112E-17
3.030000E+03	8.533935E-17	9.502169E-17
3.040000E+03	8.425424E-17	9.306924E-17
3.050000E+03	8.315398E-17	9.111109E-17
3.060000E+03	8.206184E-17	8.917290E-17
3.070000E+03	8.096844E-17	8.724435E-17
3.080000E+03	7.987542E-17	8.532718E-17
3.090000E+03	7.879445E-17	8.343373E-17
3.100000E+03	7.771682E-17	8.155450E-17
3.110000E+03	7.664421E-17	7.969113E-17
3.120000E+03	7.557834E-17	7.784524E-17
3.130000E+03	7.453031E-17	7.602794E-17
3.140000E+03	7.349218E-17	7.423068E-17
3.150000E+03	7.247474E-17	7.246396E-17
3.160000E+03	7.146154E-17	7.071089E-17
3.170000E+03	7.047228E-17	6.899065E-17
3.180000E+03	6.949973E-17	6.729551E-17
3.190000E+03	6.855411E-17	6.563478E-17
3.200000E+03	6.762853E-17	6.400111E-17
3.210000E+03	6.672479E-17	6.239561E-17
3.220000E+03	6.584475E-17	6.081932E-17
3.230000E+03	6.499809E-17	5.928037E-17
3.240000E+03	6.417854E-17	5.777206E-17
3.250000E+03	6.338798E-17	5.629520E-17
3.260000E+03	6.263577E-17	5.485707E-17
3.270000E+03	6.191612E-17	5.345140E-17
3.280000E+03	6.123096E-17	5.207877E-17
3.290000E+03	6.058943E-17	5.074566E-17
3.300000E+03	5.998622E-17	4.944614E-17
3.310000E+03	5.942340E-17	4.818058E-17
3.320000E+03	5.890315E-17	4.694923E-17
3.330000E+03	5.843450E-17	4.575759E-17
3.340000E+03	5.801283E-17	4.460015E-17
3.350000E+03	5.764725E-17	4.348196E-17
3.360000E+03	5.732703E-17	4.239282E-17
3.370000E+03	5.706815E-17	4.134252E-17
3.380000E+03	5.687339E-17	4.033047E-17
3.390000E+03	5.673298E-17	3.934714E-17
3.400000E+03	5.666324E-17	3.840132E-17
3.410000E+03	5.666780E-17	3.749228E-17
3.420000E+03	5.673801E-17	3.661113E-17
3.430000E+03	5.689104E-17	3.576575E-17
3.440000E+03	5.712547E-17	3.495148E-17
3.450000E+03	5.745307E-17	3.417163E-17
3.460000E+03	5.787358E-17	3.342174E-17
3.470000E+03	5.839373E-17	3.270134E-17
3.480000E+03	5.902102E-17	3.200999E-17
3.490000E+03	5.977033E-17	3.135066E-17
3.500000E+03	6.064473E-17	3.071947E-17
3.510000E+03	6.165487E-17	3.011622E-17
3.520000E+03	6.281945E-17	2.954401E-17
3.530000E+03	6.414552E-17	2.899975E-17
3.540000E+03	6.564849E-17	2.848396E-17
3.550000E+03	6.735292E-17	2.800053E-17
3.560000E+03	6.927189E-17	2.754790E-17
3.570000E+03	7.142803E-17	2.712833E-17
3.580000E+03	7.385472E-17	2.674778E-17
3.590000E+03	7.656601E-17	2.640497E-17
3.600000E+03	7.961053E-17	2.611117E-17
3.610000E+03	8.302616E-17	2.587365E-17
3.620000E+03	8.683723E-17	2.569623E-17
3.630000E+03	9.110594E-17	2.559524E-17
3.640000E+03	9.588136E-17	2.558348E-17
3.650000E+03	1.011947E-16	2.567024E-17
3.660000E+03	1.071173E-16	2.587655E-17
3.670000E+03	1.136918E-16	2.621655E-17
3.680000E+03	1.209700E-16	2.670732E-17
3.690000E+03	1.290160E-16	2.736832E-17
3.700000E+03	1.378694E-16	2.821277E-17
3.710000E+03	1.475808E-16	2.925490E-17
3.720000E+03	1.582012E-16	3.050678E-17
3.730000E+03	1.697991E-16	3.198117E-17
3.740000E+03	1.824141E-16	3.368225E-17
3.750000E+03	1.961029E-16	3.561460E-17
3.760000E+03	2.109455E-16	3.778407E-17
3.770000E+03	2.269655E-16	4.018393E-17
3.780000E+03	2.442702E-16	4.282041E-17
3.790000E+03	2.629070E-16	4.568754E-17
3.800000E+03	2.829704E-16	4.878676E-17
3.810000E+03	3.044755E-16	5.210547E-17
3.820000E+03	3.275401E-16	5.564902E-17
3.830000E+03	3.521925E-16	5.940840E-17
3.840000E+03	3.785120E-16	6.338461E-17
3.850000E+03	4.064601E-16	6.756094E-17
3.860000E+03	4.361188E-16	7.194318E-17
3.870000E+03	4.674391E-16	7.651762E-17
3.880000E+03	5.003786E-16	8.127383E-17
3.890000E+03	5.348625E-16	8.619783E-17
3.900000E+03	5.708338E-16	9.127939E-17
3.910000E+03	6.080511E-16	9.647904E-17
3.920000E+03	6.464470E-16	1.017848E-16
3.930000E+03	6.857710E-16	1.071543E-16
3.940000E+03	7.258660E-16	1.125586E-16
3.950000E+03	7.663677E-16	1.179353E-16
3.960000E+03	8.070785E-16	1.232476E-16
3.970000E+03	8.477921E-16	1.284590E-16
3.980000E+03	8.881362E-16	1.335108E-16
3.990000E+03	9.277817E-16	1.383556E-16
4.000000E+03	9.663823E-16	1.429489E-16
4.010000E+03	1.003592E-15	1.472511E-16
4.020000E+03	1.039088E-15	1.512292E-16
4.030000E+03	1.072702E-15	1.548731E-16
4.040000E+03	1.104087E-15	1.581454E-16
4.050000E+03	1.133384E-15	1.610741E-16
4.060000E+03	1.160507E-15	1.636484E-16
4.070000E+03	1.185897E-15	1.659243E-16
4.080000E+03	1.209848E-15	1.679279E-16
4.090000E+03	1.232853E-15	1.697066E-16
4.100000E+03	1.255474E-15	1.713113E-16
4.110000E+03	1.278289E-15	1.727930E-16
4.120000E+03	1.301844E-15	1.741989E-16
4.130000E+03	1.326610E-15	1.755687E-16
4.140000E+03	1.352950E-15	1.769311E-16
4.150000E+03	1.381104E-15	1.783001E-16
4.160000E+03	1.411186E-15	1.796732E-16
4.170000E+03	1.443309E-15	1.810455E-16
4.180000E+03	1.477148E-15	1.823532E-16
4.190000E+03	1.512638E-15	1.835619E-16
4.200000E+03	1.549537E-15	1.846104E-16
4.210000E+03	1.587546E-15	1.854267E-16
4.220000E+03	1.626311E-15	1.859295E-16
4.230000E+03	1.665430E-15	1.860305E-16
4.240000E+03	1.704462E-15	1.856376E-16
4.250000E+03	1.742957E-15	1.846598E-16
4.260000E+03	1.780494E-15	1.830126E-16
4.270000E+03	1.816597E-15	1.806094E-16
4.280000E+03	1.851343E-15	1.774201E-16
4.290000E+03	1.884566E-15	1.733883E-16
4.300000E+03	1.916261E-15	1.684733E-16
4.310000E+03	1.946845E-15	1.626726E-16
4.320000E+03	1.976790E-15	1.559995E-16
4.330000E+03	2.006071E-15	1.484693E-16
4.340000E+03	2.034946E-15	1.402209E-16
4.350000E+03	2.063150E-15	1.315509E-16
4.360000E+03	2.090638E-15	1.231090E-16
4.370000E+03	2.116707E-15	1.160034E-16
4.380000E+03	2.140532E-15	1.118960E-16
4.390000E+03	2.161649E-15	1.126340E-16
4.400000E+03	2.180525E-15	1.183960E-16
4.410000E+03	2.198763E-15	1.276865E-16
4.420000E+03	2.218247E-15	1.390637E-16
4.430000E+03	2.240873E-15	1.515508E-16
4.440000E+03	2.268882E-15	1.646600E-16
4.450000E+03	2.304200E-15	1.782226E-16
4.460000E+03	2.348370E-15	1.922557E-16
4.470000E+03	2.402161E-15	2.068339E-16
4.480000E+03	2.466016E-15	2.220621E-16
4.490000E+03	2.538706E-15	2.379126E-16
4.500000E+03	2.618268E-15	2.542711E-16
4.510000E+03	2.702109E-15	2.709302E-16
4.520000E+03	2.786083E-15	2.874847E-16
4.530000E+03	2.866098E-15	3.034867E-16
4.540000E+03	2.937613E-15	3.184000E-16
4.550000E+03	2.997090E-15	3.317643E-16
4.560000E+03	3.040997E-15	3.431016E-16
4.570000E+03	3.067535E-15	3.521178E-16
4.580000E+03	3.075760E-15	3.586202E-16
4.590000E+03	3.066410E-15	3.626216E-16
4.600000E+03	3.041111E-15	3.642587E-16
4.610000E+03	3.002127E-15	3.637645E-16
4.620000E+03	2.952848E-15	3.615317E-16
4.630000E+03	2.895861E-15	3.578770E-16
4.640000E+03	2.834849E-15	3.532703E-16
4.650000E+03	2.772207E-15	3.480363E-16
4.660000E+03	2.710440E-15	3.425228E-16
4.670000E+03	2.651152E-15	3.369678E-16
4.680000E+03	2.595770E-15	3.315877E-16
4.690000E+03	2.544873E-15	3.264904E-16
4.700000E+03	2.499130E-15	3.217915E-16
4.710000E+03	2.458212E-15	3.174754E-16
4.720000E+03	2.421899E-15	3.135363E-16
4.730000E+03	2.389988E-15	3.099664E-16
4.740000E+03	2.362055E-15	3.067259E-16
4.750000E+03	2.337534E-15	3.037536E-16
4.760000E+03	2.316221E-15	3.010327E-16
4.770000E+03	2.297683E-15	2.985147E-16
4.780000E+03	2.281857E-15	2.961984E-16
4.790000E+03	2.268587E-15	2.940689E-16
4.800000E+03	2.257602E-15	2.920960E-16
4.810000E+03	2.248930E-15	2.902872E-16
4.820000E+03	2.242305E-15	2.886097E-16
4.830000E+03	2.237731E-15	2.870650E-16
4.840000E+03	2.235069E-15	2.856336E-16
4.850000E+03	2.234042E-15	2.842772E-16
4.860000E+03	2.234670E-15	2.829954E-16
4.870000E+03	2.236696E-15	2.817535E-16
4.880000E+03	2.240139E-15	2.805544E-16
4.890000E+03	2.244706E-15	2.793639E-16
4.900000E+03	2.250317E-15	2.781777E-16
4.910000E+03	2.256512E-15	2.769466E-16
4.920000E+03	2.262977E-15	2.756431E-16
4.930000E+03	2.269121E-15	2.742092E-16
4.940000E+03	2.274092E-15	2.725600E-16
4.950000E+03	2.277262E-15	2.706433E-16
4.960000E+03	2.277765E-15	2.683832E-16
4.970000E+03	2.275041E-15	2.657449E-16
4.980000E+03	2.269097E-15	2.627616E-16
4.990000E+03	2.259772E-15	2.594463E-16
5.000000E+03	2.247625E-15	2.558921E-16
5.010000E+03	2.233766E-15	2.522491E-16
5.020000E+03	2.219351E-15	2.486660E-16
5.030000E+03	2.205997E-15	2.453349E-16
5.040000E+03	2.195203E-15	2.424274E-16
5.050000E+03	2.188193E-15	2.400776E-16
5.060000E+03	2.186179E-15	2.384124E-16
5.070000E+03	2.189735E-15	2.374837E-16
5.080000E+03	2.199267E-15	2.373228E-16
5.090000E+03	2.214481E-15	2.378821E-16
5.100000E+03	2.234939E-15	2.390983E-16
5.110000E+03	2.259601E-15	2.408424E-16
5.120000E+03	2.287447E-15	2.429876E-16
5.130000E+03	2.317040E-15	2.453625E-16
5.140000E+03	2.347175E-15	2.478210E-16
5.150000E+03	2.376558E-15	2.502083E-16
5.160000E+03	2.403862E-15	2.523675E-16
5.170000E+03	2.428191E-15	2.541896E-16
5.180000E+03	2.448530E-15	2.555555E-16
5.190000E+03	2.464326E-15	2.563977E-16
5.200000E+03	2.474917E-15	2.566391E-16
5.210000E+03	2.480115E-15	2.562534E-16
5.220000E+03	2.479632E-15	2.552044E-16
5.230000E+03	2.473665E-15	2.535063E-16
5.240000E+03	2.462454E-15	2.511761E-16
5.250000E+03	2.446257E-15	2.482321E-16
5.260000E+03	2.425607E-15	2.447191E-16
5.270000E+03	2.401399E-15	2.407165E-16
5.280000E+03	2.373988E-15	2.362465E-16
5.290000E+03	2.343997E-15	2.313561E-16
5.300000E+03	2.312129E-15	2.260965E-16
5.310000E+03	2.278730E-15	2.204814E-16
5.320000E+03	2.244466E-15	2.145528E-16
5.330000E+03	2.209262E-15	2.082805E-16
5.340000E+03	2.173663E-15	2.016926E-16
5.350000E+03	2.137941E-15	1.947903E-16
5.360000E+03	2.102406E-15	1.875758E-16
5.370000E+03	2.067318E-15	1.800426E-16
5.380000E+03	2.033149E-15	1.721963E-16
5.390000E+03	2.000666E-15	1.640572E-16
5.400000E+03	1.970052E-15	1.555893E-16
5.410000E+03	1.942104E-15	1.468048E-16
5.420000E+03	1.916864E-15	1.376630E-16
5.430000E+03	1.894449E-15	1.281586E-16
5.440000E+03	1.874417E-15	1.183128E-16
5.450000E+03	1.856192E-15	1.082706E-16
5.460000E+03	1.838651E-15	9.838805E-17
5.470000E+03	1.820637E-15	8.942302E-17
5.480000E+03	1.800736E-15	8.266349E-17
5.490000E+03	1.777415E-15	7.979788E-17
5.500000E+03	1.749622E-15	8.160908E-17
5.510000E+03	1.716886E-15	8.645066E-17
5.520000E+03	1.678994E-15	9.241364E-17
5.530000E+03	1.636241E-15	9.820934E-17
5.540000E+03	1.589051E-15	1.031312E-16
5.550000E+03	1.538420E-15	1.068981E-16
5.560000E+03	1.485131E-15	1.094467E-16
5.570000E+03	1.430657E-15	1.108920E-16
5.580000E+03	1.376105E-15	1.113928E-16
5.590000E+03	1.322818E-15	1.111602E-16
5.600000E+03	1.271889E-15	1.103988E-16
5.610000E+03	1.224424E-15	1.093162E-16
5.620000E+03	1.181286E-15	1.080932E-16
5.630000E+03	1.143101E-15	1.068790E-16
5.640000E+03	1.110463E-15	1.058088E-16
5.650000E+03	1.083741E-15	1.049858E-16
5.660000E+03	1.063170E-15	1.044902E-16
5.670000E+03	1.048818E-15	1.043768E-16
5.680000E+03	1.040789E-15	1.046975E-16
5.690000E+03	1.038999E-15	1.054805E-16
5.700000E+03	1.043437E-15	1.067571E-16
5.710000E+03	1.053993E-15	1.085459E-16
5.720000E+03	1.070521E-15	1.108593E-16
5.730000E+03	1.092771E-15	1.136966E-16
5.740000E+03	1.120560E-15	1.170619E-16
5.750000E+03	1.153578E-15	1.209430E-16
5.760000E+03	1.191354E-15	1.253080E-16
5.770000E+03	1.233502E-15	1.301315E-16
5.780000E+03	1.279145E-15	1.353342E-16
5.790000E+03	1.327662E-15	1.408620E-16
5.800000E+03	1.377883E-15	1.466032E-16
5.810000E+03	1.428763E-15	1.524586E-16
5.820000E+03	1.478718E-15	1.582699E-16
5.830000E+03	1.526587E-15	1.639196E-16
5.840000E+03	1.570825E-15	1.692398E-16
5.850000E+03	1.610296E-15	1.740920E-16
5.860000E+03	1.644028E-15	1.783388E-16
5.870000E+03	1.671367E-15	1.818620E-16
5.880000E+03	1.691890E-15	1.845611E-16
5.890000E+03	1.705660E-15	1.863934E-16
5.900000E+03	1.712869E-15	1.873464E-16
5.910000E+03	1.713865E-15	1.874492E-16
5.920000E+03	1.708996E-15	1.867560E-16
5.930000E+03	1.698963E-15	1.853801E-16
5.940000E+03	1.684120E-15	1.834082E-16
5.950000E+03	1.665065E-15	1.809529E-16
5.960000E+03	1.642633E-15	1.781438E-16
5.970000E+03	1.617326E-15	1.750612E-16
5.980000E+03	1.589970E-15	1.718073E-16
5.990000E+03	1.561327E-15	1.684667E-16
6.000000E+03	1.532170E-15	1.651181E-16
6.010000E+03	1.503273E-15	1.618364E-16
6.020000E+03	1.475315E-15	1.586844E-16
6.030000E+03	1.449129E-15	1.557415E-16
6.040000E+03	1.425443E-15	1.530769E-16
6.050000E+03	1.404974E-15	1.507594E-16
6.060000E+03	1.388451E-15	1.488605E-16
6.070000E+03	1.376560E-15	1.474482E-16
6.080000E+03	1.370205E-15	1.466151E-16
6.090000E+03	1.370381E-15	1.464640E-16
6.100000E+03	1.377876E-15	1.470766E-16
6.110000E+03	1.394083E-15	1.485991E-16
6.120000E+03	1.420225E-15	1.511589E-16
6.130000E+03	1.457660E-15	1.548968E-16
6.140000E+03	1.508122E-15	1.599912E-16
6.150000E+03	1.573087E-15	1.665899E-16
6.160000E+03	1.654269E-15	1.748620E-16
6.170000E+03	1.753136E-15	1.849451E-16
6.180000E+03	1.870774E-15	1.969303E-16
6.190000E+03	2.007474E-15	2.108187E-16
6.200000E+03	2.162848E-15	2.265335E-16
6.210000E+03	2.334682E-15	2.438026E-16
6.220000E+03	2.519497E-15	2.622207E-16
6.230000E+03	2.712117E-15	2.812096E-16
6.240000E+03	2.905280E-15	2.999842E-16
6.250000E+03	3.090762E-15	3.176739E-16
6.260000E+03	3.260127E-15	3.334030E-16
6.270000E+03	3.404610E-15	3.462788E-16
6.280000E+03	3.516422E-15	3.555237E-16
6.290000E+03	3.590136E-15	3.606135E-16
6.300000E+03	3.621821E-15	3.611876E-16
6.310000E+03	3.610777E-15	3.572241E-16
6.320000E+03	3.558947E-15	3.489758E-16
6.330000E+03	3.470048E-15	3.368809E-16
6.340000E+03	3.350350E-15	3.216304E-16
6.350000E+03	3.206985E-15	3.039918E-16
6.360000E+03	3.048153E-15	2.848193E-16
6.370000E+03	2.881251E-15	2.648661E-16
6.380000E+03	2.712929E-15	2.447863E-16
6.390000E+03	2.549188E-15	2.251415E-16
6.400000E+03	2.394115E-15	2.062871E-16
6.410000E+03	2.251149E-15	1.884886E-16
6.420000E+03	2.122059E-15	1.718382E-16
6.430000E+03	2.008111E-15	1.563588E-16
6.440000E+03	1.909699E-15	1.419738E-16
6.450000E+03	1.826743E-15	1.285422E-16
6.460000E+03	1.758353E-15	1.158397E-16
6.470000E+03	1.703537E-15	1.036237E-16
6.480000E+03	1.660662E-15	9.163351E-17
6.490000E+03	1.627937E-15	7.970338E-17
6.500000E+03	1.602794E-15	6.791050E-17
6.510000E+03	1.582297E-15	5.699730E-17
6.520000E+03	1.563089E-15	4.906279E-17
6.530000E+03	1.541442E-15	4.763312E-17
6.540000E+03	1.515864E-15	5.321440E-17
6.550000E+03	1.487342E-15	6.192498E-17
6.560000E+03	1.457169E-15	7.096957E-17
6.570000E+03	1.426020E-15	7.911833E-17
6.580000E+03	1.394696E-15	8.598197E-17
6.590000E+03	1.363478E-15	9.151454E-17
6.600000E+03	1.332759E-15	9.583570E-17
6.610000E+03	1.302828E-15	9.912139E-17
6.620000E+03	1.273674E-15	1.015397E-16
6.630000E+03	1.245484E-15	1.032642E-16
6.640000E+03	1.218412E-15	1.044468E-16
6.650000E+03	1.192387E-15	1.051950E-16
6.660000E+03	1.167546E-15	1.056115E-16
6.670000E+03	1.143944E-15	1.057720E-16
6.680000E+03	1.121623E-15	1.057353E-16
6.690000E+03	1.100604E-15	1.055464E-16
6.700000E+03	1.080884E-15	1.052401E-16
6.710000E+03	1.062429E-15	1.048427E-16
6.720000E+03	1.045181E-15	1.043751E-16
6.730000E+03	1.029059E-15	1.038547E-16
6.740000E+03	1.013969E-15	1.032961E-16
6.750000E+03	9.998102E-16	1.027123E-16
6.760000E+03	9.864835E-16	1.021141E-16
6.770000E+03	9.739021E-16	1.015103E-16
6.780000E+03	9.619993E-16	1.009088E-16
6.790000E+03	9.507362E-16	1.003173E-16
6.800000E+03	9.400483E-16	9.973817E-17
6.810000E+03	9.300719E-16	9.919304E-17
6.820000E+03	9.207967E-16	9.868665E-17
6.830000E+03	9.122876E-16	9.823053E-17
6.840000E+03	9.045654E-16	9.783066E-17
6.850000E+03	8.978201E-16	9.751074E-17
6.860000E+03	8.920759E-16	9.727620E-17
6.870000E+03	8.874082E-16	9.713785E-17
6.880000E+03	8.838326E-16	9.710008E-17
6.890000E+03	8.815188E-16	9.718432E-17
6.900000E+03	8.804669E-16	9.739375E-17
6.910000E+03	8.806700E-16	9.773086E-17
6.920000E+03	8.822756E-16	9.821526E-17
6.930000E+03	8.852126E-16	9.884210E-17
6.940000E+03	8.896255E-16	9.963006E-17
6.950000E+03	8.954473E-16	1.005736E-16
6.960000E+03	9.028386E-16	1.016920E-16
6.970000E+03	9.117569E-16	1.029816E-16
6.980000E+03	9.224037E-16	1.044656E-16
6.990000E+03	9.347859E-16	1.061455E-16
7.000000E+03	9.491715E-16	1.080525E-16
7.010000E+03	9.656388E-16	1.101965E-16
7.020000E+03	9.844799E-16	1.126121E-16
7.030000E+03	1.006034E-15	1.153394E-16
7.040000E+03	1.030498E-15	1.184028E-16
7.050000E+03	1.058293E-15	1.218522E-16
7.060000E+03	1.089889E-15	1.257438E-16
7.070000E+03	1.125595E-15	1.301155E-16
7.080000E+03	1.165955E-15	1.350324E-16
7.090000E+03	1.211468E-15	1.405553E-16
7.100000E+03	1.262642E-15	1.467460E-16
7.110000E+03	1.319952E-15	1.536628E-16
7.120000E+03	1.383799E-15	1.613555E-16
7.130000E+03	1.454450E-15	1.698578E-16
7.140000E+03	1.531967E-15	1.791792E-16
7.150000E+03	1.616136E-15	1.892958E-16
7.160000E+03	1.706284E-15	2.001294E-16
7.170000E+03	1.801635E-15	2.115882E-16
7.180000E+03	1.900649E-15	2.234902E-16
7.190000E+03	2.001423E-15	2.356098E-16
7.200000E+03	2.101500E-15	2.476553E-16
7.210000E+03	2.198489E-15	2.593419E-16
7.220000E+03	2.289297E-15	2.703014E-16
7.230000E+03	2.371247E-15	2.802135E-16
7.240000E+03	2.441898E-15	2.887852E-16
7.250000E+03	2.498764E-15	2.957168E-16
7.260000E+03	2.540363E-15	3.008272E-16
7.270000E+03	2.565712E-15	3.039943E-16
7.280000E+03	2.574492E-15	3.051750E-16
7.290000E+03	2.567011E-15	3.044019E-16
7.300000E+03	2.544116E-15	3.017729E-16
7.310000E+03	2.507071E-15	2.974373E-16
7.320000E+03	2.457432E-15	2.915805E-16
7.330000E+03	2.396777E-15	2.843916E-16
7.340000E+03	2.327209E-15	2.761230E-16
7.350000E+03	2.250218E-15	2.669543E-16
7.360000E+03	2.167812E-15	2.571268E-16
7.370000E+03	2.081325E-15	2.468022E-16
7.380000E+03	1.992385E-15	2.361770E-16
7.390000E+03	1.902341E-15	2.254144E-16
7.400000E+03	1.812400E-15	2.146611E-16
7.410000E+03	1.723627E-15	2.040464E-16
7.420000E+03	1.636842E-15	1.936705E-16
7.430000E+03	1.553050E-15	1.836541E-16
7.440000E+03	1.472797E-15	1.740633E-16
7.450000E+03	1.396526E-15	1.649507E-16
7.460000E+03	1.324750E-15	1.563762E-16
7.470000E+03	1.257773E-15	1.483746E-16
7.480000E+03	1.195802E-15	1.409686E-16
7.490000E+03	1.138959E-15	1.341707E-16
7.500000E+03	1.087295E-15	1.279848E-16
7.510000E+03	1.040804E-15	1.224077E-16
7.520000E+03	9.993624E-16	1.174223E-16
7.530000E+03	9.630003E-16	1.130289E-16
7.540000E+03	9.314492E-16	1.091925E-16
7.550000E+03	9.045929E-16	1.058951E-16
7.560000E+03	8.822149E-16	1.031074E-16
7.570000E+03	8.640649E-16	1.007963E-16
7.580000E+03	8.498625E-16	9.892603E-17
7.590000E+03	8.392479E-16	9.745287E-17
7.600000E+03	8.320062E-16	9.635092E-17
7.610000E+03	8.276917E-16	9.556852E-17
7.620000E+03	8.260126E-16	9.507264E-17
7.630000E+03	8.266187E-16	9.482372E-17
7.640000E+03	8.291569E-16	9.478171E-17
7.650000E+03	8.332179E-16	9.489951E-17
7.660000E+03	8.385535E-16	9.514742E-17
7.670000E+03	8.446975E-16	9.547001E-17
7.680000E+03	8.513502E-16	9.583027E-17
7.690000E+03	8.581656E-16	9.618620E-17
7.700000E+03	8.648137E-16	9.649850E-17
7.710000E+03	8.709881E-16	9.673204E-17
7.720000E+03	8.763569E-16	9.685055E-17
7.730000E+03	8.807983E-16	9.684245E-17
7.740000E+03	8.840006E-16	9.667607E-17
7.750000E+03	8.858652E-16	9.634341E-17
7.760000E+03	8.862737E-16	9.583357E-17
