#wls	flux	fluxerr
1.600000E+03	9.637915E-17	1.606387E-16
1.640000E+03	9.733798E-17	1.619875E-16
1.680000E+03	9.834698E-17	1.633822E-16
1.720000E+03	9.944333E-17	1.648790E-16
1.760000E+03	1.005959E-16	1.664200E-16
1.800000E+03	1.018251E-16	1.680321E-16
1.840000E+03	1.031165E-16	1.696836E-16
1.880000E+03	1.045087E-16	1.714290E-16
1.920000E+03	1.059693E-16	1.732050E-16
1.960000E+03	1.075191E-16	1.750346E-16
2.000000E+03	1.091611E-16	1.769098E-16
2.040000E+03	1.108979E-16	1.788206E-16
2.080000E+03	1.127127E-16	1.807245E-16
2.120000E+03	1.146450E-16	1.826673E-16
2.160000E+03	1.166770E-16	1.846011E-16
2.200000E+03	1.188085E-16	1.865049E-16
2.240000E+03	1.210384E-16	1.883541E-16
2.280000E+03	1.233639E-16	1.901199E-16
2.320000E+03	1.257803E-16	1.917695E-16
2.360000E+03	1.282808E-16	1.932653E-16
2.400000E+03	1.308767E-16	1.945969E-16
2.440000E+03	1.335345E-16	1.956860E-16
2.480000E+03	1.362371E-16	1.964816E-16
2.520000E+03	1.389630E-16	1.969290E-16
2.560000E+03	1.417079E-16	1.970021E-16
2.600000E+03	1.444171E-16	1.966106E-16
2.640000E+03	1.470512E-16	1.956966E-16
2.680000E+03	1.495871E-16	1.942360E-16
2.720000E+03	1.519480E-16	1.921494E-16
2.760000E+03	1.540962E-16	1.894279E-16
2.800000E+03	1.559401E-16	1.860164E-16
2.840000E+03	1.574299E-16	1.819347E-16
2.880000E+03	1.584645E-16	1.771651E-16
2.920000E+03	1.589909E-16	1.717651E-16
2.960000E+03	1.589135E-16	1.657580E-16
3.000000E+03	1.581967E-16	1.592346E-16
3.010000E+03	1.579053E-16	1.575246E-16
3.020000E+03	1.575913E-16	1.558086E-16
3.030000E+03	1.572082E-16	1.540418E-16
3.040000E+03	1.568022E-16	1.522713E-16
3.050000E+03	1.563275E-16	1.504536E-16
3.060000E+03	1.558301E-16	1.486344E-16
3.070000E+03	1.552877E-16	1.467932E-16
3.080000E+03	1.547009E-16	1.449313E-16
3.090000E+03	1.540706E-16	1.430504E-16
3.100000E+03	1.533981E-16	1.411522E-16
3.110000E+03	1.526846E-16	1.392382E-16
3.120000E+03	1.519319E-16	1.373104E-16
3.130000E+03	1.511634E-16	1.353898E-16
3.140000E+03	1.503376E-16	1.334392E-16
3.150000E+03	1.495004E-16	1.314991E-16
3.160000E+03	1.486112E-16	1.295335E-16
3.170000E+03	1.477157E-16	1.275818E-16
3.180000E+03	1.467956E-16	1.256276E-16
3.190000E+03	1.458544E-16	1.236730E-16
3.200000E+03	1.448958E-16	1.217204E-16
3.210000E+03	1.439237E-16	1.197726E-16
3.220000E+03	1.429423E-16	1.178320E-16
3.230000E+03	1.419761E-16	1.159177E-16
3.240000E+03	1.409896E-16	1.139997E-16
3.250000E+03	1.400276E-16	1.121133E-16
3.260000E+03	1.390556E-16	1.102299E-16
3.270000E+03	1.381181E-16	1.083836E-16
3.280000E+03	1.372010E-16	1.065620E-16
3.290000E+03	1.363099E-16	1.047685E-16
3.300000E+03	1.354507E-16	1.030064E-16
3.310000E+03	1.346293E-16	1.012792E-16
3.320000E+03	1.338519E-16	9.959025E-17
3.330000E+03	1.331248E-16	9.794309E-17
3.340000E+03	1.324724E-16	9.635446E-17
3.350000E+03	1.318649E-16	9.480117E-17
3.360000E+03	1.313452E-16	9.331304E-17
3.370000E+03	1.308841E-16	9.186785E-17
3.380000E+03	1.305244E-16	9.049452E-17
3.390000E+03	1.302553E-16	8.918391E-17
3.400000E+03	1.300842E-16	8.793971E-17
3.410000E+03	1.300187E-16	8.676561E-17
3.420000E+03	1.300668E-16	8.566543E-17
3.430000E+03	1.302365E-16	8.464303E-17
3.440000E+03	1.305365E-16	8.370240E-17
3.450000E+03	1.309755E-16	8.284766E-17
3.460000E+03	1.315805E-16	8.209407E-17
3.470000E+03	1.323262E-16	8.142405E-17
3.480000E+03	1.332581E-16	8.086418E-17
3.490000E+03	1.343697E-16	8.040850E-17
3.500000E+03	1.356546E-16	8.005171E-17
3.510000E+03	1.371609E-16	7.982071E-17
3.520000E+03	1.388838E-16	7.971085E-17
3.530000E+03	1.408373E-16	7.972851E-17
3.540000E+03	1.430362E-16	7.988053E-17
3.550000E+03	1.454960E-16	8.017416E-17
3.560000E+03	1.482336E-16	8.061713E-17
3.570000E+03	1.512862E-16	8.122824E-17
3.580000E+03	1.546335E-16	8.199507E-17
3.590000E+03	1.583145E-16	8.293733E-17
3.600000E+03	1.623711E-16	8.407552E-17
3.610000E+03	1.667836E-16	8.539813E-17
3.620000E+03	1.716174E-16	8.693759E-17
3.630000E+03	1.768755E-16	8.869398E-17
3.640000E+03	1.825594E-16	9.066697E-17
3.650000E+03	1.887411E-16	9.289106E-17
3.660000E+03	1.954243E-16	9.536661E-17
3.670000E+03	2.026364E-16	9.810545E-17
3.680000E+03	2.104051E-16	1.011194E-16
3.690000E+03	2.187584E-16	1.044203E-16
3.700000E+03	2.277249E-16	1.080196E-16
3.710000E+03	2.373327E-16	1.119285E-16
3.720000E+03	2.476097E-16	1.161578E-16
3.730000E+03	2.586160E-16	1.207327E-16
3.740000E+03	2.703144E-16	1.256329E-16
3.750000E+03	2.827612E-16	1.308812E-16
3.760000E+03	2.960170E-16	1.365019E-16
3.770000E+03	3.100311E-16	1.424675E-16
3.780000E+03	3.248979E-16	1.488168E-16
3.790000E+03	3.405543E-16	1.555164E-16
3.800000E+03	3.570951E-16	1.626040E-16
3.810000E+03	3.744419E-16	1.700384E-16
3.820000E+03	3.926880E-16	1.778559E-16
3.830000E+03	4.117873E-16	1.860290E-16
3.840000E+03	4.317317E-16	1.945469E-16
3.850000E+03	4.524519E-16	2.033709E-16
3.860000E+03	4.740342E-16	2.125316E-16
3.870000E+03	4.963976E-16	2.219840E-16
3.880000E+03	5.195064E-16	2.317027E-16
3.890000E+03	5.433176E-16	2.416583E-16
3.900000E+03	5.677811E-16	2.518176E-16
3.910000E+03	5.928400E-16	2.621437E-16
3.920000E+03	6.184311E-16	2.725960E-16
3.930000E+03	6.444858E-16	2.831306E-16
3.940000E+03	6.709314E-16	2.937009E-16
3.950000E+03	6.976919E-16	3.042579E-16
3.960000E+03	7.246896E-16	3.147508E-16
3.970000E+03	7.518469E-16	3.251276E-16
3.980000E+03	7.790878E-16	3.353360E-16
3.990000E+03	8.063396E-16	3.453239E-16
4.000000E+03	8.335348E-16	3.550399E-16
4.010000E+03	8.606124E-16	3.644343E-16
4.020000E+03	8.875197E-16	3.734592E-16
4.030000E+03	9.142134E-16	3.820690E-16
4.040000E+03	9.406601E-16	3.902209E-16
4.050000E+03	9.668373E-16	3.978742E-16
4.060000E+03	9.927331E-16	4.049909E-16
4.070000E+03	1.018346E-15	4.115349E-16
4.080000E+03	1.043685E-15	4.174716E-16
4.090000E+03	1.068767E-15	4.227672E-16
4.100000E+03	1.093615E-15	4.273878E-16
4.110000E+03	1.118261E-15	4.312987E-16
4.120000E+03	1.142737E-15	4.344633E-16
4.130000E+03	1.167080E-15	4.368422E-16
4.140000E+03	1.191326E-15	4.383924E-16
4.150000E+03	1.215509E-15	4.390667E-16
4.160000E+03	1.239661E-15	4.388128E-16
4.170000E+03	1.263809E-15	4.375733E-16
4.180000E+03	1.287974E-15	4.352853E-16
4.190000E+03	1.312173E-15	4.318805E-16
4.200000E+03	1.336264E-15	4.272376E-16
4.210000E+03	1.360548E-15	4.213758E-16
4.220000E+03	1.384874E-15	4.141654E-16
4.230000E+03	1.409073E-15	4.054780E-16
4.240000E+03	1.433444E-15	3.953215E-16
4.250000E+03	1.457810E-15	3.835675E-16
4.260000E+03	1.481983E-15	3.700974E-16
4.270000E+03	1.506263E-15	3.549249E-16
4.280000E+03	1.530290E-15	3.379134E-16
4.290000E+03	1.554200E-15	3.190673E-16
4.300000E+03	1.578140E-15	2.984130E-16
4.310000E+03	1.601740E-15	2.759230E-16
4.320000E+03	1.625155E-15	2.517469E-16
4.330000E+03	1.648375E-15	2.261226E-16
4.340000E+03	1.671404E-15	1.995028E-16
4.350000E+03	1.694260E-15	1.727353E-16
4.360000E+03	1.716979E-15	1.474134E-16
4.370000E+03	1.739615E-15	1.264693E-16
4.380000E+03	1.762233E-15	1.145748E-16
4.390000E+03	1.784878E-15	1.163800E-16
4.400000E+03	1.807354E-15	1.322598E-16
4.410000E+03	1.829986E-15	1.582549E-16
4.420000E+03	1.852297E-15	1.900453E-16
4.430000E+03	1.874583E-15	2.248624E-16
4.440000E+03	1.896341E-15	2.610474E-16
4.450000E+03	1.917664E-15	2.976800E-16
4.460000E+03	1.938641E-15	3.342121E-16
4.470000E+03	1.958731E-15	3.701857E-16
4.480000E+03	1.977996E-15	4.053494E-16
4.490000E+03	1.996277E-15	4.394820E-16
4.500000E+03	2.013192E-15	4.723505E-16
4.510000E+03	2.028987E-15	5.038919E-16
4.520000E+03	2.043269E-15	5.339177E-16
4.530000E+03	2.055647E-15	5.622406E-16
4.540000E+03	2.066389E-15	5.888613E-16
4.550000E+03	2.074919E-15	6.135598E-16
4.560000E+03	2.081338E-15	6.363126E-16
4.570000E+03	2.085567E-15	6.570561E-16
4.580000E+03	2.087566E-15	6.757481E-16
4.590000E+03	2.087335E-15	6.923692E-16
4.600000E+03	2.084919E-15	7.069235E-16
4.610000E+03	2.080407E-15	7.194387E-16
4.620000E+03	2.073710E-15	7.298897E-16
4.630000E+03	2.065418E-15	7.384970E-16
4.640000E+03	2.055293E-15	7.451977E-16
4.650000E+03	2.043758E-15	7.501701E-16
4.660000E+03	2.031245E-15	7.536050E-16
4.670000E+03	2.017565E-15	7.554676E-16
4.680000E+03	2.002954E-15	7.558804E-16
4.690000E+03	1.988045E-15	7.551197E-16
4.700000E+03	1.972844E-15	7.532260E-16
4.710000E+03	1.957348E-15	7.502337E-16
4.720000E+03	1.942137E-15	7.463983E-16
4.730000E+03	1.926973E-15	7.416597E-16
4.740000E+03	1.912194E-15	7.361749E-16
4.750000E+03	1.897916E-15	7.300128E-16
4.760000E+03	1.884238E-15	7.232298E-16
4.770000E+03	1.871235E-15	7.158707E-16
4.780000E+03	1.858781E-15	7.078972E-16
4.790000E+03	1.847293E-15	6.994751E-16
4.800000E+03	1.836428E-15	6.904750E-16
4.810000E+03	1.826570E-15	6.810393E-16
4.820000E+03	1.817353E-15	6.710253E-16
4.830000E+03	1.808956E-15	6.604898E-16
4.840000E+03	1.801183E-15	6.493495E-16
4.850000E+03	1.794372E-15	6.377119E-16
4.860000E+03	1.788316E-15	6.254836E-16
4.870000E+03	1.782807E-15	6.125740E-16
4.880000E+03	1.777990E-15	5.990157E-16
4.890000E+03	1.774009E-15	5.848357E-16
4.900000E+03	1.770477E-15	5.698869E-16
4.910000E+03	1.767367E-15	5.541469E-16
4.920000E+03	1.765003E-15	5.377042E-16
4.930000E+03	1.763187E-15	5.204847E-16
4.940000E+03	1.761732E-15	5.024284E-16
4.950000E+03	1.760804E-15	4.835865E-16
4.960000E+03	1.760574E-15	4.640126E-16
4.970000E+03	1.760703E-15	4.436336E-16
4.980000E+03	1.761205E-15	4.224901E-16
4.990000E+03	1.762446E-15	4.007183E-16
5.000000E+03	1.764279E-15	3.783471E-16
5.010000E+03	1.766558E-15	3.554395E-16
5.020000E+03	1.769485E-15	3.321652E-16
5.030000E+03	1.773263E-15	3.087260E-16
5.040000E+03	1.777571E-15	2.852844E-16
5.050000E+03	1.782426E-15	2.621399E-16
5.060000E+03	1.788187E-15	2.397234E-16
5.070000E+03	1.794681E-15	2.184827E-16
5.080000E+03	1.801727E-15	1.989704E-16
5.090000E+03	1.809481E-15	1.818276E-16
5.100000E+03	1.818107E-15	1.675933E-16
5.110000E+03	1.827256E-15	1.564335E-16
5.120000E+03	1.836931E-15	1.480992E-16
5.130000E+03	1.847434E-15	1.420291E-16
5.140000E+03	1.858362E-15	1.374754E-16
5.150000E+03	1.869043E-15	1.337129E-16
5.160000E+03	1.878900E-15	1.302131E-16
5.170000E+03	1.886917E-15	1.266634E-16
5.180000E+03	1.891870E-15	1.229649E-16
5.190000E+03	1.892502E-15	1.192019E-16
5.200000E+03	1.887817E-15	1.155424E-16
5.210000E+03	1.877130E-15	1.121427E-16
5.220000E+03	1.860908E-15	1.091655E-16
5.230000E+03	1.839641E-15	1.065722E-16
5.240000E+03	1.815107E-15	1.041631E-16
5.250000E+03	1.789355E-15	1.017774E-16
5.260000E+03	1.764466E-15	9.941944E-17
5.270000E+03	1.742279E-15	9.720464E-17
5.280000E+03	1.724040E-15	9.533309E-17
5.290000E+03	1.710844E-15	9.392577E-17
5.300000E+03	1.702359E-15	9.277978E-17
5.310000E+03	1.698100E-15	9.163900E-17
5.320000E+03	1.696925E-15	9.034991E-17
5.330000E+03	1.697277E-15	8.887910E-17
5.340000E+03	1.697145E-15	8.731826E-17
5.350000E+03	1.694876E-15	8.572873E-17
5.360000E+03	1.688281E-15	8.392115E-17
5.370000E+03	1.676387E-15	8.176815E-17
5.380000E+03	1.658824E-15	7.926048E-17
5.390000E+03	1.637215E-15	7.643458E-17
5.400000E+03	1.613892E-15	7.339814E-17
5.410000E+03	1.591055E-15	7.028916E-17
5.420000E+03	1.570052E-15	6.708531E-17
5.430000E+03	1.551960E-15	6.373407E-17
5.440000E+03	1.536686E-15	6.021273E-17
5.450000E+03	1.524144E-15	5.654371E-17
5.460000E+03	1.513906E-15	5.289915E-17
5.470000E+03	1.505651E-15	4.965882E-17
5.480000E+03	1.499276E-15	4.732069E-17
5.490000E+03	1.494699E-15	4.645471E-17
5.500000E+03	1.491359E-15	4.730446E-17
5.510000E+03	1.488581E-15	4.947127E-17
5.520000E+03	1.484766E-15	5.231501E-17
5.530000E+03	1.478712E-15	5.534441E-17
5.540000E+03	1.469322E-15	5.819498E-17
5.550000E+03	1.455924E-15	6.069997E-17
5.560000E+03	1.438464E-15	6.280689E-17
5.570000E+03	1.417569E-15	6.443300E-17
5.580000E+03	1.394291E-15	6.555457E-17
5.590000E+03	1.369611E-15	6.622278E-17
5.600000E+03	1.344605E-15	6.650939E-17
5.610000E+03	1.320126E-15	6.653362E-17
5.620000E+03	1.296446E-15	6.640523E-17
5.630000E+03	1.274041E-15	6.619846E-17
5.640000E+03	1.253176E-15	6.600070E-17
5.650000E+03	1.234042E-15	6.588152E-17
5.660000E+03	1.217281E-15	6.584101E-17
5.670000E+03	1.203247E-15	6.586962E-17
5.680000E+03	1.192288E-15	6.599450E-17
5.690000E+03	1.184919E-15	6.622844E-17
5.700000E+03	1.181446E-15	6.659693E-17
5.710000E+03	1.182146E-15	6.714602E-17
5.720000E+03	1.186795E-15	6.785500E-17
5.730000E+03	1.195245E-15	6.871607E-17
5.740000E+03	1.207451E-15	6.974138E-17
5.750000E+03	1.222949E-15	7.088194E-17
5.760000E+03	1.241239E-15	7.209797E-17
5.770000E+03	1.262239E-15	7.339290E-17
5.780000E+03	1.285513E-15	7.472657E-17
5.790000E+03	1.311133E-15	7.611257E-17
5.800000E+03	1.338550E-15	7.754726E-17
5.810000E+03	1.367264E-15	7.900776E-17
5.820000E+03	1.396166E-15	8.048611E-17
5.830000E+03	1.423431E-15	8.198354E-17
5.840000E+03	1.446349E-15	8.347385E-17
5.850000E+03	1.462492E-15	8.506617E-17
5.860000E+03	1.470006E-15	8.687307E-17
5.870000E+03	1.468727E-15	8.873146E-17
5.880000E+03	1.460155E-15	9.024810E-17
5.890000E+03	1.446403E-15	9.104770E-17
5.900000E+03	1.429244E-15	9.090208E-17
5.910000E+03	1.410667E-15	8.983248E-17
5.920000E+03	1.392158E-15	8.804916E-17
5.930000E+03	1.374747E-15	8.588456E-17
5.940000E+03	1.358993E-15	8.370443E-17
5.950000E+03	1.344953E-15	8.176982E-17
5.960000E+03	1.332081E-15	8.016461E-17
5.970000E+03	1.319964E-15	7.890983E-17
5.980000E+03	1.307917E-15	7.793305E-17
5.990000E+03	1.295571E-15	7.707280E-17
6.000000E+03	1.283127E-15	7.620519E-17
6.010000E+03	1.271075E-15	7.528355E-17
6.020000E+03	1.259781E-15	7.428589E-17
6.030000E+03	1.250015E-15	7.327714E-17
6.040000E+03	1.242225E-15	7.234276E-17
6.050000E+03	1.236506E-15	7.154693E-17
6.060000E+03	1.232637E-15	7.097107E-17
6.070000E+03	1.230172E-15	7.064147E-17
6.080000E+03	1.228508E-15	7.046425E-17
6.090000E+03	1.226915E-15	7.035917E-17
6.100000E+03	1.225194E-15	7.030692E-17
6.110000E+03	1.223082E-15	7.021215E-17
6.120000E+03	1.221383E-15	7.005396E-17
6.130000E+03	1.221375E-15	6.990896E-17
6.140000E+03	1.225889E-15	6.998097E-17
6.150000E+03	1.238024E-15	7.056746E-17
6.160000E+03	1.261388E-15	7.197191E-17
6.170000E+03	1.299262E-15	7.431078E-17
6.180000E+03	1.354393E-15	7.762431E-17
6.190000E+03	1.428260E-15	8.193810E-17
6.200000E+03	1.520245E-15	8.716629E-17
6.210000E+03	1.627448E-15	9.314096E-17
6.220000E+03	1.744926E-15	9.960517E-17
6.230000E+03	1.865978E-15	1.061349E-16
6.240000E+03	1.982912E-15	1.122736E-16
6.250000E+03	2.088512E-15	1.176318E-16
6.260000E+03	2.178481E-15	1.219399E-16
6.270000E+03	2.250229E-15	1.250993E-16
6.280000E+03	2.303506E-15	1.271693E-16
6.290000E+03	2.337841E-15	1.281094E-16
6.300000E+03	2.353618E-15	1.280481E-16
6.310000E+03	2.349793E-15	1.270386E-16
6.320000E+03	2.325364E-15	1.248914E-16
6.330000E+03	2.279750E-15	1.215087E-16
6.340000E+03	2.213708E-15	1.169983E-16
6.350000E+03	2.131251E-15	1.115471E-16
6.360000E+03	2.037742E-15	1.055069E-16
6.370000E+03	1.938596E-15	9.927369E-17
6.380000E+03	1.838405E-15	9.297122E-17
6.390000E+03	1.740751E-15	8.665004E-17
6.400000E+03	1.648293E-15	8.043254E-17
6.410000E+03	1.562894E-15	7.442315E-17
6.420000E+03	1.485806E-15	6.877822E-17
6.430000E+03	1.417693E-15	6.360977E-17
6.440000E+03	1.359280E-15	5.886072E-17
6.450000E+03	1.310610E-15	5.444565E-17
6.460000E+03	1.271475E-15	5.032902E-17
6.470000E+03	1.241762E-15	4.641704E-17
6.480000E+03	1.220593E-15	4.263208E-17
6.490000E+03	1.207187E-15	3.899743E-17
6.500000E+03	1.199844E-15	3.553938E-17
6.510000E+03	1.196953E-15	3.254614E-17
6.520000E+03	1.196214E-15	3.069558E-17
6.530000E+03	1.195897E-15	3.070240E-17
6.540000E+03	1.194564E-15	3.268207E-17
6.550000E+03	1.191729E-15	3.598238E-17
6.560000E+03	1.186638E-15	3.966618E-17
6.570000E+03	1.178417E-15	4.306654E-17
6.580000E+03	1.166103E-15	4.582103E-17
6.590000E+03	1.149655E-15	4.774356E-17
6.600000E+03	1.129602E-15	4.882416E-17
6.610000E+03	1.107194E-15	4.924187E-17
6.620000E+03	1.084283E-15	4.929969E-17
6.630000E+03	1.062779E-15	4.933312E-17
6.640000E+03	1.043973E-15	4.951713E-17
6.650000E+03	1.028207E-15	4.983070E-17
6.660000E+03	1.015132E-15	5.027042E-17
6.670000E+03	1.004018E-15	5.084535E-17
6.680000E+03	9.943869E-16	5.146459E-17
6.690000E+03	9.855507E-16	5.201151E-17
6.700000E+03	9.770690E-16	5.243799E-17
6.710000E+03	9.685958E-16	5.269728E-17
6.720000E+03	9.601980E-16	5.278897E-17
6.730000E+03	9.517250E-16	5.273004E-17
6.740000E+03	9.430580E-16	5.252686E-17
6.750000E+03	9.344026E-16	5.222773E-17
6.760000E+03	9.258058E-16	5.188213E-17
6.770000E+03	9.174457E-16	5.151804E-17
6.780000E+03	9.097124E-16	5.119890E-17
6.790000E+03	9.028806E-16	5.098053E-17
6.800000E+03	8.967679E-16	5.083476E-17
6.810000E+03	8.913659E-16	5.075753E-17
6.820000E+03	8.862131E-16	5.073781E-17
6.830000E+03	8.810504E-16	5.072536E-17
6.840000E+03	8.756518E-16	5.067010E-17
6.850000E+03	8.696948E-16	5.054243E-17
6.860000E+03	8.633304E-16	5.032915E-17
6.870000E+03	8.567956E-16	5.004212E-17
6.880000E+03	8.504898E-16	4.972420E-17
6.890000E+03	8.445925E-16	4.939072E-17
6.900000E+03	8.395290E-16	4.908429E-17
6.910000E+03	8.356269E-16	4.883857E-17
6.920000E+03	8.331848E-16	4.864182E-17
6.930000E+03	8.324504E-16	4.848831E-17
6.940000E+03	8.335819E-16	4.840064E-17
6.950000E+03	8.366193E-16	4.841229E-17
6.960000E+03	8.414902E-16	4.859201E-17
6.970000E+03	8.480178E-16	4.898531E-17
6.980000E+03	8.558467E-16	4.954066E-17
6.990000E+03	8.648204E-16	5.021173E-17
7.000000E+03	8.745636E-16	5.096228E-17
7.010000E+03	8.848559E-16	5.172659E-17
7.020000E+03	8.955337E-16	5.243954E-17
7.030000E+03	9.063608E-16	5.305815E-17
7.040000E+03	9.173518E-16	5.355697E-17
7.050000E+03	9.282499E-16	5.393170E-17
7.060000E+03	9.388054E-16	5.422041E-17
7.070000E+03	9.491120E-16	5.451488E-17
7.080000E+03	9.591209E-16	5.496713E-17
7.090000E+03	9.696166E-16	5.572390E-17
7.100000E+03	9.816253E-16	5.674878E-17
7.110000E+03	9.970034E-16	5.798558E-17
7.120000E+03	1.017388E-15	5.943065E-17
7.130000E+03	1.044680E-15	6.113820E-17
7.140000E+03	1.080709E-15	6.320788E-17
7.150000E+03	1.126815E-15	6.574345E-17
7.160000E+03	1.184277E-15	6.883457E-17
7.170000E+03	1.253587E-15	7.255760E-17
7.180000E+03	1.333887E-15	7.692294E-17
7.190000E+03	1.422405E-15	8.181117E-17
7.200000E+03	1.513956E-15	8.706328E-17
7.210000E+03	1.602578E-15	9.249104E-17
7.220000E+03	1.682046E-15	9.765170E-17
7.230000E+03	1.746932E-15	1.020146E-16
7.240000E+03	1.793658E-15	1.052302E-16
7.250000E+03	1.821305E-15	1.071877E-16
7.260000E+03	1.831159E-15	1.080177E-16
7.270000E+03	1.826516E-15	1.080001E-16
7.280000E+03	1.810805E-15	1.073126E-16
7.290000E+03	1.787612E-15	1.061176E-16
7.300000E+03	1.759712E-15	1.045525E-16
7.310000E+03	1.729404E-15	1.026986E-16
7.320000E+03	1.697537E-15	1.005932E-16
7.330000E+03	1.664202E-15	9.828157E-17
7.340000E+03	1.629353E-15	9.580280E-17
7.350000E+03	1.591952E-15	9.318904E-17
7.360000E+03	1.551609E-15	9.051126E-17
7.370000E+03	1.507556E-15	8.776225E-17
7.380000E+03	1.459928E-15	8.503263E-17
7.390000E+03	1.409480E-15	8.242103E-17
7.400000E+03	1.357181E-15	7.986720E-17
7.410000E+03	1.304675E-15	7.731600E-17
7.420000E+03	1.253232E-15	7.477659E-17
7.430000E+03	1.203667E-15	7.228196E-17
7.440000E+03	1.156412E-15	6.989316E-17
7.450000E+03	1.111661E-15	6.765992E-17
7.460000E+03	1.069479E-15	6.555134E-17
7.470000E+03	1.029899E-15	6.350555E-17
7.480000E+03	9.930067E-16	6.147410E-17
7.490000E+03	9.589656E-16	5.941715E-17
7.500000E+03	9.279258E-16	5.734080E-17
7.510000E+03	8.998079E-16	5.530885E-17
7.520000E+03	8.746201E-16	5.344737E-17
7.530000E+03	8.520023E-16	5.189566E-17
7.540000E+03	8.316392E-16	5.075078E-17
7.550000E+03	8.135687E-16	5.002825E-17
7.560000E+03	7.975862E-16	4.968943E-17
7.570000E+03	7.837877E-16	4.971002E-17
7.580000E+03	7.722876E-16	5.003086E-17
7.590000E+03	7.629475E-16	5.055446E-17
7.600000E+03	7.557843E-16	5.118949E-17
7.610000E+03	7.506216E-16	5.181977E-17
7.620000E+03	7.471812E-16	5.233073E-17
7.630000E+03	7.451779E-16	5.264274E-17
7.640000E+03	7.440421E-16	5.269819E-17
7.650000E+03	7.433504E-16	5.249636E-17
7.660000E+03	7.429118E-16	5.208854E-17
7.670000E+03	7.424556E-16	5.153501E-17
7.680000E+03	7.419423E-16	5.091473E-17
7.690000E+03	7.414936E-16	5.029097E-17
7.700000E+03	7.413054E-16	4.968406E-17
7.710000E+03	7.418556E-16	4.911294E-17
7.720000E+03	7.432445E-16	4.857366E-17
7.730000E+03	7.457133E-16	4.807583E-17
7.740000E+03	7.490665E-16	4.761233E-17
7.750000E+03	7.533302E-16	4.718272E-17
7.760000E+03	7.581743E-16	4.673943E-17
