#wls	flux	fluxerr
1.600000E+03	7.146360E-17	1.190249E-16
1.640000E+03	7.272097E-17	1.209119E-16
1.680000E+03	7.409036E-17	1.229487E-16
1.720000E+03	7.558340E-17	1.251480E-16
1.760000E+03	7.722679E-17	1.275464E-16
1.800000E+03	7.900809E-17	1.301139E-16
1.840000E+03	8.097148E-17	1.329126E-16
1.880000E+03	8.312192E-17	1.359375E-16
1.920000E+03	8.549552E-17	1.392322E-16
1.960000E+03	8.808639E-17	1.427686E-16
2.000000E+03	9.095222E-17	1.466184E-16
2.040000E+03	9.410877E-17	1.507803E-16
2.080000E+03	9.759113E-17	1.552790E-16
2.120000E+03	1.014571E-16	1.601683E-16
2.160000E+03	1.057175E-16	1.654191E-16
2.200000E+03	1.104611E-16	1.711154E-16
2.240000E+03	1.157303E-16	1.772552E-16
2.280000E+03	1.216151E-16	1.838953E-16
2.320000E+03	1.281535E-16	1.909940E-16
2.360000E+03	1.354800E-16	1.986330E-16
2.400000E+03	1.437031E-16	2.068242E-16
2.440000E+03	1.528944E-16	2.154934E-16
2.480000E+03	1.632432E-16	2.246927E-16
2.520000E+03	1.748823E-16	2.343411E-16
2.560000E+03	1.879907E-16	2.443607E-16
2.600000E+03	2.027714E-16	2.546291E-16
2.640000E+03	2.194895E-16	2.650113E-16
2.680000E+03	2.383657E-16	2.752086E-16
2.720000E+03	2.596768E-16	2.848685E-16
2.760000E+03	2.837178E-16	2.935185E-16
2.800000E+03	3.108463E-16	3.005942E-16
2.840000E+03	3.413176E-16	3.052647E-16
2.880000E+03	3.753999E-16	3.065695E-16
2.920000E+03	4.133612E-16	3.034295E-16
2.960000E+03	4.551403E-16	2.944873E-16
3.000000E+03	5.007531E-16	2.785862E-16
3.010000E+03	5.126799E-16	2.733740E-16
3.020000E+03	5.248934E-16	2.676910E-16
3.030000E+03	5.372063E-16	2.614376E-16
3.040000E+03	5.496905E-16	2.546557E-16
3.050000E+03	5.624240E-16	2.473871E-16
3.060000E+03	5.752008E-16	2.395534E-16
3.070000E+03	5.880918E-16	2.312100E-16
3.080000E+03	6.011739E-16	2.224155E-16
3.090000E+03	6.142204E-16	2.131243E-16
3.100000E+03	6.273003E-16	2.034178E-16
3.110000E+03	6.404878E-16	1.933849E-16
3.120000E+03	6.535339E-16	1.830321E-16
3.130000E+03	6.665040E-16	1.724866E-16
3.140000E+03	6.794679E-16	1.618911E-16
3.150000E+03	6.921524E-16	1.513316E-16
3.160000E+03	7.047344E-16	1.410306E-16
3.170000E+03	7.169206E-16	1.311348E-16
3.180000E+03	7.288780E-16	1.219000E-16
3.190000E+03	7.402753E-16	1.134860E-16
3.200000E+03	7.512405E-16	1.061017E-16
3.210000E+03	7.613750E-16	9.982912E-17
3.220000E+03	7.707403E-16	9.474739E-17
3.230000E+03	7.788538E-16	9.078108E-17
3.240000E+03	7.857444E-16	8.784490E-17
3.250000E+03	7.909834E-16	8.573776E-17
3.260000E+03	7.947668E-16	8.428523E-17
3.270000E+03	7.968614E-16	8.326159E-17
3.280000E+03	7.976351E-16	8.252068E-17
3.290000E+03	7.971159E-16	8.189993E-17
3.300000E+03	7.953656E-16	8.127942E-17
3.310000E+03	7.928494E-16	8.062692E-17
3.320000E+03	7.894989E-16	7.989286E-17
3.330000E+03	7.857648E-16	7.911370E-17
3.340000E+03	7.817065E-16	7.830416E-17
3.350000E+03	7.773904E-16	7.747912E-17
3.360000E+03	7.732622E-16	7.669123E-17
3.370000E+03	7.693552E-16	7.594573E-17
3.380000E+03	7.656685E-16	7.522967E-17
3.390000E+03	7.625478E-16	7.456341E-17
3.400000E+03	7.599324E-16	7.393481E-17
3.410000E+03	7.578633E-16	7.334744E-17
3.420000E+03	7.562276E-16	7.280487E-17
3.430000E+03	7.552440E-16	7.235453E-17
3.440000E+03	7.547106E-16	7.200229E-17
3.450000E+03	7.543964E-16	7.175009E-17
3.460000E+03	7.544409E-16	7.161804E-17
3.470000E+03	7.546274E-16	7.155874E-17
3.480000E+03	7.548802E-16	7.152634E-17
3.490000E+03	7.550134E-16	7.147354E-17
3.500000E+03	7.552236E-16	7.140114E-17
3.510000E+03	7.553416E-16	7.129486E-17
3.520000E+03	7.553217E-16	7.116413E-17
3.530000E+03	7.551197E-16	7.101439E-17
3.540000E+03	7.545840E-16	7.084043E-17
3.550000E+03	7.539758E-16	7.066952E-17
3.560000E+03	7.532416E-16	7.048182E-17
3.570000E+03	7.524858E-16	7.026985E-17
3.580000E+03	7.518102E-16	7.003303E-17
3.590000E+03	7.511697E-16	6.976112E-17
3.600000E+03	7.508596E-16	6.948844E-17
3.610000E+03	7.507875E-16	6.922259E-17
3.620000E+03	7.509699E-16	6.897946E-17
3.630000E+03	7.514263E-16	6.878170E-17
3.640000E+03	7.522037E-16	6.865812E-17
3.650000E+03	7.532682E-16	6.862516E-17
3.660000E+03	7.549824E-16	6.874732E-17
3.670000E+03	7.573518E-16	6.907328E-17
3.680000E+03	7.604936E-16	6.966524E-17
3.690000E+03	7.644929E-16	7.058167E-17
3.700000E+03	7.693701E-16	7.184584E-17
3.710000E+03	7.750616E-16	7.340780E-17
3.720000E+03	7.813181E-16	7.515383E-17
3.730000E+03	7.882524E-16	7.699827E-17
3.740000E+03	7.956126E-16	7.883389E-17
3.750000E+03	8.032901E-16	8.059372E-17
3.760000E+03	8.111943E-16	8.224002E-17
3.770000E+03	8.192541E-16	8.375452E-17
3.780000E+03	8.274212E-16	8.513541E-17
3.790000E+03	8.356769E-16	8.638842E-17
3.800000E+03	8.439024E-16	8.750102E-17
3.810000E+03	8.524127E-16	8.850388E-17
3.820000E+03	8.611349E-16	8.939116E-17
3.830000E+03	8.701410E-16	9.017454E-17
3.840000E+03	8.795121E-16	9.087701E-17
3.850000E+03	8.893393E-16	9.153377E-17
3.860000E+03	8.997226E-16	9.218488E-17
3.870000E+03	9.107588E-16	9.287378E-17
3.880000E+03	9.223738E-16	9.361953E-17
3.890000E+03	9.348958E-16	9.446172E-17
3.900000E+03	9.481782E-16	9.537996E-17
3.910000E+03	9.621915E-16	9.635876E-17
3.920000E+03	9.768849E-16	9.736679E-17
3.930000E+03	9.922009E-16	9.835941E-17
3.940000E+03	1.008098E-15	9.927068E-17
3.950000E+03	1.024390E-15	9.998876E-17
3.960000E+03	1.041358E-15	1.004444E-16
3.970000E+03	1.058704E-15	1.005454E-16
3.980000E+03	1.076124E-15	1.002571E-16
3.990000E+03	1.093136E-15	9.960178E-17
4.000000E+03	1.109051E-15	9.865628E-17
4.010000E+03	1.122816E-15	9.751757E-17
4.020000E+03	1.133848E-15	9.634344E-17
4.030000E+03	1.141197E-15	9.520625E-17
4.040000E+03	1.144430E-15	9.412543E-17
4.050000E+03	1.143527E-15	9.309826E-17
4.060000E+03	1.138752E-15	9.211136E-17
4.070000E+03	1.131384E-15	9.118987E-17
4.080000E+03	1.122456E-15	9.032484E-17
4.090000E+03	1.113237E-15	8.951070E-17
4.100000E+03	1.104718E-15	8.867909E-17
4.110000E+03	1.098219E-15	8.779398E-17
4.120000E+03	1.094238E-15	8.681683E-17
4.130000E+03	1.093094E-15	8.577158E-17
4.140000E+03	1.094627E-15	8.471079E-17
4.150000E+03	1.098929E-15	8.372485E-17
4.160000E+03	1.105349E-15	8.282006E-17
4.170000E+03	1.113266E-15	8.199459E-17
4.180000E+03	1.121879E-15	8.122174E-17
4.190000E+03	1.130979E-15	8.049091E-17
4.200000E+03	1.139903E-15	7.975864E-17
4.210000E+03	1.148016E-15	7.898254E-17
4.220000E+03	1.155246E-15	7.813172E-17
4.230000E+03	1.161006E-15	7.714799E-17
4.240000E+03	1.164749E-15	7.599837E-17
4.250000E+03	1.166550E-15	7.469160E-17
4.260000E+03	1.165868E-15	7.322294E-17
4.270000E+03	1.163072E-15	7.166295E-17
4.280000E+03	1.158213E-15	7.003795E-17
4.290000E+03	1.151576E-15	6.838908E-17
4.300000E+03	1.144208E-15	6.679798E-17
4.310000E+03	1.136627E-15	6.526785E-17
4.320000E+03	1.130106E-15	6.382674E-17
4.330000E+03	1.125036E-15	6.244735E-17
4.340000E+03	1.122215E-15	6.110303E-17
4.350000E+03	1.121459E-15	5.973875E-17
4.360000E+03	1.123057E-15	5.839774E-17
4.370000E+03	1.126407E-15	5.715750E-17
4.380000E+03	1.131496E-15	5.622727E-17
4.390000E+03	1.137615E-15	5.583656E-17
4.400000E+03	1.144749E-15	5.608170E-17
4.410000E+03	1.152231E-15	5.686649E-17
4.420000E+03	1.160371E-15	5.811998E-17
4.430000E+03	1.169100E-15	5.972232E-17
4.440000E+03	1.179177E-15	6.162123E-17
4.450000E+03	1.191549E-15	6.380475E-17
4.460000E+03	1.206705E-15	6.623064E-17
4.470000E+03	1.225574E-15	6.891207E-17
4.480000E+03	1.248659E-15	7.186754E-17
4.490000E+03	1.275200E-15	7.503117E-17
4.500000E+03	1.304324E-15	7.835150E-17
4.510000E+03	1.334555E-15	8.176218E-17
4.520000E+03	1.363278E-15	8.510787E-17
4.530000E+03	1.388257E-15	8.826269E-17
4.540000E+03	1.407357E-15	9.109229E-17
4.550000E+03	1.419175E-15	9.344619E-17
4.560000E+03	1.423332E-15	9.523631E-17
4.570000E+03	1.419548E-15	9.640535E-17
4.580000E+03	1.408882E-15	9.698746E-17
4.590000E+03	1.392625E-15	9.706659E-17
4.600000E+03	1.372227E-15	9.675696E-17
4.610000E+03	1.349114E-15	9.614754E-17
4.620000E+03	1.324611E-15	9.533189E-17
4.630000E+03	1.299908E-15	9.440726E-17
4.640000E+03	1.276035E-15	9.344319E-17
4.650000E+03	1.253855E-15	9.251362E-17
4.660000E+03	1.234029E-15	9.169336E-17
4.670000E+03	1.216997E-15	9.102529E-17
4.680000E+03	1.202991E-15	9.054544E-17
4.690000E+03	1.192013E-15	9.027159E-17
4.700000E+03	1.183837E-15	9.016909E-17
4.710000E+03	1.178071E-15	9.018997E-17
4.720000E+03	1.174248E-15	9.029101E-17
4.730000E+03	1.171864E-15	9.041651E-17
4.740000E+03	1.170408E-15	9.052495E-17
4.750000E+03	1.169374E-15	9.058914E-17
4.760000E+03	1.168097E-15	9.055877E-17
4.770000E+03	1.166477E-15	9.044124E-17
4.780000E+03	1.163929E-15	9.021799E-17
4.790000E+03	1.160121E-15	8.987682E-17
4.800000E+03	1.154650E-15	8.941133E-17
4.810000E+03	1.147797E-15	8.887030E-17
4.820000E+03	1.139522E-15	8.824816E-17
4.830000E+03	1.130021E-15	8.755877E-17
4.840000E+03	1.120284E-15	8.687963E-17
4.850000E+03	1.111041E-15	8.624175E-17
4.860000E+03	1.103089E-15	8.568475E-17
4.870000E+03	1.097485E-15	8.528145E-17
4.880000E+03	1.094192E-15	8.500976E-17
4.890000E+03	1.093454E-15	8.487926E-17
4.900000E+03	1.094687E-15	8.484553E-17
4.910000E+03	1.097039E-15	8.482956E-17
4.920000E+03	1.099858E-15	8.477802E-17
4.930000E+03	1.102564E-15	8.465797E-17
4.940000E+03	1.104273E-15	8.441019E-17
4.950000E+03	1.104970E-15	8.406070E-17
4.960000E+03	1.104137E-15	8.360981E-17
4.970000E+03	1.102086E-15	8.310544E-17
4.980000E+03	1.098619E-15	8.255867E-17
4.990000E+03	1.094227E-15	8.201739E-17
5.000000E+03	1.089424E-15	8.148126E-17
5.010000E+03	1.084976E-15	8.095917E-17
5.020000E+03	1.081111E-15	8.043661E-17
5.030000E+03	1.078407E-15	7.993147E-17
5.040000E+03	1.077115E-15	7.946155E-17
5.050000E+03	1.077461E-15	7.905786E-17
5.060000E+03	1.078977E-15	7.868853E-17
5.070000E+03	1.081514E-15	7.835770E-17
5.080000E+03	1.084631E-15	7.806093E-17
5.090000E+03	1.087789E-15	7.777793E-17
5.100000E+03	1.090403E-15	7.750003E-17
5.110000E+03	1.091918E-15	7.721898E-17
5.120000E+03	1.091886E-15	7.689593E-17
5.130000E+03	1.090041E-15	7.650397E-17
5.140000E+03	1.086424E-15	7.603981E-17
5.150000E+03	1.081436E-15	7.549579E-17
5.160000E+03	1.075730E-15	7.488737E-17
5.170000E+03	1.070035E-15	7.425091E-17
5.180000E+03	1.065024E-15	7.360834E-17
5.190000E+03	1.061224E-15	7.298718E-17
5.200000E+03	1.058896E-15	7.241309E-17
5.210000E+03	1.057983E-15	7.187899E-17
5.220000E+03	1.058063E-15	7.136837E-17
5.230000E+03	1.059158E-15	7.090508E-17
5.240000E+03	1.060897E-15	7.046546E-17
5.250000E+03	1.063174E-15	7.005292E-17
5.260000E+03	1.065829E-15	6.967034E-17
5.270000E+03	1.069267E-15	6.932323E-17
5.280000E+03	1.073402E-15	6.898458E-17
5.290000E+03	1.077987E-15	6.862077E-17
5.300000E+03	1.082998E-15	6.818358E-17
5.310000E+03	1.087706E-15	6.758917E-17
5.320000E+03	1.091243E-15	6.677227E-17
5.330000E+03	1.093181E-15	6.570005E-17
5.340000E+03	1.092513E-15	6.433795E-17
5.350000E+03	1.089153E-15	6.272536E-17
5.360000E+03	1.082754E-15	6.086300E-17
5.370000E+03	1.073976E-15	5.882062E-17
5.380000E+03	1.063123E-15	5.664466E-17
5.390000E+03	1.051358E-15	5.437871E-17
5.400000E+03	1.039272E-15	5.204172E-17
5.410000E+03	1.027814E-15	4.969333E-17
5.420000E+03	1.017697E-15	4.736278E-17
5.430000E+03	1.008965E-15	4.506519E-17
5.440000E+03	1.001939E-15	4.282449E-17
5.450000E+03	9.967743E-16	4.059051E-17
5.460000E+03	9.930766E-16	3.832091E-17
5.470000E+03	9.908391E-16	3.614041E-17
5.480000E+03	9.898406E-16	3.437665E-17
5.490000E+03	9.898576E-16	3.361810E-17
5.500000E+03	9.901259E-16	3.425251E-17
5.510000E+03	9.905394E-16	3.583983E-17
5.520000E+03	9.906431E-16	3.787721E-17
5.530000E+03	9.898525E-16	4.004729E-17
5.540000E+03	9.875852E-16	4.213610E-17
5.550000E+03	9.833828E-16	4.403830E-17
5.560000E+03	9.770561E-16	4.571762E-17
5.570000E+03	9.689045E-16	4.714361E-17
5.580000E+03	9.590477E-16	4.830240E-17
5.590000E+03	9.481519E-16	4.923435E-17
5.600000E+03	9.366124E-16	4.995567E-17
5.610000E+03	9.251995E-16	5.052853E-17
5.620000E+03	9.141658E-16	5.100535E-17
5.630000E+03	9.037894E-16	5.141907E-17
5.640000E+03	8.942698E-16	5.181101E-17
5.650000E+03	8.857839E-16	5.221769E-17
5.660000E+03	8.785147E-16	5.263126E-17
5.670000E+03	8.726405E-16	5.304589E-17
5.680000E+03	8.683040E-16	5.346915E-17
5.690000E+03	8.654589E-16	5.388509E-17
5.700000E+03	8.643758E-16	5.431751E-17
5.710000E+03	8.648541E-16	5.478164E-17
5.720000E+03	8.667378E-16	5.528842E-17
5.730000E+03	8.697145E-16	5.585718E-17
5.740000E+03	8.739232E-16	5.653458E-17
5.750000E+03	8.792343E-16	5.730791E-17
5.760000E+03	8.856075E-16	5.817164E-17
5.770000E+03	8.934261E-16	5.915709E-17
5.780000E+03	9.026442E-16	6.023923E-17
5.790000E+03	9.130768E-16	6.138854E-17
5.800000E+03	9.246557E-16	6.259920E-17
5.810000E+03	9.363909E-16	6.378786E-17
5.820000E+03	9.475857E-16	6.490010E-17
5.830000E+03	9.569777E-16	6.585455E-17
5.840000E+03	9.640644E-16	6.660386E-17
5.850000E+03	9.681110E-16	6.709354E-17
5.860000E+03	9.694450E-16	6.735445E-17
5.870000E+03	9.683685E-16	6.740153E-17
5.880000E+03	9.660758E-16	6.732409E-17
5.890000E+03	9.631352E-16	6.717788E-17
5.900000E+03	9.602601E-16	6.701018E-17
5.910000E+03	9.578380E-16	6.685311E-17
5.920000E+03	9.555145E-16	6.668884E-17
5.930000E+03	9.530767E-16	6.648325E-17
5.940000E+03	9.501839E-16	6.620444E-17
5.950000E+03	9.461729E-16	6.581960E-17
5.960000E+03	9.410441E-16	6.534243E-17
5.970000E+03	9.350165E-16	6.482139E-17
5.980000E+03	9.280465E-16	6.427825E-17
5.990000E+03	9.206139E-16	6.372230E-17
6.000000E+03	9.131037E-16	6.315675E-17
6.010000E+03	9.058793E-16	6.260198E-17
6.020000E+03	8.993674E-16	6.207791E-17
6.030000E+03	8.934851E-16	6.159203E-17
6.040000E+03	8.883914E-16	6.117648E-17
6.050000E+03	8.839296E-16	6.081110E-17
6.060000E+03	8.798343E-16	6.047591E-17
6.070000E+03	8.758454E-16	6.015962E-17
6.080000E+03	8.717906E-16	5.983089E-17
6.090000E+03	8.676347E-16	5.947906E-17
6.100000E+03	8.635432E-16	5.912330E-17
6.110000E+03	8.599385E-16	5.878487E-17
6.120000E+03	8.575101E-16	5.851781E-17
6.130000E+03	8.572488E-16	5.840400E-17
6.140000E+03	8.604690E-16	5.851731E-17
6.150000E+03	8.687153E-16	5.895392E-17
6.160000E+03	8.836190E-16	5.982869E-17
6.170000E+03	9.067777E-16	6.123511E-17
6.180000E+03	9.395648E-16	6.326392E-17
6.190000E+03	9.827037E-16	6.597144E-17
6.200000E+03	1.035833E-15	6.930935E-17
6.210000E+03	1.097488E-15	7.316071E-17
6.220000E+03	1.165303E-15	7.736130E-17
6.230000E+03	1.236167E-15	8.166880E-17
6.240000E+03	1.306258E-15	8.581172E-17
6.250000E+03	1.372295E-15	8.958680E-17
6.260000E+03	1.430928E-15	9.277618E-17
6.270000E+03	1.479609E-15	9.524964E-17
6.280000E+03	1.516313E-15	9.691813E-17
6.290000E+03	1.539277E-15	9.763054E-17
6.300000E+03	1.547981E-15	9.731445E-17
6.310000E+03	1.541913E-15	9.594232E-17
6.320000E+03	1.521581E-15	9.355363E-17
6.330000E+03	1.488091E-15	9.027787E-17
6.340000E+03	1.444053E-15	8.635484E-17
6.350000E+03	1.392100E-15	8.196578E-17
6.360000E+03	1.335160E-15	7.732200E-17
6.370000E+03	1.276561E-15	7.265561E-17
6.380000E+03	1.218373E-15	6.805043E-17
6.390000E+03	1.162905E-15	6.360769E-17
6.400000E+03	1.111391E-15	5.938633E-17
6.410000E+03	1.064624E-15	5.538128E-17
6.420000E+03	1.023469E-15	5.160906E-17
6.430000E+03	9.877860E-16	4.806363E-17
6.440000E+03	9.577184E-16	4.473923E-17
6.450000E+03	9.327721E-16	4.162793E-17
6.460000E+03	9.124125E-16	3.871788E-17
6.470000E+03	8.965140E-16	3.593381E-17
6.480000E+03	8.844114E-16	3.316941E-17
6.490000E+03	8.759356E-16	3.036944E-17
6.500000E+03	8.702842E-16	2.747518E-17
6.510000E+03	8.668315E-16	2.464922E-17
6.520000E+03	8.645130E-16	2.253380E-17
6.530000E+03	8.612758E-16	2.228257E-17
6.540000E+03	8.566477E-16	2.420640E-17
6.550000E+03	8.513087E-16	2.715801E-17
6.560000E+03	8.456796E-16	3.026943E-17
6.570000E+03	8.390957E-16	3.312555E-17
6.580000E+03	8.312442E-16	3.557136E-17
6.590000E+03	8.220939E-16	3.751681E-17
6.600000E+03	8.115626E-16	3.891541E-17
6.610000E+03	8.001955E-16	3.981953E-17
6.620000E+03	7.887126E-16	4.034459E-17
6.630000E+03	7.775095E-16	4.063328E-17
6.640000E+03	7.671774E-16	4.083326E-17
6.650000E+03	7.580427E-16	4.103833E-17
6.660000E+03	7.498805E-16	4.129991E-17
6.670000E+03	7.426807E-16	4.164370E-17
6.680000E+03	7.362472E-16	4.202346E-17
6.690000E+03	7.304701E-16	4.240332E-17
6.700000E+03	7.249404E-16	4.275189E-17
6.710000E+03	7.196344E-16	4.305251E-17
6.720000E+03	7.144775E-16	4.330846E-17
6.730000E+03	7.094491E-16	4.353931E-17
6.740000E+03	7.046815E-16	4.375056E-17
6.750000E+03	7.000138E-16	4.393870E-17
6.760000E+03	6.955906E-16	4.412502E-17
6.770000E+03	6.914237E-16	4.429395E-17
6.780000E+03	6.875108E-16	4.443447E-17
6.790000E+03	6.838620E-16	4.455280E-17
6.800000E+03	6.805127E-16	4.464887E-17
6.810000E+03	6.775120E-16	4.473630E-17
6.820000E+03	6.750000E-16	4.483950E-17
6.830000E+03	6.727896E-16	4.493611E-17
6.840000E+03	6.709726E-16	4.502747E-17
6.850000E+03	6.695203E-16	4.512251E-17
6.860000E+03	6.683894E-16	4.522580E-17
6.870000E+03	6.675326E-16	4.535755E-17
6.880000E+03	6.669141E-16	4.554097E-17
6.890000E+03	6.665174E-16	4.576842E-17
6.900000E+03	6.663402E-16	4.602876E-17
6.910000E+03	6.663841E-16	4.631569E-17
6.920000E+03	6.666509E-16	4.660405E-17
6.930000E+03	6.671488E-16	4.687377E-17
6.940000E+03	6.679058E-16	4.712465E-17
6.950000E+03	6.689756E-16	4.736224E-17
6.960000E+03	6.704234E-16	4.760610E-17
6.970000E+03	6.722008E-16	4.786767E-17
6.980000E+03	6.745280E-16	4.815095E-17
6.990000E+03	6.772833E-16	4.843163E-17
7.000000E+03	6.803943E-16	4.869784E-17
7.010000E+03	6.837345E-16	4.893313E-17
7.020000E+03	6.871497E-16	4.913418E-17
7.030000E+03	6.905018E-16	4.930904E-17
7.040000E+03	6.937024E-16	4.946053E-17
7.050000E+03	6.966254E-16	4.959673E-17
7.060000E+03	6.995462E-16	4.975504E-17
7.070000E+03	7.025482E-16	4.993892E-17
7.080000E+03	7.059689E-16	5.017496E-17
7.090000E+03	7.103525E-16	5.050957E-17
7.100000E+03	7.163749E-16	5.098142E-17
7.110000E+03	7.251998E-16	5.167033E-17
7.120000E+03	7.377170E-16	5.264262E-17
7.130000E+03	7.548754E-16	5.394872E-17
7.140000E+03	7.773737E-16	5.562364E-17
7.150000E+03	8.059511E-16	5.771423E-17
7.160000E+03	8.405189E-16	6.019601E-17
7.170000E+03	8.805604E-16	6.302273E-17
7.180000E+03	9.248246E-16	6.610734E-17
7.190000E+03	9.717899E-16	6.933411E-17
7.200000E+03	1.018932E-15	7.253303E-17
7.210000E+03	1.063377E-15	7.552470E-17
7.220000E+03	1.102743E-15	7.815151E-17
7.230000E+03	1.134528E-15	8.026656E-17
7.240000E+03	1.156986E-15	8.177959E-17
7.250000E+03	1.169998E-15	8.267262E-17
7.260000E+03	1.173777E-15	8.296103E-17
7.270000E+03	1.169970E-15	8.277962E-17
7.280000E+03	1.160138E-15	8.222996E-17
7.290000E+03	1.145932E-15	8.142927E-17
7.300000E+03	1.129196E-15	8.050580E-17
7.310000E+03	1.110538E-15	7.943856E-17
7.320000E+03	1.090759E-15	7.820989E-17
7.330000E+03	1.069652E-15	7.676548E-17
7.340000E+03	1.047422E-15	7.510766E-17
7.350000E+03	1.023531E-15	7.323109E-17
7.360000E+03	9.981128E-16	7.120835E-17
7.370000E+03	9.708309E-16	6.907456E-17
7.380000E+03	9.421526E-16	6.693409E-17
7.390000E+03	9.122310E-16	6.484504E-17
7.400000E+03	8.820534E-16	6.285909E-17
7.410000E+03	8.521644E-16	6.098710E-17
7.420000E+03	8.234278E-16	5.927508E-17
7.430000E+03	7.964994E-16	5.773491E-17
7.440000E+03	7.714697E-16	5.633760E-17
7.450000E+03	7.487144E-16	5.508125E-17
7.460000E+03	7.279664E-16	5.390264E-17
7.470000E+03	7.092043E-16	5.276574E-17
7.480000E+03	6.923792E-16	5.166492E-17
7.490000E+03	6.771524E-16	5.060327E-17
7.500000E+03	6.635274E-16	4.964517E-17
7.510000E+03	6.515048E-16	4.887504E-17
7.520000E+03	6.407854E-16	4.835017E-17
7.530000E+03	6.313731E-16	4.814601E-17
7.540000E+03	6.232842E-16	4.830998E-17
7.550000E+03	6.162724E-16	4.880181E-17
7.560000E+03	6.103779E-16	4.954900E-17
7.570000E+03	6.055138E-16	5.043974E-17
7.580000E+03	6.016346E-16	5.134286E-17
7.590000E+03	5.983847E-16	5.209845E-17
7.600000E+03	5.956707E-16	5.258967E-17
7.610000E+03	5.933090E-16	5.272426E-17
7.620000E+03	5.912106E-16	5.245915E-17
7.630000E+03	5.890233E-16	5.177273E-17
7.640000E+03	5.866733E-16	5.071089E-17
7.650000E+03	5.840172E-16	4.935118E-17
7.660000E+03	5.809535E-16	4.779857E-17
7.670000E+03	5.774495E-16	4.617107E-17
7.680000E+03	5.735785E-16	4.458924E-17
7.690000E+03	5.696624E-16	4.316213E-17
7.700000E+03	5.659322E-16	4.194710E-17
7.710000E+03	5.629212E-16	4.099661E-17
7.720000E+03	5.609190E-16	4.032021E-17
7.730000E+03	5.599462E-16	3.988310E-17
7.740000E+03	5.598061E-16	3.963733E-17
7.750000E+03	5.601877E-16	3.953330E-17
7.760000E+03	5.607365E-16	3.950885E-17
