#wls	flux	fluxerr
1.600000E+03	4.234290E-17	7.076294E-17
1.640000E+03	4.321073E-17	7.212870E-17
1.680000E+03	4.415865E-17	7.361344E-17
1.720000E+03	4.519491E-17	7.522834E-17
1.760000E+03	4.632872E-17	7.698572E-17
1.800000E+03	4.757042E-17	7.889918E-17
1.840000E+03	4.893154E-17	8.098371E-17
1.880000E+03	5.042504E-17	8.325587E-17
1.920000E+03	5.206548E-17	8.573392E-17
1.960000E+03	5.386922E-17	8.843803E-17
2.000000E+03	5.585463E-17	9.139044E-17
2.040000E+03	5.804241E-17	9.461565E-17
2.080000E+03	6.045585E-17	9.814066E-17
2.120000E+03	6.312114E-17	1.019951E-16
2.160000E+03	6.606778E-17	1.062116E-16
2.200000E+03	6.932887E-17	1.108257E-16
2.240000E+03	7.294158E-17	1.158763E-16
2.280000E+03	7.694752E-17	1.214055E-16
2.320000E+03	8.140778E-17	1.274819E-16
2.360000E+03	8.634556E-17	1.341098E-16
2.400000E+03	9.183181E-17	1.413634E-16
2.440000E+03	9.792916E-17	1.492979E-16
2.480000E+03	1.047246E-16	1.579995E-16
2.520000E+03	1.122551E-16	1.674724E-16
2.560000E+03	1.206158E-16	1.778039E-16
2.600000E+03	1.299104E-16	1.890874E-16
2.640000E+03	1.401751E-16	2.013142E-16
2.680000E+03	1.515099E-16	2.145683E-16
2.720000E+03	1.640155E-16	2.289347E-16
2.760000E+03	1.776938E-16	2.443660E-16
2.800000E+03	1.926448E-16	2.609624E-16
2.840000E+03	2.088112E-16	2.786253E-16
2.880000E+03	2.262356E-16	2.974126E-16
2.920000E+03	2.447614E-16	3.171429E-16
2.960000E+03	2.643356E-16	3.377984E-16
3.000000E+03	2.846643E-16	3.590755E-16
3.010000E+03	2.898799E-16	3.645216E-16
3.020000E+03	2.950725E-16	3.699252E-16
3.030000E+03	3.003417E-16	3.754130E-16
3.040000E+03	3.055755E-16	3.808463E-16
3.050000E+03	3.108213E-16	3.862860E-16
3.060000E+03	3.161298E-16	3.917965E-16
3.070000E+03	3.213830E-16	3.972327E-16
3.080000E+03	3.266302E-16	4.026574E-16
3.090000E+03	3.319248E-16	4.081376E-16
3.100000E+03	3.371425E-16	4.135214E-16
3.110000E+03	3.423965E-16	4.189492E-16
3.120000E+03	3.475589E-16	4.242654E-16
3.130000E+03	3.526834E-16	4.295368E-16
3.140000E+03	3.578276E-16	4.348343E-16
3.150000E+03	3.628579E-16	4.399962E-16
3.160000E+03	3.678969E-16	4.451719E-16
3.170000E+03	3.728075E-16	4.501961E-16
3.180000E+03	3.776486E-16	4.551403E-16
3.190000E+03	3.824826E-16	4.600802E-16
3.200000E+03	3.871679E-16	4.648451E-16
3.210000E+03	3.918366E-16	4.695941E-16
3.220000E+03	3.963442E-16	4.741536E-16
3.230000E+03	4.008266E-16	4.786862E-16
3.240000E+03	4.051368E-16	4.830159E-16
3.250000E+03	4.093414E-16	4.872220E-16
3.260000E+03	4.135105E-16	4.913872E-16
3.270000E+03	4.174936E-16	4.953318E-16
3.280000E+03	4.214360E-16	4.992279E-16
3.290000E+03	4.251851E-16	5.028937E-16
3.300000E+03	4.288135E-16	5.064144E-16
3.310000E+03	4.323965E-16	5.098780E-16
3.320000E+03	4.357788E-16	5.131005E-16
3.330000E+03	4.391148E-16	5.162623E-16
3.340000E+03	4.422474E-16	5.191779E-16
3.350000E+03	4.452545E-16	5.219379E-16
3.360000E+03	4.482163E-16	5.246352E-16
3.370000E+03	4.509741E-16	5.270824E-16
3.380000E+03	4.536893E-16	5.294675E-16
3.390000E+03	4.562019E-16	5.316022E-16
3.400000E+03	4.586760E-16	5.336768E-16
3.410000E+03	4.609502E-16	5.355023E-16
3.420000E+03	4.631085E-16	5.371751E-16
3.430000E+03	4.652364E-16	5.387932E-16
3.440000E+03	4.671711E-16	5.401667E-16
3.450000E+03	4.690820E-16	5.414903E-16
3.460000E+03	4.708054E-16	5.425735E-16
3.470000E+03	4.724280E-16	5.435155E-16
3.480000E+03	4.740381E-16	5.444163E-16
3.490000E+03	4.754705E-16	5.450848E-16
3.500000E+03	4.768985E-16	5.457183E-16
3.510000E+03	4.781560E-16	5.461254E-16
3.520000E+03	4.794174E-16	5.465041E-16
3.530000E+03	4.805160E-16	5.466626E-16
3.540000E+03	4.815411E-16	5.467015E-16
3.550000E+03	4.825830E-16	5.467214E-16
3.560000E+03	4.834736E-16	5.465305E-16
3.570000E+03	4.843893E-16	5.463266E-16
3.580000E+03	4.851615E-16	5.459178E-16
3.590000E+03	4.858804E-16	5.454041E-16
3.600000E+03	4.866366E-16	5.448853E-16
3.610000E+03	4.872604E-16	5.441695E-16
3.620000E+03	4.879292E-16	5.434529E-16
3.630000E+03	4.884727E-16	5.425437E-16
3.640000E+03	4.890682E-16	5.416371E-16
3.650000E+03	4.895449E-16	5.405415E-16
3.660000E+03	4.899930E-16	5.393547E-16
3.670000E+03	4.905029E-16	5.381738E-16
3.680000E+03	4.909026E-16	5.368074E-16
3.690000E+03	4.913697E-16	5.354474E-16
3.700000E+03	4.917316E-16	5.339030E-16
3.710000E+03	4.920782E-16	5.322696E-16
3.720000E+03	4.924992E-16	5.306414E-16
3.730000E+03	4.928211E-16	5.288281E-16
3.740000E+03	4.932214E-16	5.270175E-16
3.750000E+03	4.935258E-16	5.250201E-16
3.760000E+03	4.939115E-16	5.230216E-16
3.770000E+03	4.942039E-16	5.208333E-16
3.780000E+03	4.944920E-16	5.185466E-16
3.790000E+03	4.948646E-16	5.162509E-16
3.800000E+03	4.951464E-16	5.137590E-16
3.810000E+03	4.955141E-16	5.112514E-16
3.820000E+03	4.957919E-16	5.085422E-16
3.830000E+03	4.960681E-16	5.057194E-16
3.840000E+03	4.964314E-16	5.028688E-16
3.850000E+03	4.967050E-16	4.998069E-16
3.860000E+03	4.970659E-16	4.967081E-16
3.870000E+03	4.973369E-16	4.933908E-16
3.880000E+03	4.976949E-16	4.900268E-16
3.890000E+03	4.979626E-16	4.864364E-16
3.900000E+03	4.982283E-16	4.827030E-16
3.910000E+03	4.985804E-16	4.789071E-16
3.920000E+03	4.988413E-16	4.748728E-16
3.930000E+03	4.991881E-16	4.707651E-16
3.940000E+03	4.994432E-16	4.664109E-16
3.950000E+03	4.996950E-16	4.618900E-16
3.960000E+03	5.000324E-16	4.572790E-16
3.970000E+03	5.002775E-16	4.524096E-16
3.980000E+03	5.006081E-16	4.474389E-16
3.990000E+03	5.008464E-16	4.422025E-16
4.000000E+03	5.010815E-16	4.367762E-16
4.010000E+03	5.014028E-16	4.312323E-16
4.020000E+03	5.016324E-16	4.254123E-16
4.030000E+03	5.019491E-16	4.194643E-16
4.040000E+03	5.021749E-16	4.132341E-16
4.050000E+03	5.023997E-16	4.067935E-16
4.060000E+03	5.027134E-16	4.002099E-16
4.070000E+03	5.029381E-16	3.933366E-16
4.080000E+03	5.032533E-16	3.863111E-16
4.090000E+03	5.034810E-16	3.789920E-16
4.100000E+03	5.037113E-16	3.714465E-16
4.110000E+03	5.040345E-16	3.637368E-16
4.120000E+03	5.042724E-16	3.557302E-16
4.130000E+03	5.046047E-16	3.475531E-16
4.140000E+03	5.048528E-16	3.390794E-16
4.150000E+03	5.051066E-16	3.303720E-16
4.160000E+03	5.054562E-16	3.214885E-16
4.170000E+03	5.057221E-16	3.123146E-16
4.180000E+03	5.060837E-16	3.029655E-16
4.190000E+03	5.063609E-16	2.933360E-16
4.200000E+03	5.066426E-16	2.834877E-16
4.210000E+03	5.070175E-16	2.734776E-16
4.220000E+03	5.073042E-16	2.632181E-16
4.230000E+03	5.076805E-16	2.528193E-16
4.240000E+03	5.079637E-16	2.422093E-16
4.250000E+03	5.082404E-16	2.314602E-16
4.260000E+03	5.085972E-16	2.206442E-16
4.270000E+03	5.088489E-16	2.097234E-16
4.280000E+03	5.090804E-16	1.987935E-16
4.290000E+03	5.093759E-16	1.879584E-16
4.300000E+03	5.095479E-16	1.772397E-16
4.310000E+03	5.097691E-16	1.668179E-16
4.320000E+03	5.098502E-16	1.567798E-16
4.330000E+03	5.098718E-16	1.473424E-16
4.340000E+03	5.099141E-16	1.387598E-16
4.350000E+03	5.097849E-16	1.312552E-16
4.360000E+03	5.095629E-16	1.251633E-16
4.370000E+03	5.093267E-16	1.208219E-16
4.380000E+03	5.088848E-16	1.184610E-16
4.390000E+03	5.084108E-16	1.182842E-16
4.400000E+03	5.077244E-16	1.202374E-16
4.410000E+03	5.069222E-16	1.241587E-16
4.420000E+03	5.061042E-16	1.297797E-16
4.430000E+03	5.051021E-16	1.367263E-16
4.440000E+03	5.040167E-16	1.447026E-16
4.450000E+03	5.029479E-16	1.534562E-16
4.460000E+03	5.017271E-16	1.627011E-16
4.470000E+03	5.004527E-16	1.722752E-16
4.480000E+03	4.992216E-16	1.820624E-16
4.490000E+03	4.978645E-16	1.918838E-16
4.500000E+03	4.964770E-16	2.016802E-16
4.510000E+03	4.951534E-16	2.114195E-16
4.520000E+03	4.937237E-16	2.209751E-16
4.530000E+03	4.923686E-16	2.303824E-16
4.540000E+03	4.909183E-16	2.395303E-16
4.550000E+03	4.894648E-16	2.484343E-16
4.560000E+03	4.880988E-16	2.571226E-16
4.570000E+03	4.866511E-16	2.654931E-16
4.580000E+03	4.852122E-16	2.735809E-16
4.590000E+03	4.838713E-16	2.814306E-16
4.600000E+03	4.824602E-16	2.889406E-16
4.610000E+03	4.810680E-16	2.961587E-16
4.620000E+03	4.797830E-16	3.031391E-16
4.630000E+03	4.784382E-16	3.097780E-16
4.640000E+03	4.771217E-16	3.161311E-16
4.650000E+03	4.759209E-16	3.222597E-16
4.660000E+03	4.746699E-16	3.280558E-16
4.670000E+03	4.734563E-16	3.335810E-16
4.680000E+03	4.723665E-16	3.389013E-16
4.690000E+03	4.712359E-16	3.439041E-16
4.700000E+03	4.701512E-16	3.486554E-16
4.710000E+03	4.691151E-16	3.531620E-16
4.720000E+03	4.682131E-16	3.574943E-16
4.730000E+03	4.672822E-16	3.615335E-16
4.740000E+03	4.664078E-16	3.653493E-16
4.750000E+03	4.656748E-16	3.690140E-16
4.760000E+03	4.649208E-16	3.724044E-16
4.770000E+03	4.642306E-16	3.755920E-16
4.780000E+03	4.636884E-16	3.786501E-16
4.790000E+03	4.631323E-16	3.814517E-16
4.800000E+03	4.626464E-16	3.840691E-16
4.810000E+03	4.623144E-16	3.865764E-16
4.820000E+03	4.619745E-16	3.888424E-16
4.830000E+03	4.617101E-16	3.909401E-16
4.840000E+03	4.615230E-16	3.928739E-16
4.850000E+03	4.614961E-16	3.947179E-16
4.860000E+03	4.614675E-16	3.963364E-16
4.870000E+03	4.615202E-16	3.978022E-16
4.880000E+03	4.617367E-16	3.991885E-16
4.890000E+03	4.619549E-16	4.003568E-16
4.900000E+03	4.622571E-16	4.013793E-16
4.910000E+03	4.626442E-16	4.022573E-16
4.920000E+03	4.631986E-16	4.030629E-16
4.930000E+03	4.637571E-16	4.036540E-16
4.940000E+03	4.644019E-16	4.041017E-16
4.950000E+03	4.652153E-16	4.044766E-16
4.960000E+03	4.660333E-16	4.046347E-16
4.970000E+03	4.669379E-16	4.046455E-16
4.980000E+03	4.679290E-16	4.045069E-16
4.990000E+03	4.690890E-16	4.042875E-16
5.000000E+03	4.702522E-16	4.038409E-16
5.010000E+03	4.715006E-16	4.032348E-16
5.020000E+03	4.728335E-16	4.024648E-16
5.030000E+03	4.743339E-16	4.015967E-16
5.040000E+03	4.758335E-16	4.004831E-16
5.050000E+03	4.774147E-16	3.991890E-16
5.060000E+03	4.790762E-16	3.977078E-16
5.070000E+03	4.809015E-16	3.961024E-16
5.080000E+03	4.827194E-16	3.942250E-16
5.090000E+03	4.846126E-16	3.921377E-16
5.100000E+03	4.865792E-16	3.898318E-16
5.110000E+03	4.887032E-16	3.873666E-16
5.120000E+03	4.908100E-16	3.845954E-16
5.130000E+03	4.929828E-16	3.815769E-16
5.140000E+03	4.952188E-16	3.783007E-16
5.150000E+03	4.976027E-16	3.748221E-16
5.160000E+03	4.999558E-16	3.709970E-16
5.170000E+03	5.023620E-16	3.668806E-16
5.180000E+03	5.048173E-16	3.624612E-16
5.190000E+03	5.073175E-16	3.577269E-16
5.200000E+03	5.099482E-16	3.527276E-16
5.210000E+03	5.125249E-16	3.473257E-16
5.220000E+03	5.151322E-16	3.415723E-16
5.230000E+03	5.177647E-16	3.354550E-16
5.240000E+03	5.205084E-16	3.290202E-16
5.250000E+03	5.231739E-16	3.221387E-16
5.260000E+03	5.258463E-16	3.148587E-16
5.270000E+03	5.285187E-16	3.071696E-16
5.280000E+03	5.311838E-16	2.990618E-16
5.290000E+03	5.339284E-16	2.905777E-16
5.300000E+03	5.365563E-16	2.816061E-16
5.310000E+03	5.391531E-16	2.721939E-16
5.320000E+03	5.417097E-16	2.623375E-16
5.330000E+03	5.442168E-16	2.520359E-16
5.340000E+03	5.467611E-16	2.413338E-16
5.350000E+03	5.491398E-16	2.301506E-16
5.360000E+03	5.514379E-16	2.185423E-16
5.370000E+03	5.536440E-16	2.065277E-16
5.380000E+03	5.557459E-16	1.941345E-16
5.390000E+03	5.578293E-16	1.814352E-16
5.400000E+03	5.596842E-16	1.684214E-16
5.410000E+03	5.613944E-16	1.552102E-16
5.420000E+03	5.629446E-16	1.419210E-16
5.430000E+03	5.643188E-16	1.287276E-16
5.440000E+03	5.655002E-16	1.158867E-16
5.450000E+03	5.665709E-16	1.037982E-16
5.460000E+03	5.673124E-16	9.298657E-17
5.470000E+03	5.678056E-16	8.426270E-17
5.480000E+03	5.680326E-16	7.859934E-17
5.490000E+03	5.679801E-16	7.687623E-17
5.500000E+03	5.676452E-16	7.940433E-17
5.510000E+03	5.671383E-16	8.571947E-17
5.520000E+03	5.662786E-16	9.484892E-17
5.530000E+03	5.651889E-16	1.058558E-16
5.540000E+03	5.638924E-16	1.179989E-16
5.550000E+03	5.624116E-16	1.307599E-16
5.560000E+03	5.607681E-16	1.437905E-16
5.570000E+03	5.589821E-16	1.568577E-16
5.580000E+03	5.571711E-16	1.698349E-16
5.590000E+03	5.551561E-16	1.825579E-16
5.600000E+03	5.530526E-16	1.949817E-16
5.610000E+03	5.508764E-16	2.070565E-16
5.620000E+03	5.486423E-16	2.187490E-16
5.630000E+03	5.463639E-16	2.300374E-16
5.640000E+03	5.440541E-16	2.409083E-16
5.650000E+03	5.417249E-16	2.513549E-16
5.660000E+03	5.394825E-16	2.614211E-16
5.670000E+03	5.371465E-16	2.710179E-16
5.680000E+03	5.348219E-16	2.801939E-16
5.690000E+03	5.325175E-16	2.889555E-16
5.700000E+03	5.302415E-16	2.973108E-16
5.710000E+03	5.280013E-16	3.052688E-16
5.720000E+03	5.258037E-16	3.128399E-16
5.730000E+03	5.236549E-16	3.200346E-16
5.740000E+03	5.215607E-16	3.268641E-16
5.750000E+03	5.196178E-16	3.333986E-16
5.760000E+03	5.176475E-16	3.395332E-16
5.770000E+03	5.157460E-16	3.453369E-16
5.780000E+03	5.139171E-16	3.508211E-16
5.790000E+03	5.121644E-16	3.559969E-16
5.800000E+03	5.104911E-16	3.608753E-16
5.810000E+03	5.089000E-16	3.654666E-16
5.820000E+03	5.073938E-16	3.697813E-16
5.830000E+03	5.059747E-16	3.738290E-16
5.840000E+03	5.046450E-16	3.776191E-16
5.850000E+03	5.034951E-16	3.812277E-16
5.860000E+03	5.023493E-16	3.845295E-16
5.870000E+03	5.012980E-16	3.875988E-16
5.880000E+03	5.003427E-16	3.904432E-16
5.890000E+03	4.994844E-16	3.930694E-16
5.900000E+03	4.987245E-16	3.954838E-16
5.910000E+03	4.980637E-16	3.976922E-16
5.920000E+03	4.975030E-16	3.996998E-16
5.930000E+03	4.970429E-16	4.015111E-16
5.940000E+03	4.966841E-16	4.031300E-16
5.950000E+03	4.964267E-16	4.045600E-16
5.960000E+03	4.962710E-16	4.058037E-16
5.970000E+03	4.962169E-16	4.068631E-16
5.980000E+03	4.962640E-16	4.077394E-16
5.990000E+03	4.964118E-16	4.084332E-16
6.000000E+03	4.967470E-16	4.090165E-16
6.010000E+03	4.970934E-16	4.093441E-16
6.020000E+03	4.975371E-16	4.094863E-16
6.030000E+03	4.980763E-16	4.094406E-16
6.040000E+03	4.987085E-16	4.092036E-16
6.050000E+03	4.994314E-16	4.087711E-16
6.060000E+03	5.002417E-16	4.081382E-16
6.070000E+03	5.011358E-16	4.072989E-16
6.080000E+03	5.021099E-16	4.062466E-16
6.090000E+03	5.031593E-16	4.049739E-16
6.100000E+03	5.042791E-16	4.034726E-16
6.110000E+03	5.054637E-16	4.017337E-16
6.120000E+03	5.067072E-16	3.997476E-16
6.130000E+03	5.080028E-16	3.975040E-16
6.140000E+03	5.093438E-16	3.949920E-16
6.150000E+03	5.107226E-16	3.922004E-16
6.160000E+03	5.121313E-16	3.891174E-16
6.170000E+03	5.135617E-16	3.857309E-16
6.180000E+03	5.150050E-16	3.820288E-16
6.190000E+03	5.164525E-16	3.779987E-16
6.200000E+03	5.178949E-16	3.736282E-16
6.210000E+03	5.193228E-16	3.689053E-16
6.220000E+03	5.207269E-16	3.638181E-16
6.230000E+03	5.220975E-16	3.583550E-16
6.240000E+03	5.234252E-16	3.525052E-16
6.250000E+03	5.247005E-16	3.462584E-16
6.260000E+03	5.259142E-16	3.396051E-16
6.270000E+03	5.270572E-16	3.325368E-16
6.280000E+03	5.281206E-16	3.250459E-16
6.290000E+03	5.290960E-16	3.171261E-16
6.300000E+03	5.299753E-16	3.087722E-16
6.310000E+03	5.307506E-16	2.999805E-16
6.320000E+03	5.314145E-16	2.907486E-16
6.330000E+03	5.319603E-16	2.810759E-16
6.340000E+03	5.323811E-16	2.709633E-16
6.350000E+03	5.326710E-16	2.604136E-16
6.360000E+03	5.328240E-16	2.494316E-16
6.370000E+03	5.328346E-16	2.380245E-16
6.380000E+03	5.326975E-16	2.262017E-16
6.390000E+03	5.324076E-16	2.139759E-16
6.400000E+03	5.319598E-16	2.013633E-16
6.410000E+03	5.313490E-16	1.883843E-16
6.420000E+03	5.305700E-16	1.750655E-16
6.430000E+03	5.296173E-16	1.614413E-16
6.440000E+03	5.284851E-16	1.475572E-16
6.450000E+03	5.271670E-16	1.334758E-16
6.460000E+03	5.256559E-16	1.192858E-16
6.470000E+03	5.239442E-16	1.051192E-16
6.480000E+03	5.220231E-16	9.118308E-17
6.490000E+03	5.198830E-16	7.781922E-17
6.500000E+03	5.175135E-16	6.561740E-17
6.510000E+03	5.149040E-16	5.559525E-17
6.520000E+03	5.120452E-16	4.930718E-17
6.530000E+03	5.088445E-16	4.829156E-17
6.540000E+03	5.054906E-16	5.272123E-17
6.550000E+03	5.019146E-16	6.111880E-17
6.560000E+03	4.981445E-16	7.176418E-17
6.570000E+03	4.942097E-16	8.348115E-17
6.580000E+03	4.901383E-16	9.559474E-17
6.590000E+03	4.859562E-16	1.077293E-16
6.600000E+03	4.816875E-16	1.196723E-16
6.610000E+03	4.773540E-16	1.313005E-16
6.620000E+03	4.729754E-16	1.425419E-16
6.630000E+03	4.685697E-16	1.533550E-16
6.640000E+03	4.641532E-16	1.637174E-16
6.650000E+03	4.597403E-16	1.736193E-16
6.660000E+03	4.553444E-16	1.830592E-16
6.670000E+03	4.509774E-16	1.920415E-16
6.680000E+03	4.466497E-16	2.005743E-16
6.690000E+03	4.422932E-16	2.086323E-16
6.700000E+03	4.380729E-16	2.163008E-16
6.710000E+03	4.339178E-16	2.235594E-16
6.720000E+03	4.298347E-16	2.304236E-16
6.730000E+03	4.258295E-16	2.369099E-16
6.740000E+03	4.219076E-16	2.430350E-16
6.750000E+03	4.180737E-16	2.488157E-16
6.760000E+03	4.143317E-16	2.542690E-16
6.770000E+03	4.106854E-16	2.594117E-16
6.780000E+03	4.071375E-16	2.642601E-16
6.790000E+03	4.036908E-16	2.688306E-16
6.800000E+03	4.002767E-16	2.730908E-16
6.810000E+03	3.970388E-16	2.771516E-16
6.820000E+03	3.939072E-16	2.809805E-16
6.830000E+03	3.908829E-16	2.845918E-16
6.840000E+03	3.879667E-16	2.879991E-16
6.850000E+03	3.851590E-16	2.912158E-16
6.860000E+03	3.824599E-16	2.942544E-16
6.870000E+03	3.798692E-16	2.971267E-16
6.880000E+03	3.773865E-16	2.998443E-16
6.890000E+03	3.750112E-16	3.024177E-16
6.900000E+03	3.726768E-16	3.048032E-16
6.910000E+03	3.705139E-16	3.071175E-16
6.920000E+03	3.684550E-16	3.093160E-16
6.930000E+03	3.664986E-16	3.114068E-16
6.940000E+03	3.646430E-16	3.133976E-16
6.950000E+03	3.628862E-16	3.152951E-16
6.960000E+03	3.612260E-16	3.171058E-16
6.970000E+03	3.596600E-16	3.188352E-16
6.980000E+03	3.581225E-16	3.204320E-16
6.990000E+03	3.567373E-16	3.220133E-16
7.000000E+03	3.554379E-16	3.235268E-16
7.010000E+03	3.542210E-16	3.249757E-16
7.020000E+03	3.530835E-16	3.263628E-16
7.030000E+03	3.520215E-16	3.276901E-16
7.040000E+03	3.510314E-16	3.289594E-16
7.050000E+03	3.501092E-16	3.301716E-16
7.060000E+03	3.491892E-16	3.312690E-16
7.070000E+03	3.483904E-16	3.323682E-16
7.080000E+03	3.476466E-16	3.334107E-16
7.090000E+03	3.469533E-16	3.343957E-16
7.100000E+03	3.463058E-16	3.353220E-16
7.110000E+03	3.456994E-16	3.361880E-16
7.120000E+03	3.451292E-16	3.369919E-16
7.130000E+03	3.445297E-16	3.376720E-16
7.140000E+03	3.440176E-16	3.383448E-16
7.150000E+03	3.435273E-16	3.389484E-16
7.160000E+03	3.430540E-16	3.394801E-16
7.170000E+03	3.425932E-16	3.399371E-16
7.180000E+03	3.421402E-16	3.403166E-16
7.190000E+03	3.416307E-16	3.405555E-16
7.200000E+03	3.411811E-16	3.407715E-16
7.210000E+03	3.407271E-16	3.409016E-16
7.220000E+03	3.402654E-16	3.409436E-16
7.230000E+03	3.397926E-16	3.408950E-16
7.240000E+03	3.393059E-16	3.407540E-16
7.250000E+03	3.387431E-16	3.404585E-16
7.260000E+03	3.382216E-16	3.401275E-16
7.270000E+03	3.376799E-16	3.396997E-16
7.280000E+03	3.371169E-16	3.391744E-16
7.290000E+03	3.365317E-16	3.385511E-16
7.300000E+03	3.359239E-16	3.378299E-16
7.310000E+03	3.352344E-16	3.369516E-16
7.320000E+03	3.345822E-16	3.360360E-16
7.330000E+03	3.339089E-16	3.350246E-16
7.340000E+03	3.332158E-16	3.339187E-16
7.350000E+03	3.325045E-16	3.327200E-16
7.360000E+03	3.317186E-16	3.313719E-16
7.370000E+03	3.309776E-16	3.299939E-16
7.380000E+03	3.302253E-16	3.285294E-16
7.390000E+03	3.294647E-16	3.269811E-16
7.400000E+03	3.286987E-16	3.253513E-16
7.410000E+03	3.279305E-16	3.236429E-16
7.420000E+03	3.271058E-16	3.218015E-16
7.430000E+03	3.263435E-16	3.199437E-16
7.440000E+03	3.255893E-16	3.180149E-16
7.450000E+03	3.248465E-16	3.160173E-16
7.460000E+03	3.241186E-16	3.139531E-16
7.470000E+03	3.233519E-16	3.117692E-16
7.480000E+03	3.226639E-16	3.095779E-16
7.490000E+03	3.220006E-16	3.073249E-16
7.500000E+03	3.213650E-16	3.050115E-16
7.510000E+03	3.207598E-16	3.026383E-16
7.520000E+03	3.201313E-16	3.001527E-16
7.530000E+03	3.195949E-16	2.976611E-16
7.540000E+03	3.190963E-16	2.951096E-16
7.550000E+03	3.186374E-16	2.924974E-16
7.560000E+03	3.181638E-16	2.897719E-16
7.570000E+03	3.177894E-16	2.870344E-16
7.580000E+03	3.174590E-16	2.842311E-16
7.590000E+03	3.171738E-16	2.813593E-16
7.600000E+03	3.169343E-16	2.784162E-16
7.610000E+03	3.166850E-16	2.753496E-16
7.620000E+03	3.165380E-16	2.722537E-16
7.630000E+03	3.164372E-16	2.690750E-16
7.640000E+03	3.163824E-16	2.658090E-16
7.650000E+03	3.163168E-16	2.624044E-16
7.660000E+03	3.163516E-16	2.589493E-16
7.670000E+03	3.164295E-16	2.553912E-16
7.680000E+03	3.165494E-16	2.517241E-16
7.690000E+03	3.167096E-16	2.479419E-16
7.700000E+03	3.168523E-16	2.439952E-16
7.710000E+03	3.170873E-16	2.399642E-16
7.720000E+03	3.173563E-16	2.357985E-16
7.730000E+03	3.176570E-16	2.314909E-16
7.740000E+03	3.179302E-16	2.269945E-16
7.750000E+03	3.182853E-16	2.223831E-16
7.760000E+03	3.186631E-16	2.176087E-16
