#wls	flux	fluxerr
1.548287E+03	1.174505E-02	2.615561E-07
1.586994E+03	1.215557E-02	2.706982E-07
1.625702E+03	1.239089E-02	2.759387E-07
1.664409E+03	1.242343E-02	2.766634E-07
1.703116E+03	1.222926E-02	2.723393E-07
1.741823E+03	1.179934E-02	2.627651E-07
1.780530E+03	1.113848E-02	2.480482E-07
1.819237E+03	1.028545E-02	2.290517E-07
1.857945E+03	9.310808E-03	2.073468E-07
1.896652E+03	8.320486E-03	1.852929E-07
1.935359E+03	7.457951E-03	1.660847E-07
1.974066E+03	6.890313E-03	1.534437E-07
2.012773E+03	6.792964E-03	1.512757E-07
2.051481E+03	7.328915E-03	1.632111E-07
2.090188E+03	8.655719E-03	1.927583E-07
2.128895E+03	1.092321E-02	2.432541E-07
2.167602E+03	1.422390E-02	3.167588E-07
2.206309E+03	1.849321E-02	4.118341E-07
2.245016E+03	2.344369E-02	5.220786E-07
2.283724E+03	2.860383E-02	6.369922E-07
2.322431E+03	3.343209E-02	7.445151E-07
2.361138E+03	3.749931E-02	8.350899E-07
2.399845E+03	4.066815E-02	9.056583E-07
2.438552E+03	4.327031E-02	9.636069E-07
2.477260E+03	4.616241E-02	1.028012E-06
2.515967E+03	5.021718E-02	1.118310E-06
2.554674E+03	5.459148E-02	1.215723E-06
2.593381E+03	5.994881E-02	1.335028E-06
2.632088E+03	6.751010E-02	1.503414E-06
2.670795E+03	7.669914E-02	1.708049E-06
2.709503E+03	8.654428E-02	1.927295E-06
2.748210E+03	9.615858E-02	2.141400E-06
2.786917E+03	1.048577E-01	2.335126E-06
2.825624E+03	1.121944E-01	2.498510E-06
2.864331E+03	1.179536E-01	2.626763E-06
2.903039E+03	1.221266E-01	2.719694E-06
2.912715E+03	1.229363E-01	2.737725E-06
2.922392E+03	1.236562E-01	2.753758E-06
2.932069E+03	1.242948E-01	2.767978E-06
2.941746E+03	1.248521E-01	2.780391E-06
2.951422E+03	1.253467E-01	2.791404E-06
2.961099E+03	1.257918E-01	2.801316E-06
2.970776E+03	1.261902E-01	2.810188E-06
2.980453E+03	1.265369E-01	2.817908E-06
2.990130E+03	1.268407E-01	2.824674E-06
2.999806E+03	1.270972E-01	2.830386E-06
3.009483E+03	1.273128E-01	2.835188E-06
3.019160E+03	1.274890E-01	2.839112E-06
3.028837E+03	1.276248E-01	2.842136E-06
3.038514E+03	1.277269E-01	2.844410E-06
3.048190E+03	1.277948E-01	2.845921E-06
3.057867E+03	1.278327E-01	2.846766E-06
3.067544E+03	1.278429E-01	2.846993E-06
3.077221E+03	1.278275E-01	2.846651E-06
3.086898E+03	1.277913E-01	2.845843E-06
3.096574E+03	1.277366E-01	2.844627E-06
3.106251E+03	1.276640E-01	2.843009E-06
3.115928E+03	1.275807E-01	2.841155E-06
3.125605E+03	1.274877E-01	2.839083E-06
3.135282E+03	1.273906E-01	2.836921E-06
3.144958E+03	1.272931E-01	2.834749E-06
3.154635E+03	1.271975E-01	2.832619E-06
3.164312E+03	1.271127E-01	2.830732E-06
3.173989E+03	1.270401E-01	2.829116E-06
3.183666E+03	1.269900E-01	2.828000E-06
3.193342E+03	1.269692E-01	2.827537E-06
3.203019E+03	1.269819E-01	2.827819E-06
3.212696E+03	1.270403E-01	2.829119E-06
3.222373E+03	1.271540E-01	2.831650E-06
3.232050E+03	1.273307E-01	2.835587E-06
3.241726E+03	1.275806E-01	2.841150E-06
3.251403E+03	1.279125E-01	2.848543E-06
3.261080E+03	1.283338E-01	2.857925E-06
3.270757E+03	1.288477E-01	2.869370E-06
3.280434E+03	1.294510E-01	2.882804E-06
3.290110E+03	1.301288E-01	2.897898E-06
3.299787E+03	1.277028E-01	2.843873E-06
3.300731E+03	1.276903E-01	2.843595E-06
3.301674E+03	1.277065E-01	2.843956E-06
3.302618E+03	1.277274E-01	2.844419E-06
3.303561E+03	1.277577E-01	2.845095E-06
3.304505E+03	1.277402E-01	2.844705E-06
3.305448E+03	1.276891E-01	2.843567E-06
3.306392E+03	1.276332E-01	2.842322E-06
3.307335E+03	1.275772E-01	2.841076E-06
3.308278E+03	1.275450E-01	2.840359E-06
3.309222E+03	1.275415E-01	2.840280E-06
3.310165E+03	1.275235E-01	2.839879E-06
3.311109E+03	1.274959E-01	2.839265E-06
3.312052E+03	1.274539E-01	2.838329E-06
3.312996E+03	1.274022E-01	2.837178E-06
3.313939E+03	1.273743E-01	2.836557E-06
3.314883E+03	1.273655E-01	2.836361E-06
3.315826E+03	1.273662E-01	2.836377E-06
3.316770E+03	1.273717E-01	2.836499E-06
3.317713E+03	1.273483E-01	2.835978E-06
3.318657E+03	1.272914E-01	2.834711E-06
3.319600E+03	1.272440E-01	2.833654E-06
3.320544E+03	1.272012E-01	2.832703E-06
3.321487E+03	1.271968E-01	2.832604E-06
3.322431E+03	1.272209E-01	2.833141E-06
3.323374E+03	1.272306E-01	2.833357E-06
3.324318E+03	1.272211E-01	2.833146E-06
3.325261E+03	1.271446E-01	2.831442E-06
3.326205E+03	1.270152E-01	2.828561E-06
3.327148E+03	1.268907E-01	2.825787E-06
3.328092E+03	1.267660E-01	2.823011E-06
3.329035E+03	1.267034E-01	2.821617E-06
3.329979E+03	1.266935E-01	2.821397E-06
3.330922E+03	1.266500E-01	2.820428E-06
3.331866E+03	1.265729E-01	2.818710E-06
3.332809E+03	1.264814E-01	2.816672E-06
3.333753E+03	1.263754E-01	2.814312E-06
3.334696E+03	1.262741E-01	2.812055E-06
3.335640E+03	1.261727E-01	2.809799E-06
3.336583E+03	1.260473E-01	2.807006E-06
3.337527E+03	1.258979E-01	2.803679E-06
3.338470E+03	1.257532E-01	2.800455E-06
3.339414E+03	1.255989E-01	2.797019E-06
3.340357E+03	1.254971E-01	2.794753E-06
3.341301E+03	1.254384E-01	2.793446E-06
3.342244E+03	1.253556E-01	2.791603E-06
3.343188E+03	1.252441E-01	2.789119E-06
3.344131E+03	1.250894E-01	2.785673E-06
3.345075E+03	1.249010E-01	2.781477E-06
3.346018E+03	1.247508E-01	2.778134E-06
3.346961E+03	1.246293E-01	2.775428E-06
3.347905E+03	1.244599E-01	2.771656E-06
3.348848E+03	1.242568E-01	2.767132E-06
3.349792E+03	1.240776E-01	2.763141E-06
3.350735E+03	1.239223E-01	2.759682E-06
3.351679E+03	1.238005E-01	2.756970E-06
3.352622E+03	1.237121E-01	2.755002E-06
3.353566E+03	1.236046E-01	2.752608E-06
3.354509E+03	1.234922E-01	2.750104E-06
3.355453E+03	1.233653E-01	2.747278E-06
3.356396E+03	1.232335E-01	2.744343E-06
3.357340E+03	1.230968E-01	2.741300E-06
3.358283E+03	1.229505E-01	2.738042E-06
3.359227E+03	1.228138E-01	2.734998E-06
3.360170E+03	1.226865E-01	2.732163E-06
3.361114E+03	1.225640E-01	2.729434E-06
3.362057E+03	1.224462E-01	2.726812E-06
3.363001E+03	1.223332E-01	2.724295E-06
3.363944E+03	1.222249E-01	2.721883E-06
3.364888E+03	1.221165E-01	2.719469E-06
3.365831E+03	1.220129E-01	2.717161E-06
3.366775E+03	1.219092E-01	2.714852E-06
3.367718E+03	1.218103E-01	2.712649E-06
3.368662E+03	1.217112E-01	2.710442E-06
3.369605E+03	1.216121E-01	2.708237E-06
3.370549E+03	1.215178E-01	2.706135E-06
3.371492E+03	1.214378E-01	2.704354E-06
3.372436E+03	1.213289E-01	2.701929E-06
3.373379E+03	1.211912E-01	2.698862E-06
3.374323E+03	1.210389E-01	2.695472E-06
3.375266E+03	1.208674E-01	2.691652E-06
3.376210E+03	1.207391E-01	2.688794E-06
3.377153E+03	1.206492E-01	2.686793E-06
3.378097E+03	1.205447E-01	2.684466E-06
3.379040E+03	1.204354E-01	2.682031E-06
3.379984E+03	1.202973E-01	2.678956E-06
3.380927E+03	1.201254E-01	2.675128E-06
3.381871E+03	1.199631E-01	2.671513E-06
3.382814E+03	1.198007E-01	2.667897E-06
3.383757E+03	1.196863E-01	2.665349E-06
3.384701E+03	1.196151E-01	2.663765E-06
3.385644E+03	1.194910E-01	2.661000E-06
3.386588E+03	1.193284E-01	2.657379E-06
3.387531E+03	1.191754E-01	2.653972E-06
3.388475E+03	1.190270E-01	2.650668E-06
3.389418E+03	1.189075E-01	2.648007E-06
3.390362E+03	1.188072E-01	2.645771E-06
3.391305E+03	1.187164E-01	2.643749E-06
3.392249E+03	1.186399E-01	2.642046E-06
3.393192E+03	1.185538E-01	2.640130E-06
3.394136E+03	1.184676E-01	2.638211E-06
3.395079E+03	1.183815E-01	2.636292E-06
3.396023E+03	1.182953E-01	2.634372E-06
3.396966E+03	1.182186E-01	2.632664E-06
3.397910E+03	1.181755E-01	2.631705E-06
3.398853E+03	1.181757E-01	2.631709E-06
3.399797E+03	1.182143E-01	2.632568E-06
3.400740E+03	1.182673E-01	2.633748E-06
3.401684E+03	1.182865E-01	2.634177E-06
3.402627E+03	1.182192E-01	2.632677E-06
3.403571E+03	1.181133E-01	2.630320E-06
3.404514E+03	1.180122E-01	2.628069E-06
3.405458E+03	1.178967E-01	2.625497E-06
3.406401E+03	1.177715E-01	2.622707E-06
3.407345E+03	1.176799E-01	2.620667E-06
3.408288E+03	1.176219E-01	2.619377E-06
3.409232E+03	1.175928E-01	2.618727E-06
3.410175E+03	1.176165E-01	2.619256E-06
3.411119E+03	1.176402E-01	2.619783E-06
3.412062E+03	1.176301E-01	2.619560E-06
3.413006E+03	1.176009E-01	2.618908E-06
3.413949E+03	1.175811E-01	2.618468E-06
3.414893E+03	1.176046E-01	2.618991E-06
3.415836E+03	1.176426E-01	2.619837E-06
3.416780E+03	1.176564E-01	2.620144E-06
3.417723E+03	1.176414E-01	2.619809E-06
3.418667E+03	1.176503E-01	2.620009E-06
3.419610E+03	1.176978E-01	2.621065E-06
3.420554E+03	1.176921E-01	2.620940E-06
3.421497E+03	1.176385E-01	2.619746E-06
3.422440E+03	1.176136E-01	2.619191E-06
3.423384E+03	1.176128E-01	2.619173E-06
3.424327E+03	1.176456E-01	2.619904E-06
3.425271E+03	1.177120E-01	2.621384E-06
3.426214E+03	1.177785E-01	2.622863E-06
3.427158E+03	1.178401E-01	2.624236E-06
3.428101E+03	1.179065E-01	2.625713E-06
3.429045E+03	1.179680E-01	2.627084E-06
3.429988E+03	1.180440E-01	2.628775E-06
3.430932E+03	1.181006E-01	2.630037E-06
3.431875E+03	1.181718E-01	2.631621E-06
3.432819E+03	1.182476E-01	2.633311E-06
3.433762E+03	1.183090E-01	2.634677E-06
3.434706E+03	1.183848E-01	2.636367E-06
3.435649E+03	1.184413E-01	2.637624E-06
3.436593E+03	1.184449E-01	2.637704E-06
3.437536E+03	1.184917E-01	2.638746E-06
3.438480E+03	1.185578E-01	2.640217E-06
3.439423E+03	1.186382E-01	2.642010E-06
3.440367E+03	1.187283E-01	2.644016E-06
3.441310E+03	1.187702E-01	2.644949E-06
3.442254E+03	1.188073E-01	2.645775E-06
3.443197E+03	1.188588E-01	2.646921E-06
3.444141E+03	1.189007E-01	2.647854E-06
3.445084E+03	1.189569E-01	2.649105E-06
3.446028E+03	1.190709E-01	2.651645E-06
3.446971E+03	1.191945E-01	2.654398E-06
3.447915E+03	1.193036E-01	2.656828E-06
3.448858E+03	1.194080E-01	2.659151E-06
3.449802E+03	1.194930E-01	2.661044E-06
3.450745E+03	1.195491E-01	2.662294E-06
3.451689E+03	1.196196E-01	2.663864E-06
3.452632E+03	1.197045E-01	2.665756E-06
3.453576E+03	1.198087E-01	2.668076E-06
3.454519E+03	1.199274E-01	2.670718E-06
3.455463E+03	1.200219E-01	2.672823E-06
3.456406E+03	1.200923E-01	2.674390E-06
3.457350E+03	1.201867E-01	2.676493E-06
3.458293E+03	1.203004E-01	2.679025E-06
3.459237E+03	1.203948E-01	2.681127E-06
3.460180E+03	1.204699E-01	2.682800E-06
3.461123E+03	1.205210E-01	2.683937E-06
3.462067E+03	1.205286E-01	2.684106E-06
3.463010E+03	1.204976E-01	2.683417E-06
3.463954E+03	1.204617E-01	2.682618E-06
3.464897E+03	1.204500E-01	2.682357E-06
3.465841E+03	1.204671E-01	2.682738E-06
3.466784E+03	1.205132E-01	2.683763E-06
3.467728E+03	1.205303E-01	2.684144E-06
3.468671E+03	1.205570E-01	2.684739E-06
3.469615E+03	1.206319E-01	2.686407E-06
3.470558E+03	1.206970E-01	2.687858E-06
3.471502E+03	1.207671E-01	2.689418E-06
3.472445E+03	1.208419E-01	2.691084E-06
3.473389E+03	1.209022E-01	2.692426E-06
3.474332E+03	1.209722E-01	2.693985E-06
3.475276E+03	1.210469E-01	2.695648E-06
3.476219E+03	1.210878E-01	2.696561E-06
3.477163E+03	1.211095E-01	2.697043E-06
3.478106E+03	1.211312E-01	2.697526E-06
3.479050E+03	1.211528E-01	2.698008E-06
3.479993E+03	1.212130E-01	2.699347E-06
3.480937E+03	1.213021E-01	2.701332E-06
3.481880E+03	1.213766E-01	2.702992E-06
3.482824E+03	1.214175E-01	2.703901E-06
3.483767E+03	1.214438E-01	2.704488E-06
3.484711E+03	1.214605E-01	2.704859E-06
3.485654E+03	1.214626E-01	2.704907E-06
3.486598E+03	1.214745E-01	2.705171E-06
3.487541E+03	1.214766E-01	2.705219E-06
3.488485E+03	1.214835E-01	2.705373E-06
3.489428E+03	1.215146E-01	2.706065E-06
3.490372E+03	1.215842E-01	2.707615E-06
3.491315E+03	1.217067E-01	2.710344E-06
3.492259E+03	1.218390E-01	2.713288E-06
3.493202E+03	1.219471E-01	2.715695E-06
3.494146E+03	1.220021E-01	2.716922E-06
3.495089E+03	1.219896E-01	2.716643E-06
3.496033E+03	1.219434E-01	2.715614E-06
3.496976E+03	1.218971E-01	2.714583E-06
3.497919E+03	1.218990E-01	2.714625E-06
3.498863E+03	1.219346E-01	2.715418E-06
3.499806E+03	1.219751E-01	2.716319E-06
3.500750E+03	1.220348E-01	2.717650E-06
3.501693E+03	1.220849E-01	2.718765E-06
3.502637E+03	1.221205E-01	2.719557E-06
3.503580E+03	1.221705E-01	2.720670E-06
3.504524E+03	1.222302E-01	2.722000E-06
3.505467E+03	1.222945E-01	2.723434E-06
3.506411E+03	1.223590E-01	2.724870E-06
3.507354E+03	1.223897E-01	2.725552E-06
3.508298E+03	1.223865E-01	2.725482E-06
3.509241E+03	1.223545E-01	2.724769E-06
3.510185E+03	1.223176E-01	2.723946E-06
3.511128E+03	1.223048E-01	2.723661E-06
3.512072E+03	1.223546E-01	2.724770E-06
3.513015E+03	1.224237E-01	2.726310E-06
3.513959E+03	1.225122E-01	2.728280E-06
3.514902E+03	1.225716E-01	2.729604E-06
3.515846E+03	1.225539E-01	2.729209E-06
3.516789E+03	1.225071E-01	2.728168E-06
3.517733E+03	1.224701E-01	2.727342E-06
3.518676E+03	1.224958E-01	2.727914E-06
3.519620E+03	1.225840E-01	2.729880E-06
3.520563E+03	1.226772E-01	2.731954E-06
3.521507E+03	1.227413E-01	2.733382E-06
3.522450E+03	1.227235E-01	2.732986E-06
3.523394E+03	1.226380E-01	2.731082E-06
3.524337E+03	1.225671E-01	2.729503E-06
3.525281E+03	1.225347E-01	2.728782E-06
3.526224E+03	1.225168E-01	2.728383E-06
3.527168E+03	1.224989E-01	2.727983E-06
3.528111E+03	1.224664E-01	2.727261E-06
3.529055E+03	1.224485E-01	2.726862E-06
3.529998E+03	1.224691E-01	2.727321E-06
3.530942E+03	1.225282E-01	2.728638E-06
3.531885E+03	1.226068E-01	2.730387E-06
3.532829E+03	1.227141E-01	2.732778E-06
3.533772E+03	1.227926E-01	2.734526E-06
3.534716E+03	1.228566E-01	2.735949E-06
3.535659E+03	1.229640E-01	2.738342E-06
3.536602E+03	1.230473E-01	2.740196E-06
3.537546E+03	1.231353E-01	2.742157E-06
3.538489E+03	1.232330E-01	2.744333E-06
3.539433E+03	1.232777E-01	2.745327E-06
3.540376E+03	1.232597E-01	2.744926E-06
3.541320E+03	1.232656E-01	2.745059E-06
3.542263E+03	1.233054E-01	2.745946E-06
3.543207E+03	1.233163E-01	2.746187E-06
3.544150E+03	1.232982E-01	2.745785E-06
3.545094E+03	1.232367E-01	2.744415E-06
3.546037E+03	1.231317E-01	2.742077E-06
3.546981E+03	1.230316E-01	2.739847E-06
3.547924E+03	1.229556E-01	2.738156E-06
3.548868E+03	1.228989E-01	2.736892E-06
3.549811E+03	1.228711E-01	2.736273E-06
3.550755E+03	1.228772E-01	2.736408E-06
3.551698E+03	1.228831E-01	2.736541E-06
3.552642E+03	1.228796E-01	2.736462E-06
3.553585E+03	1.228807E-01	2.736487E-06
3.554529E+03	1.228868E-01	2.736622E-06
3.555472E+03	1.228783E-01	2.736434E-06
3.556416E+03	1.228458E-01	2.735709E-06
3.557359E+03	1.227842E-01	2.734338E-06
3.558303E+03	1.226938E-01	2.732324E-06
3.559246E+03	1.226226E-01	2.730739E-06
3.560190E+03	1.225659E-01	2.729477E-06
3.561133E+03	1.224899E-01	2.727785E-06
3.562077E+03	1.223995E-01	2.725770E-06
3.563020E+03	1.223139E-01	2.723865E-06
3.563964E+03	1.222380E-01	2.722174E-06
3.564907E+03	1.221523E-01	2.720266E-06
3.565851E+03	1.221005E-01	2.719112E-06
3.566794E+03	1.220584E-01	2.718174E-06
3.567738E+03	1.220211E-01	2.717344E-06
3.568681E+03	1.220031E-01	2.716943E-06
3.569625E+03	1.219417E-01	2.715575E-06
3.570568E+03	1.218658E-01	2.713886E-06
3.571512E+03	1.218092E-01	2.712624E-06
3.572455E+03	1.217768E-01	2.711903E-06
3.573398E+03	1.217975E-01	2.712364E-06
3.574342E+03	1.218326E-01	2.713145E-06
3.575285E+03	1.218726E-01	2.714036E-06
3.576229E+03	1.218836E-01	2.714282E-06
3.577172E+03	1.218271E-01	2.713024E-06
3.578116E+03	1.217417E-01	2.711121E-06
3.579059E+03	1.217093E-01	2.710400E-06
3.580003E+03	1.217638E-01	2.711615E-06
3.580946E+03	1.218570E-01	2.713689E-06
3.581890E+03	1.219501E-01	2.715763E-06
3.582833E+03	1.220192E-01	2.717301E-06
3.583777E+03	1.220399E-01	2.717763E-06
3.584720E+03	1.220125E-01	2.717153E-06
3.585664E+03	1.219947E-01	2.716757E-06
3.586607E+03	1.219866E-01	2.716575E-06
3.587551E+03	1.219977E-01	2.716824E-06
3.588494E+03	1.220137E-01	2.717180E-06
3.589438E+03	1.220346E-01	2.717645E-06
3.590381E+03	1.220459E-01	2.717895E-06
3.591325E+03	1.220378E-01	2.717716E-06
3.592268E+03	1.220007E-01	2.716890E-06
3.593212E+03	1.219492E-01	2.715743E-06
3.594155E+03	1.218832E-01	2.714274E-06
3.595099E+03	1.218318E-01	2.713128E-06
3.596042E+03	1.218286E-01	2.713057E-06
3.596986E+03	1.218930E-01	2.714492E-06
3.597929E+03	1.219719E-01	2.716249E-06
3.598873E+03	1.220653E-01	2.718329E-06
3.599816E+03	1.221636E-01	2.720516E-06
3.600760E+03	1.222473E-01	2.722381E-06
3.601703E+03	1.223215E-01	2.724034E-06
3.602647E+03	1.223811E-01	2.725361E-06
3.603590E+03	1.224070E-01	2.725937E-06
3.604534E+03	1.224136E-01	2.726085E-06
3.605477E+03	1.224395E-01	2.726662E-06
3.606421E+03	1.225040E-01	2.728099E-06
3.607364E+03	1.225638E-01	2.729429E-06
3.608308E+03	1.226139E-01	2.730544E-06
3.609251E+03	1.226688E-01	2.731768E-06
3.610195E+03	1.227190E-01	2.732885E-06
3.611138E+03	1.227642E-01	2.733893E-06
3.612081E+03	1.227854E-01	2.734364E-06
3.613025E+03	1.227921E-01	2.734515E-06
3.613968E+03	1.228085E-01	2.734879E-06
3.614912E+03	1.228345E-01	2.735459E-06
3.615855E+03	1.228509E-01	2.735824E-06
3.616799E+03	1.228722E-01	2.736296E-06
3.617742E+03	1.229176E-01	2.737308E-06
3.618686E+03	1.229872E-01	2.738857E-06
3.619629E+03	1.230423E-01	2.740085E-06
3.620573E+03	1.230877E-01	2.741096E-06
3.621516E+03	1.231042E-01	2.741464E-06
3.622460E+03	1.231014E-01	2.741401E-06
3.623403E+03	1.231034E-01	2.741446E-06
3.624347E+03	1.231296E-01	2.742029E-06
3.625290E+03	1.231702E-01	2.742934E-06
3.626234E+03	1.232351E-01	2.744379E-06
3.627177E+03	1.233242E-01	2.746363E-06
3.628121E+03	1.234035E-01	2.748130E-06
3.629064E+03	1.234636E-01	2.749467E-06
3.630008E+03	1.235236E-01	2.750805E-06
3.630951E+03	1.235742E-01	2.751930E-06
3.631895E+03	1.236390E-01	2.753374E-06
3.632838E+03	1.237186E-01	2.755145E-06
3.633782E+03	1.238173E-01	2.757344E-06
3.634725E+03	1.239403E-01	2.760083E-06
3.635669E+03	1.240488E-01	2.762500E-06
3.636612E+03	1.241380E-01	2.764486E-06
3.637556E+03	1.242465E-01	2.766902E-06
3.638499E+03	1.243019E-01	2.768137E-06
3.639443E+03	1.242849E-01	2.767757E-06
3.640386E+03	1.242485E-01	2.766947E-06
3.641330E+03	1.242170E-01	2.766246E-06
3.642273E+03	1.241710E-01	2.765221E-06
3.643217E+03	1.241492E-01	2.764734E-06
3.644160E+03	1.241419E-01	2.764572E-06
3.645104E+03	1.241249E-01	2.764194E-06
3.646047E+03	1.240983E-01	2.763601E-06
3.646991E+03	1.240571E-01	2.762685E-06
3.647934E+03	1.240016E-01	2.761449E-06
3.648877E+03	1.239702E-01	2.760750E-06
3.649821E+03	1.239823E-01	2.761019E-06
3.650764E+03	1.239895E-01	2.761180E-06
3.651708E+03	1.239630E-01	2.760589E-06
3.652651E+03	1.239268E-01	2.759784E-06
3.653595E+03	1.239003E-01	2.759193E-06
3.654538E+03	1.238980E-01	2.759141E-06
3.655482E+03	1.239488E-01	2.760273E-06
3.656425E+03	1.240480E-01	2.762482E-06
3.657369E+03	1.241713E-01	2.765228E-06
3.658312E+03	1.242899E-01	2.767870E-06
3.659256E+03	1.244037E-01	2.770402E-06
3.660199E+03	1.245126E-01	2.772829E-06
3.661143E+03	1.246506E-01	2.775901E-06
3.662086E+03	1.247596E-01	2.778328E-06
3.663030E+03	1.248395E-01	2.780108E-06
3.663973E+03	1.249340E-01	2.782212E-06
3.664917E+03	1.250334E-01	2.784426E-06
3.665860E+03	1.251375E-01	2.786745E-06
3.666804E+03	1.252369E-01	2.788958E-06
3.667747E+03	1.253025E-01	2.790420E-06
3.668691E+03	1.253391E-01	2.791234E-06
3.669634E+03	1.253854E-01	2.792264E-06
3.670578E+03	1.254607E-01	2.793941E-06
3.671521E+03	1.255505E-01	2.795942E-06
3.672465E+03	1.256451E-01	2.798048E-06
3.673408E+03	1.257011E-01	2.799296E-06
3.674352E+03	1.257330E-01	2.800006E-06
3.675295E+03	1.257793E-01	2.801038E-06
3.676239E+03	1.258499E-01	2.802609E-06
3.677182E+03	1.259301E-01	2.804396E-06
3.678126E+03	1.259911E-01	2.805754E-06
3.679069E+03	1.260327E-01	2.806680E-06
3.680013E+03	1.260647E-01	2.807392E-06
3.680956E+03	1.260966E-01	2.808103E-06
3.681900E+03	1.261286E-01	2.808816E-06
3.682843E+03	1.261364E-01	2.808990E-06
3.683787E+03	1.261200E-01	2.808624E-06
3.684730E+03	1.260747E-01	2.807615E-06
3.685674E+03	1.260390E-01	2.806821E-06
3.686617E+03	1.260614E-01	2.807319E-06
3.687560E+03	1.260983E-01	2.808141E-06
3.688504E+03	1.261691E-01	2.809717E-06
3.689447E+03	1.262205E-01	2.810863E-06
3.690391E+03	1.262140E-01	2.810717E-06
3.691334E+03	1.261881E-01	2.810140E-06
3.692278E+03	1.261573E-01	2.809455E-06
3.693221E+03	1.261653E-01	2.809632E-06
3.694165E+03	1.261781E-01	2.809918E-06
3.695108E+03	1.262055E-01	2.810527E-06
3.696052E+03	1.262376E-01	2.811244E-06
3.696995E+03	1.262554E-01	2.811638E-06
3.697939E+03	1.262731E-01	2.812034E-06
3.698882E+03	1.262909E-01	2.812429E-06
3.699826E+03	1.263135E-01	2.812932E-06
3.700769E+03	1.263602E-01	2.813974E-06
3.701713E+03	1.264264E-01	2.815448E-06
3.702656E+03	1.265072E-01	2.817246E-06
3.703600E+03	1.265830E-01	2.818936E-06
3.704543E+03	1.266493E-01	2.820411E-06
3.705487E+03	1.266767E-01	2.821022E-06
3.706430E+03	1.266704E-01	2.820882E-06
3.707374E+03	1.266351E-01	2.820096E-06
3.708317E+03	1.265659E-01	2.818555E-06
3.709261E+03	1.265063E-01	2.817228E-06
3.710204E+03	1.264663E-01	2.816335E-06
