#wls	flux	fluxerr
1.600000E+03	6.649522E-16	1.085990E-15
1.640000E+03	6.809931E-16	1.104459E-15
1.680000E+03	6.980940E-16	1.123619E-15
1.720000E+03	7.164199E-16	1.143597E-15
1.760000E+03	7.358519E-16	1.164051E-15
1.800000E+03	7.566812E-16	1.185271E-15
1.840000E+03	7.787770E-16	1.206858E-15
1.880000E+03	8.023457E-16	1.228918E-15
1.920000E+03	8.274471E-16	1.251301E-15
1.960000E+03	8.539985E-16	1.273615E-15
2.000000E+03	8.821780E-16	1.295834E-15
2.040000E+03	9.119530E-16	1.317585E-15
2.080000E+03	9.432836E-16	1.338458E-15
2.120000E+03	9.761232E-16	1.358008E-15
2.160000E+03	1.010290E-15	1.375581E-15
2.200000E+03	1.045347E-15	1.390175E-15
2.240000E+03	1.080680E-15	1.400587E-15
2.280000E+03	1.115886E-15	1.405945E-15
2.320000E+03	1.151072E-15	1.406052E-15
2.360000E+03	1.187020E-15	1.401479E-15
2.400000E+03	1.224301E-15	1.392422E-15
2.440000E+03	1.263471E-15	1.378939E-15
2.480000E+03	1.304778E-15	1.360650E-15
2.520000E+03	1.348595E-15	1.337227E-15
2.560000E+03	1.395143E-15	1.308105E-15
2.600000E+03	1.444790E-15	1.272797E-15
2.640000E+03	1.497792E-15	1.230643E-15
2.680000E+03	1.554491E-15	1.181011E-15
2.720000E+03	1.615347E-15	1.123326E-15
2.760000E+03	1.680826E-15	1.056989E-15
2.800000E+03	1.751622E-15	9.815704E-16
2.840000E+03	1.828681E-15	8.968291E-16
2.880000E+03	1.913463E-15	8.028819E-16
2.920000E+03	2.008183E-15	7.003464E-16
2.960000E+03	2.116010E-15	5.905641E-16
3.000000E+03	2.241465E-15	4.762016E-16
3.010000E+03	2.276261E-15	4.474295E-16
3.020000E+03	2.312600E-15	4.187964E-16
3.030000E+03	2.350689E-15	3.904697E-16
3.040000E+03	2.390530E-15	3.626114E-16
3.050000E+03	2.432334E-15	3.354566E-16
3.060000E+03	2.476202E-15	3.092633E-16
3.070000E+03	2.522266E-15	2.843375E-16
3.080000E+03	2.570445E-15	2.609965E-16
3.090000E+03	2.620804E-15	2.395815E-16
3.100000E+03	2.672917E-15	2.203401E-16
3.110000E+03	2.726284E-15	2.034229E-16
3.120000E+03	2.780045E-15	1.888406E-16
3.130000E+03	2.833147E-15	1.764644E-16
3.140000E+03	2.884657E-15	1.660454E-16
3.150000E+03	2.933537E-15	1.572412E-16
3.160000E+03	2.979046E-15	1.496666E-16
3.170000E+03	3.020691E-15	1.429218E-16
3.180000E+03	3.058336E-15	1.366938E-16
3.190000E+03	3.092283E-15	1.308143E-16
3.200000E+03	3.123075E-15	1.252497E-16
3.210000E+03	3.151315E-15	1.200977E-16
3.220000E+03	3.178169E-15	1.154881E-16
3.230000E+03	3.205476E-15	1.114328E-16
3.240000E+03	3.235004E-15	1.079200E-16
3.250000E+03	3.267885E-15	1.049355E-16
3.260000E+03	3.305038E-15	1.023982E-16
3.270000E+03	3.346868E-15	1.002595E-16
3.280000E+03	3.393160E-15	9.845213E-17
3.290000E+03	3.444414E-15	9.677759E-17
3.300000E+03	3.500947E-15	9.505871E-17
3.310000E+03	3.563065E-15	9.320301E-17
3.320000E+03	3.632238E-15	9.112766E-17
3.330000E+03	3.709424E-15	8.890015E-17
3.340000E+03	3.794651E-15	8.663176E-17
3.350000E+03	3.888019E-15	8.421484E-17
3.360000E+03	3.987790E-15	8.172290E-17
3.370000E+03	4.090446E-15	7.935059E-17
3.380000E+03	4.193147E-15	7.698156E-17
3.390000E+03	4.291931E-15	7.507602E-17
3.400000E+03	4.380827E-15	7.421704E-17
3.410000E+03	4.454508E-15	7.353185E-17
3.420000E+03	4.509568E-15	7.264360E-17
3.430000E+03	4.544702E-15	7.189841E-17
3.440000E+03	4.560316E-15	7.061627E-17
3.450000E+03	4.561634E-15	6.904690E-17
3.460000E+03	4.555266E-15	6.802952E-17
3.470000E+03	4.541621E-15	6.674215E-17
3.480000E+03	4.522315E-15	6.519443E-17
3.490000E+03	4.500684E-15	6.417822E-17
3.500000E+03	4.475573E-15	6.288669E-17
3.510000E+03	4.448484E-15	6.155472E-17
3.520000E+03	4.425446E-15	6.123139E-17
3.530000E+03	4.413654E-15	6.084758E-17
3.540000E+03	4.423426E-15	6.008947E-17
3.550000E+03	4.465481E-15	5.957998E-17
3.560000E+03	4.543606E-15	5.822664E-17
3.570000E+03	4.658004E-15	5.585772E-17
3.580000E+03	4.792283E-15	5.365401E-17
3.590000E+03	4.887799E-15	5.190825E-17
3.600000E+03	4.891848E-15	5.264541E-17
3.610000E+03	4.862826E-15	5.561715E-17
3.620000E+03	4.865129E-15	5.797768E-17
3.630000E+03	4.934373E-15	5.987798E-17
3.640000E+03	5.086696E-15	6.299025E-17
3.650000E+03	5.308062E-15	6.616437E-17
3.660000E+03	5.564808E-15	6.933382E-17
3.670000E+03	5.814594E-15	7.371334E-17
3.680000E+03	6.011404E-15	7.715909E-17
3.690000E+03	6.115838E-15	7.854734E-17
3.700000E+03	6.102856E-15	7.863417E-17
3.710000E+03	5.964550E-15	7.605957E-17
3.720000E+03	5.719075E-15	7.130472E-17
3.730000E+03	5.405107E-15	6.629742E-17
3.740000E+03	5.065218E-15	6.038845E-17
3.750000E+03	4.746158E-15	5.493983E-17
3.760000E+03	4.487799E-15	5.203535E-17
3.770000E+03	4.311028E-15	4.997722E-17
3.780000E+03	4.229348E-15	4.867166E-17
3.790000E+03	4.252698E-15	4.956898E-17
3.800000E+03	4.385593E-15	5.126626E-17
3.810000E+03	4.626208E-15	5.345100E-17
3.820000E+03	4.967909E-15	5.724348E-17
3.830000E+03	5.403618E-15	6.112619E-17
3.840000E+03	5.912926E-15	6.521697E-17
3.850000E+03	6.461782E-15	7.148529E-17
3.860000E+03	7.021366E-15	7.730967E-17
3.870000E+03	7.555341E-15	8.215204E-17
3.880000E+03	8.019694E-15	8.860029E-17
3.890000E+03	8.388104E-15	9.343226E-17
3.900000E+03	8.645127E-15	9.613353E-17
3.910000E+03	8.785634E-15	9.983582E-17
3.920000E+03	8.821665E-15	1.014562E-16
3.930000E+03	8.781346E-15	1.005592E-16
3.940000E+03	8.700054E-15	9.997609E-17
3.950000E+03	8.607369E-15	9.758324E-17
3.960000E+03	8.531237E-15	9.439050E-17
3.970000E+03	8.487678E-15	9.355884E-17
3.980000E+03	8.466032E-15	9.182551E-17
3.990000E+03	8.442674E-15	8.931156E-17
4.000000E+03	8.395830E-15	8.922788E-17
4.010000E+03	8.315186E-15	8.782616E-17
4.020000E+03	8.195104E-15	8.504836E-17
4.030000E+03	8.034664E-15	8.436863E-17
4.040000E+03	7.843911E-15	8.232812E-17
4.050000E+03	7.632984E-15	7.889242E-17
4.060000E+03	7.408927E-15	7.722321E-17
4.070000E+03	7.178672E-15	7.420245E-17
4.080000E+03	6.946282E-15	6.989164E-17
4.090000E+03	6.714426E-15	6.710680E-17
4.100000E+03	6.486250E-15	6.297696E-17
4.110000E+03	6.267856E-15	5.847307E-17
4.120000E+03	6.067758E-15	5.702749E-17
4.130000E+03	5.894255E-15	5.502174E-17
4.140000E+03	5.759801E-15	5.249252E-17
4.150000E+03	5.676656E-15	5.263146E-17
4.160000E+03	5.647158E-15	5.225621E-17
4.170000E+03	5.674861E-15	5.134741E-17
4.180000E+03	5.762474E-15	5.297094E-17
4.190000E+03	5.897454E-15	5.391070E-17
4.200000E+03	6.066764E-15	5.389533E-17
4.210000E+03	6.261932E-15	5.607140E-17
4.220000E+03	6.470552E-15	5.689097E-17
4.230000E+03	6.683797E-15	5.647393E-17
4.240000E+03	6.896852E-15	5.882415E-17
4.250000E+03	7.101490E-15	5.947042E-17
4.260000E+03	7.289693E-15	5.856930E-17
4.270000E+03	7.451558E-15	6.108390E-17
4.280000E+03	7.568734E-15	6.154265E-17
4.290000E+03	7.625965E-15	5.972730E-17
4.300000E+03	7.614949E-15	6.087209E-17
4.310000E+03	7.528768E-15	5.939409E-17
4.320000E+03	7.379326E-15	5.559230E-17
4.330000E+03	7.198110E-15	5.510801E-17
4.340000E+03	7.018806E-15	5.237405E-17
4.350000E+03	6.894106E-15	4.814078E-17
4.360000E+03	6.872628E-15	4.841849E-17
4.370000E+03	6.942561E-15	4.582176E-17
4.380000E+03	7.077450E-15	3.995701E-17
4.390000E+03	7.182606E-15	4.263515E-17
4.400000E+03	7.191609E-15	4.711145E-17
4.410000E+03	7.215856E-15	4.851495E-17
4.420000E+03	7.348556E-15	5.271655E-17
4.430000E+03	7.586001E-15	5.422382E-17
4.440000E+03	7.892449E-15	5.354070E-17
4.450000E+03	8.236710E-15	5.802743E-17
4.460000E+03	8.586602E-15	5.995360E-17
4.470000E+03	8.920193E-15	5.909035E-17
4.480000E+03	9.224031E-15	6.421928E-17
4.490000E+03	9.478491E-15	6.654266E-17
4.500000E+03	9.669338E-15	6.522341E-17
4.510000E+03	9.788700E-15	6.903023E-17
4.520000E+03	9.827484E-15	6.942151E-17
4.530000E+03	9.783214E-15	6.621868E-17
4.540000E+03	9.662620E-15	6.818471E-17
4.550000E+03	9.476360E-15	6.676555E-17
4.560000E+03	9.243875E-15	6.223133E-17
4.570000E+03	8.986758E-15	6.270253E-17
4.580000E+03	8.714462E-15	6.010805E-17
4.590000E+03	8.442087E-15	5.530310E-17
4.600000E+03	8.183520E-15	5.638255E-17
4.610000E+03	7.925559E-15	5.524299E-17
4.620000E+03	7.667838E-15	5.169245E-17
4.630000E+03	7.426663E-15	5.260531E-17
4.640000E+03	7.204120E-15	5.168917E-17
4.650000E+03	7.022416E-15	4.900471E-17
4.660000E+03	6.914380E-15	5.040699E-17
4.670000E+03	6.878730E-15	5.065790E-17
4.680000E+03	6.916923E-15	4.952994E-17
4.690000E+03	7.034044E-15	5.196315E-17
4.700000E+03	7.209807E-15	5.298378E-17
4.710000E+03	7.419724E-15	5.262473E-17
4.720000E+03	7.645979E-15	5.652492E-17
4.730000E+03	7.870140E-15	5.895971E-17
4.740000E+03	8.088119E-15	5.902693E-17
4.750000E+03	8.302038E-15	6.145669E-17
4.760000E+03	8.496546E-15	5.964226E-17
4.770000E+03	8.665363E-15	5.268328E-17
4.780000E+03	8.808118E-15	5.170419E-17
4.790000E+03	8.895399E-15	5.730523E-17
4.800000E+03	8.926629E-15	6.192825E-17
4.810000E+03	8.928535E-15	6.773033E-17
4.820000E+03	8.912552E-15	6.979850E-17
4.830000E+03	8.893111E-15	6.888029E-17
4.840000E+03	8.890657E-15	7.084515E-17
4.850000E+03	8.907007E-15	7.095458E-17
4.860000E+03	8.943205E-15	6.959900E-17
4.870000E+03	9.001439E-15	7.232844E-17
4.880000E+03	9.069402E-15	7.366149E-17
4.890000E+03	9.130604E-15	7.319815E-17
4.900000E+03	9.168754E-15	7.614509E-17
4.910000E+03	9.164949E-15	7.729552E-17
4.920000E+03	9.108039E-15	7.623547E-17
4.930000E+03	8.996074E-15	7.781918E-17
4.940000E+03	8.826302E-15	7.743767E-17
4.950000E+03	8.615896E-15	7.505800E-17
4.960000E+03	8.395094E-15	7.516961E-17
4.970000E+03	8.178083E-15	7.392882E-17
4.980000E+03	7.988987E-15	7.155676E-17
4.990000E+03	7.855169E-15	7.202219E-17
5.000000E+03	7.777048E-15	7.180477E-17
5.010000E+03	7.751251E-15	7.093550E-17
5.020000E+03	7.776204E-15	7.291798E-17
5.030000E+03	7.837813E-15	7.423021E-17
5.040000E+03	7.920844E-15	7.455018E-17
5.050000E+03	8.013085E-15	7.710419E-17
5.060000E+03	8.098632E-15	7.852397E-17
5.070000E+03	8.169225E-15	7.864722E-17
5.080000E+03	8.223475E-15	8.078845E-17
5.090000E+03	8.254603E-15	8.166325E-17
5.100000E+03	8.267558E-15	8.121836E-17
5.110000E+03	8.276163E-15	8.279962E-17
5.120000E+03	8.281545E-15	8.328153E-17
5.130000E+03	8.292459E-15	8.269673E-17
5.140000E+03	8.323440E-15	8.430830E-17
5.150000E+03	8.372287E-15	8.504162E-17
5.160000E+03	8.438341E-15	8.497241E-17
5.170000E+03	8.523358E-15	8.736340E-17
5.180000E+03	8.615106E-15	8.891161E-17
5.190000E+03	8.703453E-15	8.934146E-17
5.200000E+03	8.783865E-15	9.176905E-17
5.210000E+03	8.843664E-15	9.296135E-17
5.220000E+03	8.877869E-15	9.277410E-17
5.230000E+03	8.889279E-15	9.437365E-17
5.240000E+03	8.872868E-15	9.463196E-17
5.250000E+03	8.831329E-15	9.351717E-17
5.260000E+03	8.774293E-15	9.415859E-17
5.270000E+03	8.700140E-15	9.356463E-17
5.280000E+03	8.612943E-15	9.182520E-17
5.290000E+03	8.522558E-15	9.199839E-17
5.300000E+03	8.428225E-15	9.115545E-17
5.310000E+03	8.333210E-15	8.936215E-17
5.320000E+03	8.244996E-15	8.953739E-17
5.330000E+03	8.161350E-15	8.882425E-17
5.340000E+03	8.083311E-15	8.725546E-17
5.350000E+03	8.015866E-15	8.763493E-17
5.360000E+03	7.954920E-15	8.719076E-17
5.370000E+03	7.899821E-15	8.590604E-17
5.380000E+03	7.854905E-15	8.648119E-17
5.390000E+03	7.818121E-15	8.628885E-17
5.400000E+03	7.793643E-15	8.540561E-17
5.410000E+03	7.790427E-15	8.651975E-17
5.420000E+03	7.809208E-15	8.697974E-17
5.430000E+03	7.860531E-15	8.668241E-17
5.440000E+03	7.958329E-15	8.809194E-17
5.450000E+03	8.089159E-15	8.809420E-17
5.460000E+03	8.245970E-15	8.584112E-17
5.470000E+03	8.408925E-15	8.373506E-17
5.480000E+03	8.486380E-15	8.001464E-17
5.490000E+03	8.420947E-15	7.695827E-17
5.500000E+03	8.229817E-15	7.879797E-17
5.510000E+03	7.924593E-15	8.078363E-17
5.520000E+03	7.573984E-15	8.111049E-17
5.530000E+03	7.260010E-15	8.178720E-17
5.540000E+03	6.993582E-15	8.085424E-17
5.550000E+03	6.772982E-15	7.883452E-17
5.560000E+03	6.602098E-15	7.804028E-17
5.570000E+03	6.464512E-15	7.664005E-17
5.580000E+03	6.349660E-15	7.476770E-17
5.590000E+03	6.257457E-15	7.433838E-17
5.600000E+03	6.181535E-15	7.349629E-17
5.610000E+03	6.122528E-15	7.230253E-17
5.620000E+03	6.085894E-15	7.260906E-17
5.630000E+03	6.065140E-15	7.258161E-17
5.640000E+03	6.057093E-15	7.212158E-17
5.650000E+03	6.062577E-15	7.291537E-17
5.660000E+03	6.074194E-15	7.321783E-17
5.670000E+03	6.088800E-15	7.300089E-17
5.680000E+03	6.108268E-15	7.397896E-17
5.690000E+03	6.127987E-15	7.443472E-17
5.700000E+03	6.147327E-15	7.431327E-17
5.710000E+03	6.169981E-15	7.530875E-17
5.720000E+03	6.193473E-15	7.576371E-17
5.730000E+03	6.218121E-15	7.564468E-17
5.740000E+03	6.247602E-15	7.661631E-17
5.750000E+03	6.279811E-15	7.705219E-17
5.760000E+03	6.314923E-15	7.698229E-17
5.770000E+03	6.354834E-15	7.809957E-17
5.780000E+03	6.393864E-15	7.867469E-17
5.790000E+03	6.428451E-15	7.862830E-17
5.800000E+03	6.458095E-15	7.961620E-17
5.810000E+03	6.477052E-15	7.991040E-17
5.820000E+03	6.483814E-15	7.950501E-17
5.830000E+03	6.480589E-15	8.013235E-17
5.840000E+03	6.463293E-15	8.011273E-17
5.850000E+03	6.431629E-15	7.953671E-17
5.860000E+03	6.390058E-15	8.020614E-17
5.870000E+03	6.340006E-15	8.039847E-17
5.880000E+03	6.286732E-15	7.984335E-17
5.890000E+03	6.237278E-15	7.998026E-17
5.900000E+03	6.191299E-15	7.940830E-17
5.910000E+03	6.149812E-15	7.818603E-17
5.920000E+03	6.115561E-15	7.776210E-17
5.930000E+03	6.083647E-15	7.673055E-17
5.940000E+03	6.051579E-15	7.528535E-17
5.950000E+03	6.020250E-15	7.498673E-17
5.960000E+03	5.986358E-15	7.422670E-17
5.970000E+03	5.950144E-15	7.302065E-17
5.980000E+03	5.914709E-15	7.291795E-17
5.990000E+03	5.877406E-15	7.231028E-17
6.000000E+03	5.838700E-15	7.119172E-17
6.010000E+03	5.801983E-15	7.110630E-17
6.020000E+03	5.765763E-15	7.049695E-17
6.030000E+03	5.731269E-15	6.939224E-17
6.040000E+03	5.701200E-15	6.933500E-17
6.050000E+03	5.669057E-15	6.873107E-17
6.060000E+03	5.629897E-15	6.759309E-17
6.070000E+03	5.580614E-15	6.744771E-17
6.080000E+03	5.511987E-15	6.662557E-17
6.090000E+03	5.419006E-15	6.505831E-17
6.100000E+03	5.302850E-15	6.423481E-17
6.110000E+03	5.162548E-15	6.259448E-17
6.120000E+03	5.004353E-15	6.007753E-17
6.130000E+03	4.839076E-15	5.807950E-17
6.140000E+03	4.672068E-15	5.542419E-17
6.150000E+03	4.512212E-15	5.252555E-17
6.160000E+03	4.370192E-15	5.088314E-17
6.170000E+03	4.248238E-15	4.909613E-17
6.180000E+03	4.150159E-15	4.722861E-17
6.190000E+03	4.080925E-15	4.659572E-17
6.200000E+03	4.037983E-15	4.582563E-17
6.210000E+03	4.020137E-15	4.495357E-17
6.220000E+03	4.027509E-15	4.530586E-17
6.230000E+03	4.052638E-15	4.545169E-17
6.240000E+03	4.090439E-15	4.534703E-17
6.250000E+03	4.141371E-15	4.639605E-17
6.260000E+03	4.205429E-15	4.716911E-17
6.270000E+03	4.288476E-15	4.754458E-17
6.280000E+03	4.400792E-15	4.892726E-17
6.290000E+03	4.547688E-15	4.996606E-17
6.300000E+03	4.735225E-15	5.076852E-17
6.310000E+03	4.968942E-15	5.301118E-17
6.320000E+03	5.244443E-15	5.485837E-17
6.330000E+03	5.552631E-15	5.635460E-17
6.340000E+03	5.882278E-15	5.970688E-17
6.350000E+03	6.219141E-15	6.228638E-17
6.360000E+03	6.550990E-15	6.397431E-17
6.370000E+03	6.868972E-15	6.774590E-17
6.380000E+03	7.162158E-15	7.032963E-17
6.390000E+03	7.426742E-15	7.150783E-17
6.400000E+03	7.664420E-15	7.478982E-17
6.410000E+03	7.869622E-15	7.655712E-17
6.420000E+03	8.039558E-15	7.673908E-17
6.430000E+03	8.176423E-15	7.926454E-17
6.440000E+03	8.279308E-15	8.021420E-17
6.450000E+03	8.349079E-15	7.962986E-17
6.460000E+03	8.386849E-15	8.167892E-17
6.470000E+03	8.385467E-15	8.205934E-17
6.480000E+03	8.337385E-15	8.024339E-17
6.490000E+03	8.239878E-15	7.972293E-17
6.500000E+03	8.095795E-15	7.629401E-17
6.510000E+03	7.916901E-15	6.975521E-17
6.520000E+03	7.742018E-15	6.542334E-17
6.530000E+03	7.654786E-15	6.427735E-17
6.540000E+03	7.672176E-15	6.738337E-17
6.550000E+03	7.715690E-15	7.389156E-17
6.560000E+03	7.745108E-15	7.821887E-17
6.570000E+03	7.747217E-15	7.995430E-17
6.580000E+03	7.716915E-15	8.237577E-17
6.590000E+03	7.655457E-15	8.298408E-17
6.600000E+03	7.569740E-15	8.211220E-17
6.610000E+03	7.468335E-15	8.277853E-17
6.620000E+03	7.356118E-15	8.243306E-17
6.630000E+03	7.238445E-15	8.107403E-17
6.640000E+03	7.121396E-15	8.120296E-17
6.650000E+03	7.005251E-15	8.052762E-17
6.660000E+03	6.890963E-15	7.908796E-17
6.670000E+03	6.779847E-15	7.910573E-17
6.680000E+03	6.668973E-15	7.844761E-17
6.690000E+03	6.556804E-15	7.705920E-17
6.700000E+03	6.444173E-15	7.689747E-17
6.710000E+03	6.330706E-15	7.607303E-17
6.720000E+03	6.218381E-15	7.458415E-17
6.730000E+03	6.110409E-15	7.420896E-17
6.740000E+03	6.007124E-15	7.328719E-17
6.750000E+03	5.909561E-15	7.190754E-17
6.760000E+03	5.819159E-15	7.172648E-17
6.770000E+03	5.734173E-15	7.111952E-17
6.780000E+03	5.653664E-15	6.999598E-17
6.790000E+03	5.577481E-15	6.977825E-17
6.800000E+03	5.503527E-15	6.904265E-17
6.810000E+03	5.431239E-15	6.784661E-17
6.820000E+03	5.361017E-15	6.759061E-17
6.830000E+03	5.291427E-15	6.692503E-17
6.840000E+03	5.222083E-15	6.591241E-17
6.850000E+03	5.153523E-15	6.589494E-17
6.860000E+03	5.084636E-15	6.551921E-17
6.870000E+03	5.014994E-15	6.463846E-17
6.880000E+03	4.945816E-15	6.438623E-17
6.890000E+03	4.877628E-15	6.366857E-17
6.900000E+03	4.812149E-15	6.257806E-17
6.910000E+03	4.751963E-15	6.227330E-17
6.920000E+03	4.697569E-15	6.167660E-17
6.930000E+03	4.649405E-15	6.079591E-17
6.940000E+03	4.607710E-15	6.067446E-17
6.950000E+03	4.570356E-15	6.024566E-17
6.960000E+03	4.535091E-15	5.948994E-17
6.970000E+03	4.500457E-15	5.940278E-17
6.980000E+03	4.464324E-15	5.897103E-17
6.990000E+03	4.426139E-15	5.823768E-17
7.000000E+03	4.386531E-15	5.821868E-17
7.010000E+03	4.345175E-15	5.788853E-17
7.020000E+03	4.302544E-15	5.716237E-17
7.030000E+03	4.260365E-15	5.693821E-17
7.040000E+03	4.218999E-15	5.631456E-17
7.050000E+03	4.179523E-15	5.533427E-17
7.060000E+03	4.143610E-15	5.492282E-17
7.070000E+03	4.111468E-15	5.425321E-17
7.080000E+03	4.083590E-15	5.352486E-17
7.090000E+03	4.060732E-15	5.375801E-17
7.100000E+03	4.041708E-15	5.389835E-17
7.110000E+03	4.025328E-15	5.369488E-17
7.120000E+03	4.010891E-15	5.389013E-17
7.130000E+03	3.996698E-15	5.365381E-17
7.140000E+03	3.981732E-15	5.303510E-17
7.150000E+03	3.965563E-15	5.289281E-17
7.160000E+03	3.947584E-15	5.240468E-17
7.170000E+03	3.927569E-15	5.165155E-17
7.180000E+03	3.905897E-15	5.153074E-17
7.190000E+03	3.882009E-15	5.115432E-17
7.200000E+03	3.855496E-15	5.054147E-17
7.210000E+03	3.826782E-15	5.057527E-17
7.220000E+03	3.796150E-15	5.034676E-17
7.230000E+03	3.764739E-15	4.976972E-17
7.240000E+03	3.734211E-15	4.964642E-17
7.250000E+03	3.705444E-15	4.920311E-17
7.260000E+03	3.679430E-15	4.847962E-17
7.270000E+03	3.657561E-15	4.829746E-17
7.280000E+03	3.640477E-15	4.787290E-17
7.290000E+03	3.628322E-15	4.722096E-17
7.300000E+03	3.620789E-15	4.712237E-17
7.310000E+03	3.615981E-15	4.674781E-17
7.320000E+03	3.611590E-15	4.613092E-17
7.330000E+03	3.605754E-15	4.609039E-17
7.340000E+03	3.596739E-15	4.573030E-17
7.350000E+03	3.584036E-15	4.505419E-17
7.360000E+03	3.567682E-15	4.490655E-17
7.370000E+03	3.548118E-15	4.437293E-17
7.380000E+03	3.526614E-15	4.341138E-17
7.390000E+03	3.504315E-15	4.283942E-17
7.400000E+03	3.481147E-15	4.181307E-17
7.410000E+03	3.456999E-15	4.054605E-17
7.420000E+03	3.432230E-15	4.006144E-17
7.430000E+03	3.406409E-15	3.931917E-17
7.440000E+03	3.379713E-15	3.844123E-17
7.450000E+03	3.353190E-15	3.856480E-17
7.460000E+03	3.327414E-15	3.853612E-17
7.470000E+03	3.303621E-15	3.811857E-17
7.480000E+03	3.283251E-15	3.820234E-17
7.490000E+03	3.267208E-15	3.788935E-17
7.500000E+03	3.256025E-15	3.715524E-17
7.510000E+03	3.250097E-15	3.687006E-17
7.520000E+03	3.249388E-15	3.612266E-17
7.530000E+03	3.253439E-15	3.500931E-17
7.540000E+03	3.261131E-15	3.448924E-17
7.550000E+03	3.270654E-15	3.345868E-17
7.560000E+03	3.279983E-15	3.219757E-17
7.570000E+03	3.287749E-15	3.206724E-17
7.580000E+03	3.292186E-15	3.155400E-17
7.590000E+03	3.292700E-15	3.063556E-17
7.600000E+03	3.289349E-15	3.080090E-17
7.610000E+03	3.281620E-15	3.054774E-17
7.620000E+03	3.269405E-15	2.996473E-17
7.630000E+03	3.253339E-15	3.069197E-17
7.640000E+03	3.234240E-15	3.115250E-17
7.650000E+03	3.213670E-15	3.111175E-17
7.660000E+03	3.193270E-15	3.185157E-17
7.670000E+03	3.174282E-15	3.211652E-17
7.680000E+03	3.157825E-15	3.178704E-17
7.690000E+03	3.145264E-15	3.196058E-17
7.700000E+03	3.135700E-15	3.159457E-17
7.710000E+03	3.128086E-15	3.097585E-17
7.720000E+03	3.121752E-15	3.146309E-17
7.730000E+03	3.114785E-15	3.168823E-17
7.740000E+03	3.105800E-15	3.141516E-17
7.750000E+03	3.094036E-15	3.169885E-17
7.760000E+03	3.078305E-15	3.141707E-17
