#wls	flux	fluxerr
1.600000E+03	4.796449E-16	7.834777E-16
1.640000E+03	4.924974E-16	7.988947E-16
1.680000E+03	5.062462E-16	8.149919E-16
1.720000E+03	5.210140E-16	8.318594E-16
1.760000E+03	5.367739E-16	8.493325E-16
1.800000E+03	5.536424E-16	8.674597E-16
1.840000E+03	5.716350E-16	8.861120E-16
1.880000E+03	5.908607E-16	9.052867E-16
1.920000E+03	6.113755E-16	9.248760E-16
1.960000E+03	6.332317E-16	9.447430E-16
2.000000E+03	6.563829E-16	9.645802E-16
2.040000E+03	6.808750E-16	9.841958E-16
2.080000E+03	7.067035E-16	1.003298E-15
2.120000E+03	7.337226E-16	1.021375E-15
2.160000E+03	7.617885E-16	1.037907E-15
2.200000E+03	7.906238E-16	1.052192E-15
2.240000E+03	8.199145E-16	1.063492E-15
2.280000E+03	8.495404E-16	1.071342E-15
2.320000E+03	8.794817E-16	1.075400E-15
2.360000E+03	9.101749E-16	1.075857E-15
2.400000E+03	9.420128E-16	1.072770E-15
2.440000E+03	9.753503E-16	1.066072E-15
2.480000E+03	1.010643E-15	1.055717E-15
2.520000E+03	1.048235E-15	1.041443E-15
2.560000E+03	1.088421E-15	1.022851E-15
2.600000E+03	1.131672E-15	9.996270E-16
2.640000E+03	1.178317E-15	9.712293E-16
2.680000E+03	1.228868E-15	9.371904E-16
2.720000E+03	1.283801E-15	8.969288E-16
2.760000E+03	1.343897E-15	8.500086E-16
2.800000E+03	1.410012E-15	7.959588E-16
2.840000E+03	1.483405E-15	7.344977E-16
2.880000E+03	1.565818E-15	6.655619E-16
2.920000E+03	1.659678E-15	5.894516E-16
2.960000E+03	1.768373E-15	5.071119E-16
3.000000E+03	1.896588E-15	4.207245E-16
3.010000E+03	1.932372E-15	3.989585E-16
3.020000E+03	1.969892E-15	3.773248E-16
3.030000E+03	2.009214E-15	3.559449E-16
3.040000E+03	2.050536E-15	3.349890E-16
3.050000E+03	2.093921E-15	3.146286E-16
3.060000E+03	2.139462E-15	2.950676E-16
3.070000E+03	2.187218E-15	2.765269E-16
3.080000E+03	2.237281E-15	2.592391E-16
3.090000E+03	2.289457E-15	2.433886E-16
3.100000E+03	2.343587E-15	2.291235E-16
3.110000E+03	2.399197E-15	2.164923E-16
3.120000E+03	2.455749E-15	2.054558E-16
3.130000E+03	2.512545E-15	1.958767E-16
3.140000E+03	2.568842E-15	1.875402E-16
3.150000E+03	2.623928E-15	1.801834E-16
3.160000E+03	2.677242E-15	1.735316E-16
3.170000E+03	2.728292E-15	1.673251E-16
3.180000E+03	2.776865E-15	1.613742E-16
3.190000E+03	2.822841E-15	1.555803E-16
3.200000E+03	2.866098E-15	1.499539E-16
3.210000E+03	2.906310E-15	1.446157E-16
3.220000E+03	2.943117E-15	1.397146E-16
3.230000E+03	2.978214E-15	1.352799E-16
3.240000E+03	3.012597E-15	1.313153E-16
3.250000E+03	3.046806E-15	1.278489E-16
3.260000E+03	3.081979E-15	1.247817E-16
3.270000E+03	3.118491E-15	1.220508E-16
3.280000E+03	3.155857E-15	1.196217E-16
3.290000E+03	3.194859E-15	1.173200E-16
3.300000E+03	3.235655E-15	1.150424E-16
3.310000E+03	3.277493E-15	1.127753E-16
3.320000E+03	3.321585E-15	1.104094E-16
3.330000E+03	3.368097E-15	1.079543E-16
3.340000E+03	3.415621E-15	1.055029E-16
3.350000E+03	3.464448E-15	1.029728E-16
3.360000E+03	3.513158E-15	1.003874E-16
3.370000E+03	3.558765E-15	9.789046E-17
3.380000E+03	3.600146E-15	9.547552E-17
3.390000E+03	3.635074E-15	9.330051E-17
3.400000E+03	3.660280E-15	9.153212E-17
3.410000E+03	3.675334E-15	8.991974E-17
3.420000E+03	3.679982E-15	8.832849E-17
3.430000E+03	3.674056E-15	8.681688E-17
3.440000E+03	3.661371E-15	8.521502E-17
3.450000E+03	3.645546E-15	8.360156E-17
3.460000E+03	3.628760E-15	8.220957E-17
3.470000E+03	3.614927E-15	8.087530E-17
3.480000E+03	3.605595E-15	7.960951E-17
3.490000E+03	3.600541E-15	7.860968E-17
3.500000E+03	3.602390E-15	7.771828E-17
3.510000E+03	3.612714E-15	7.701971E-17
3.520000E+03	3.632817E-15	7.675711E-17
3.530000E+03	3.670001E-15	7.664732E-17
3.540000E+03	3.730580E-15	7.652637E-17
3.550000E+03	3.817844E-15	7.640619E-17
3.560000E+03	3.935583E-15	7.582091E-17
3.570000E+03	4.077911E-15	7.457019E-17
3.580000E+03	4.220241E-15	7.307553E-17
3.590000E+03	4.317597E-15	7.210789E-17
3.600000E+03	4.330818E-15	7.293412E-17
3.610000E+03	4.289206E-15	7.518238E-17
3.620000E+03	4.247579E-15	7.738628E-17
3.630000E+03	4.238292E-15	7.934915E-17
3.640000E+03	4.271050E-15	8.158759E-17
3.650000E+03	4.341139E-15	8.387011E-17
3.660000E+03	4.430379E-15	8.611634E-17
3.670000E+03	4.513158E-15	8.839755E-17
3.680000E+03	4.567091E-15	8.985995E-17
3.690000E+03	4.573611E-15	8.998996E-17
3.700000E+03	4.521242E-15	8.887994E-17
3.710000E+03	4.411745E-15	8.620185E-17
3.720000E+03	4.256657E-15	8.231083E-17
3.730000E+03	4.074493E-15	7.806096E-17
3.740000E+03	3.890816E-15	7.368430E-17
3.750000E+03	3.728375E-15	6.981636E-17
3.760000E+03	3.604134E-15	6.719683E-17
3.770000E+03	3.534727E-15	6.567027E-17
3.780000E+03	3.528176E-15	6.530268E-17
3.790000E+03	3.585852E-15	6.642399E-17
3.800000E+03	3.712570E-15	6.869025E-17
3.810000E+03	3.905406E-15	7.193336E-17
3.820000E+03	4.153076E-15	7.627004E-17
3.830000E+03	4.446734E-15	8.115212E-17
3.840000E+03	4.769174E-15	8.636388E-17
3.850000E+03	5.094839E-15	9.204393E-17
3.860000E+03	5.401509E-15	9.731001E-17
3.870000E+03	5.667207E-15	1.017961E-16
3.880000E+03	5.872145E-15	1.058258E-16
3.890000E+03	6.005380E-15	1.085583E-16
3.900000E+03	6.066153E-15	1.098927E-16
3.910000E+03	6.062224E-15	1.105672E-16
3.920000E+03	6.007068E-15	1.100436E-16
3.930000E+03	5.919934E-15	1.084512E-16
3.940000E+03	5.821572E-15	1.066657E-16
3.950000E+03	5.729185E-15	1.044569E-16
3.960000E+03	5.654934E-15	1.021861E-16
3.970000E+03	5.603631E-15	1.005916E-16
3.980000E+03	5.571413E-15	9.907307E-17
3.990000E+03	5.548223E-15	9.761610E-17
4.000000E+03	5.522824E-15	9.672753E-17
4.010000E+03	5.487313E-15	9.557903E-17
4.020000E+03	5.436589E-15	9.405996E-17
4.030000E+03	5.368399E-15	9.275389E-17
4.040000E+03	5.284821E-15	9.096312E-17
4.050000E+03	5.188929E-15	8.867643E-17
4.060000E+03	5.083757E-15	8.653345E-17
4.070000E+03	4.973187E-15	8.390104E-17
4.080000E+03	4.860107E-15	8.082139E-17
4.090000E+03	4.746592E-15	7.795177E-17
4.100000E+03	4.636221E-15	7.480118E-17
4.110000E+03	4.531904E-15	7.173593E-17
4.120000E+03	4.436529E-15	6.962685E-17
4.130000E+03	4.359078E-15	6.774745E-17
4.140000E+03	4.306159E-15	6.613908E-17
4.150000E+03	4.280814E-15	6.555045E-17
4.160000E+03	4.290400E-15	6.523904E-17
4.170000E+03	4.336526E-15	6.517620E-17
4.180000E+03	4.414356E-15	6.605417E-17
4.190000E+03	4.523043E-15	6.699762E-17
4.200000E+03	4.654978E-15	6.789527E-17
4.210000E+03	4.797609E-15	6.948964E-17
4.220000E+03	4.947365E-15	7.073008E-17
4.230000E+03	5.097244E-15	7.156900E-17
4.240000E+03	5.236433E-15	7.300301E-17
4.250000E+03	5.363704E-15	7.379174E-17
4.260000E+03	5.475067E-15	7.397067E-17
4.270000E+03	5.561954E-15	7.483604E-17
4.280000E+03	5.621356E-15	7.483365E-17
4.290000E+03	5.650061E-15	7.389886E-17
4.300000E+03	5.645975E-15	7.352819E-17
4.310000E+03	5.614980E-15	7.212935E-17
4.320000E+03	5.568233E-15	6.990599E-17
4.330000E+03	5.523267E-15	6.870844E-17
4.340000E+03	5.508762E-15	6.698065E-17
4.350000E+03	5.552406E-15	6.498675E-17
4.360000E+03	5.668400E-15	6.437860E-17
4.370000E+03	5.852437E-15	6.261957E-17
4.380000E+03	6.058822E-15	6.003956E-17
4.390000E+03	6.194725E-15	6.159154E-17
4.400000E+03	6.233801E-15	6.502925E-17
4.410000E+03	6.253821E-15	6.743828E-17
4.420000E+03	6.318558E-15	7.034315E-17
4.430000E+03	6.447469E-15	7.169001E-17
4.440000E+03	6.624929E-15	7.204712E-17
4.450000E+03	6.822474E-15	7.436055E-17
4.460000E+03	7.024146E-15	7.545224E-17
4.470000E+03	7.213516E-15	7.530824E-17
4.480000E+03	7.373315E-15	7.745979E-17
4.490000E+03	7.496484E-15	7.796276E-17
4.500000E+03	7.576921E-15	7.668623E-17
4.510000E+03	7.609362E-15	7.768856E-17
4.520000E+03	7.592259E-15	7.668037E-17
4.530000E+03	7.525118E-15	7.385257E-17
4.540000E+03	7.411566E-15	7.369684E-17
4.550000E+03	7.264106E-15	7.168651E-17
4.560000E+03	7.094483E-15	6.800663E-17
4.570000E+03	6.912112E-15	6.706790E-17
4.580000E+03	6.734689E-15	6.451907E-17
4.590000E+03	6.573811E-15	6.082201E-17
4.600000E+03	6.431978E-15	6.051261E-17
4.610000E+03	6.315014E-15	5.896171E-17
4.620000E+03	6.222731E-15	5.622947E-17
4.630000E+03	6.151469E-15	5.680947E-17
4.640000E+03	6.113434E-15	5.621666E-17
4.650000E+03	6.113108E-15	5.447711E-17
4.660000E+03	6.144694E-15	5.614997E-17
4.670000E+03	6.225417E-15	5.670562E-17
4.680000E+03	6.353435E-15	5.594634E-17
4.690000E+03	6.508276E-15	5.844418E-17
4.700000E+03	6.695842E-15	5.929995E-17
4.710000E+03	6.908789E-15	5.865009E-17
4.720000E+03	7.127468E-15	6.225669E-17
4.730000E+03	7.354845E-15	6.403579E-17
4.740000E+03	7.596067E-15	6.321326E-17
4.750000E+03	7.847927E-15	6.517752E-17
4.760000E+03	8.091236E-15	6.207622E-17
4.770000E+03	8.301029E-15	5.231295E-17
4.780000E+03	8.445799E-15	5.000287E-17
4.790000E+03	8.476712E-15	5.849176E-17
4.800000E+03	8.407879E-15	6.668123E-17
4.810000E+03	8.312509E-15	7.452057E-17
4.820000E+03	8.216769E-15	7.713027E-17
4.830000E+03	8.129065E-15	7.635639E-17
4.840000E+03	8.054741E-15	7.871399E-17
4.850000E+03	7.999942E-15	7.940153E-17
4.860000E+03	7.960545E-15	7.856824E-17
4.870000E+03	7.924647E-15	8.131899E-17
4.880000E+03	7.891326E-15	8.283155E-17
4.890000E+03	7.852923E-15	8.270588E-17
4.900000E+03	7.796597E-15	8.513760E-17
4.910000E+03	7.718311E-15	8.611686E-17
4.920000E+03	7.615206E-15	8.541864E-17
4.930000E+03	7.485825E-15	8.665187E-17
4.940000E+03	7.338750E-15	8.657647E-17
4.950000E+03	7.184039E-15	8.515070E-17
4.960000E+03	7.030360E-15	8.543328E-17
4.970000E+03	6.895992E-15	8.495444E-17
4.980000E+03	6.790214E-15	8.385716E-17
4.990000E+03	6.712949E-15	8.472854E-17
5.000000E+03	6.674067E-15	8.534373E-17
5.010000E+03	6.669600E-15	8.560890E-17
5.020000E+03	6.684190E-15	8.760807E-17
5.030000E+03	6.717219E-15	8.920282E-17
5.040000E+03	6.760028E-15	9.015590E-17
5.050000E+03	6.797023E-15	9.230865E-17
5.060000E+03	6.826556E-15	9.370588E-17
5.070000E+03	6.845181E-15	9.423621E-17
5.080000E+03	6.846988E-15	9.573563E-17
5.090000E+03	6.837814E-15	9.647459E-17
5.100000E+03	6.822025E-15	9.646900E-17
5.110000E+03	6.800917E-15	9.751502E-17
5.120000E+03	6.783984E-15	9.805393E-17
5.130000E+03	6.775095E-15	9.809703E-17
5.140000E+03	6.772639E-15	9.926660E-17
5.150000E+03	6.782527E-15	1.000985E-16
5.160000E+03	6.803278E-15	1.005812E-16
5.170000E+03	6.826548E-15	1.021770E-16
5.180000E+03	6.852450E-15	1.033722E-16
5.190000E+03	6.876204E-15	1.040099E-16
5.200000E+03	6.889163E-15	1.054053E-16
5.210000E+03	6.890646E-15	1.061322E-16
5.220000E+03	6.879089E-15	1.061225E-16
5.230000E+03	6.851268E-15	1.066999E-16
5.240000E+03	6.810885E-15	1.065912E-16
5.250000E+03	6.760341E-15	1.058236E-16
5.260000E+03	6.700456E-15	1.057159E-16
5.270000E+03	6.636386E-15	1.050949E-16
5.280000E+03	6.570779E-15	1.040167E-16
5.290000E+03	6.504156E-15	1.037235E-16
5.300000E+03	6.441160E-15	1.030948E-16
5.310000E+03	6.383657E-15	1.021525E-16
5.320000E+03	6.331029E-15	1.020264E-16
5.330000E+03	6.286774E-15	1.016492E-16
5.340000E+03	6.252024E-15	1.010249E-16
5.350000E+03	6.225663E-15	1.012127E-16
5.360000E+03	6.210413E-15	1.012024E-16
5.370000E+03	6.207958E-15	1.010171E-16
5.380000E+03	6.219260E-15	1.017166E-16
5.390000E+03	6.250024E-15	1.023453E-16
5.400000E+03	6.307723E-15	1.029490E-16
5.410000E+03	6.401094E-15	1.045730E-16
5.420000E+03	6.540099E-15	1.060783E-16
5.430000E+03	6.738819E-15	1.070784E-16
5.440000E+03	7.010652E-15	1.079705E-16
5.450000E+03	7.351961E-15	1.065405E-16
5.460000E+03	7.749516E-15	1.008397E-16
5.470000E+03	8.159639E-15	9.037581E-17
5.480000E+03	8.454262E-15	7.583211E-17
5.490000E+03	8.472382E-15	6.804144E-17
5.500000E+03	8.161171E-15	7.700058E-17
5.510000E+03	7.638127E-15	8.898011E-17
5.520000E+03	7.063849E-15	9.600492E-17
5.530000E+03	6.544504E-15	9.889765E-17
5.540000E+03	6.106861E-15	9.846686E-17
5.550000E+03	5.750902E-15	9.631940E-17
5.560000E+03	5.470376E-15	9.416476E-17
5.570000E+03	5.250256E-15	9.175062E-17
5.580000E+03	5.076890E-15	8.933349E-17
5.590000E+03	4.941003E-15	8.765260E-17
5.600000E+03	4.836545E-15	8.612378E-17
5.610000E+03	4.758739E-15	8.478149E-17
5.620000E+03	4.703220E-15	8.420998E-17
5.630000E+03	4.668025E-15	8.379509E-17
5.640000E+03	4.649396E-15	8.347342E-17
5.650000E+03	4.642215E-15	8.374040E-17
5.660000E+03	4.645252E-15	8.399355E-17
5.670000E+03	4.655614E-15	8.417228E-17
5.680000E+03	4.669076E-15	8.477403E-17
5.690000E+03	4.685909E-15	8.523647E-17
5.700000E+03	4.704711E-15	8.552855E-17
5.710000E+03	4.722521E-15	8.617314E-17
5.720000E+03	4.740863E-15	8.663251E-17
5.730000E+03	4.759365E-15	8.689868E-17
5.740000E+03	4.775870E-15	8.751393E-17
5.750000E+03	4.792413E-15	8.794161E-17
5.760000E+03	4.809168E-15	8.818077E-17
5.770000E+03	4.823731E-15	8.876341E-17
5.780000E+03	4.836812E-15	8.913102E-17
5.790000E+03	4.847251E-15	8.925467E-17
5.800000E+03	4.851947E-15	8.964814E-17
5.810000E+03	4.851486E-15	8.975640E-17
5.820000E+03	4.845127E-15	8.956715E-17
5.830000E+03	4.830815E-15	8.961563E-17
5.840000E+03	4.809804E-15	8.938337E-17
5.850000E+03	4.782229E-15	8.889939E-17
5.860000E+03	4.747422E-15	8.871377E-17
5.870000E+03	4.709536E-15	8.831048E-17
5.880000E+03	4.671402E-15	8.765538E-17
5.890000E+03	4.633774E-15	8.723783E-17
5.900000E+03	4.600110E-15	8.659189E-17
5.910000E+03	4.571205E-15	8.574216E-17
5.920000E+03	4.545103E-15	8.517823E-17
5.930000E+03	4.522660E-15	8.444148E-17
5.940000E+03	4.502410E-15	8.357843E-17
5.950000E+03	4.481334E-15	8.308672E-17
5.960000E+03	4.460584E-15	8.245829E-17
5.970000E+03	4.439980E-15	8.168886E-17
5.980000E+03	4.417459E-15	8.125407E-17
5.990000E+03	4.395088E-15	8.065411E-17
6.000000E+03	4.373142E-15	7.989609E-17
6.010000E+03	4.350155E-15	7.947318E-17
6.020000E+03	4.328584E-15	7.889122E-17
6.030000E+03	4.308673E-15	7.815663E-17
6.040000E+03	4.288202E-15	7.775339E-17
6.050000E+03	4.266961E-15	7.715208E-17
6.060000E+03	4.242224E-15	7.633024E-17
6.070000E+03	4.208859E-15	7.573713E-17
6.080000E+03	4.165505E-15	7.480112E-17
6.090000E+03	4.109693E-15	7.347616E-17
6.100000E+03	4.039027E-15	7.223266E-17
6.110000E+03	3.957026E-15	7.057254E-17
6.120000E+03	3.867102E-15	6.853566E-17
6.130000E+03	3.771992E-15	6.666096E-17
6.140000E+03	3.679228E-15	6.460019E-17
6.150000E+03	3.593834E-15	6.252306E-17
6.160000E+03	3.518109E-15	6.098350E-17
6.170000E+03	3.458334E-15	5.957698E-17
6.180000E+03	3.416947E-15	5.835865E-17
6.190000E+03	3.392677E-15	5.778880E-17
6.200000E+03	3.388840E-15	5.740366E-17
6.210000E+03	3.404883E-15	5.720024E-17
6.220000E+03	3.436246E-15	5.760999E-17
6.230000E+03	3.482919E-15	5.810114E-17
6.240000E+03	3.542217E-15	5.863883E-17
6.250000E+03	3.609685E-15	5.971076E-17
6.260000E+03	3.688600E-15	6.075718E-17
6.270000E+03	3.781523E-15	6.175025E-17
6.280000E+03	3.888708E-15	6.326311E-17
6.290000E+03	4.015995E-15	6.473914E-17
6.300000E+03	4.165402E-15	6.621615E-17
6.310000E+03	4.333081E-15	6.834156E-17
6.320000E+03	4.518467E-15	7.035901E-17
6.330000E+03	4.715677E-15	7.225479E-17
6.340000E+03	4.914489E-15	7.481658E-17
6.350000E+03	5.109066E-15	7.700127E-17
6.360000E+03	5.294015E-15	7.876372E-17
6.370000E+03	5.463848E-15	8.115523E-17
6.380000E+03	5.615846E-15	8.296257E-17
6.390000E+03	5.748977E-15	8.412853E-17
6.400000E+03	5.862944E-15	8.589134E-17
6.410000E+03	5.956631E-15	8.694925E-17
6.420000E+03	6.028610E-15	8.729151E-17
6.430000E+03	6.077705E-15	8.826746E-17
6.440000E+03	6.103790E-15	8.846374E-17
6.450000E+03	6.106075E-15	8.778817E-17
6.460000E+03	6.082497E-15	8.746600E-17
6.470000E+03	6.030330E-15	8.580179E-17
6.480000E+03	5.946187E-15	8.221078E-17
6.490000E+03	5.829092E-15	7.744614E-17
6.500000E+03	5.685904E-15	7.003051E-17
6.510000E+03	5.530866E-15	6.027106E-17
6.520000E+03	5.392351E-15	5.204619E-17
6.530000E+03	5.315720E-15	5.048588E-17
6.540000E+03	5.308123E-15	5.684166E-17
6.550000E+03	5.328593E-15	6.600617E-17
6.560000E+03	5.348625E-15	7.349538E-17
6.570000E+03	5.353923E-15	7.858434E-17
6.580000E+03	5.337136E-15	8.233890E-17
6.590000E+03	5.299593E-15	8.435958E-17
6.600000E+03	5.245389E-15	8.510774E-17
6.610000E+03	5.178449E-15	8.575765E-17
6.620000E+03	5.103663E-15	8.575161E-17
6.630000E+03	5.025010E-15	8.521625E-17
6.640000E+03	4.944754E-15	8.498087E-17
6.650000E+03	4.865060E-15	8.442691E-17
6.660000E+03	4.786788E-15	8.358848E-17
6.670000E+03	4.709521E-15	8.313577E-17
6.680000E+03	4.633347E-15	8.246429E-17
6.690000E+03	4.557804E-15	8.156181E-17
6.700000E+03	4.482103E-15	8.100044E-17
6.710000E+03	4.407207E-15	8.024175E-17
6.720000E+03	4.334088E-15	7.928623E-17
6.730000E+03	4.263020E-15	7.865399E-17
6.740000E+03	4.195308E-15	7.788954E-17
6.750000E+03	4.131518E-15	7.701402E-17
6.760000E+03	4.071216E-15	7.649038E-17
6.770000E+03	4.014614E-15	7.587490E-17
6.780000E+03	3.961112E-15	7.513755E-17
6.790000E+03	3.909556E-15	7.467016E-17
6.800000E+03	3.859910E-15	7.407599E-17
6.810000E+03	3.811843E-15	7.335843E-17
6.820000E+03	3.764509E-15	7.289762E-17
6.830000E+03	3.718010E-15	7.234251E-17
6.840000E+03	3.672116E-15	7.170395E-17
6.850000E+03	3.626035E-15	7.132342E-17
6.860000E+03	3.580044E-15	7.083825E-17
6.870000E+03	3.534119E-15	7.019444E-17
6.880000E+03	3.488028E-15	6.967915E-17
6.890000E+03	3.442928E-15	6.901945E-17
6.900000E+03	3.399557E-15	6.825166E-17
6.910000E+03	3.358211E-15	6.769070E-17
6.920000E+03	3.319869E-15	6.707709E-17
6.930000E+03	3.284560E-15	6.641575E-17
6.940000E+03	3.251552E-15	6.596970E-17
6.950000E+03	3.220681E-15	6.546350E-17
6.960000E+03	3.191014E-15	6.487761E-17
6.970000E+03	3.161317E-15	6.445211E-17
6.980000E+03	3.131477E-15	6.393824E-17
6.990000E+03	3.101339E-15	6.334823E-17
7.000000E+03	3.070564E-15	6.292935E-17
7.010000E+03	3.039896E-15	6.243230E-17
7.020000E+03	3.009576E-15	6.183387E-17
7.030000E+03	2.979730E-15	6.135641E-17
7.040000E+03	2.951423E-15	6.078506E-17
7.050000E+03	2.925137E-15	6.014023E-17
7.060000E+03	2.900942E-15	5.966911E-17
7.070000E+03	2.879675E-15	5.919675E-17
7.080000E+03	2.861495E-15	5.877450E-17
7.090000E+03	2.845896E-15	5.863273E-17
7.100000E+03	2.832786E-15	5.851160E-17
7.110000E+03	2.821493E-15	5.833195E-17
7.120000E+03	2.810848E-15	5.824452E-17
7.130000E+03	2.800504E-15	5.802490E-17
7.140000E+03	2.789751E-15	5.767587E-17
7.150000E+03	2.777768E-15	5.741111E-17
7.160000E+03	2.764547E-15	5.703665E-17
7.170000E+03	2.750118E-15	5.657766E-17
7.180000E+03	2.734069E-15	5.625055E-17
7.190000E+03	2.716791E-15	5.585423E-17
7.200000E+03	2.698388E-15	5.539357E-17
7.210000E+03	2.678969E-15	5.507350E-17
7.220000E+03	2.659236E-15	5.467572E-17
7.230000E+03	2.639900E-15	5.418625E-17
7.240000E+03	2.621285E-15	5.380050E-17
7.250000E+03	2.604360E-15	5.333385E-17
7.260000E+03	2.589465E-15	5.280877E-17
7.270000E+03	2.576547E-15	5.243985E-17
7.280000E+03	2.566234E-15	5.203237E-17
7.290000E+03	2.558334E-15	5.158961E-17
7.300000E+03	2.551985E-15	5.130650E-17
7.310000E+03	2.546563E-15	5.095455E-17
7.320000E+03	2.541052E-15	5.052487E-17
7.330000E+03	2.534165E-15	5.021245E-17
7.340000E+03	2.525437E-15	4.977977E-17
7.350000E+03	2.514719E-15	4.922683E-17
7.360000E+03	2.501853E-15	4.876837E-17
7.370000E+03	2.487624E-15	4.816787E-17
7.380000E+03	2.472676E-15	4.742423E-17
7.390000E+03	2.457394E-15	4.676869E-17
7.400000E+03	2.442342E-15	4.598943E-17
7.410000E+03	2.427635E-15	4.514558E-17
7.420000E+03	2.413165E-15	4.450958E-17
7.430000E+03	2.399220E-15	4.383225E-17
7.440000E+03	2.385905E-15	4.314520E-17
7.450000E+03	2.373302E-15	4.272247E-17
7.460000E+03	2.362044E-15	4.225738E-17
7.470000E+03	2.352611E-15	4.171414E-17
7.480000E+03	2.345054E-15	4.134584E-17
7.490000E+03	2.340079E-15	4.083948E-17
7.500000E+03	2.337719E-15	4.019115E-17
7.510000E+03	2.337426E-15	3.969009E-17
7.520000E+03	2.339642E-15	3.900486E-17
7.530000E+03	2.343880E-15	3.816156E-17
7.540000E+03	2.349059E-15	3.750028E-17
7.550000E+03	2.354842E-15	3.663000E-17
7.560000E+03	2.360530E-15	3.563776E-17
7.570000E+03	2.364870E-15	3.497751E-17
7.580000E+03	2.367582E-15	3.412771E-17
7.590000E+03	2.368210E-15	3.316270E-17
7.600000E+03	2.366164E-15	3.268692E-17
7.610000E+03	2.361358E-15	3.210404E-17
7.620000E+03	2.353403E-15	3.157435E-17
7.630000E+03	2.341677E-15	3.188752E-17
7.640000E+03	2.327540E-15	3.224544E-17
7.650000E+03	2.312158E-15	3.245489E-17
7.660000E+03	2.295917E-15	3.306078E-17
7.670000E+03	2.280422E-15	3.345112E-17
7.680000E+03	2.266599E-15	3.350355E-17
7.690000E+03	2.254397E-15	3.367486E-17
7.700000E+03	2.244038E-15	3.358129E-17
7.710000E+03	2.234853E-15	3.335681E-17
7.720000E+03	2.225338E-15	3.354654E-17
7.730000E+03	2.215306E-15	3.365428E-17
7.740000E+03	2.203862E-15	3.360230E-17
7.750000E+03	2.189800E-15	3.379873E-17
7.760000E+03	2.173461E-15	3.380388E-17
