#wls	flux	fluxerr
1.600000E+03	2.512137E-15	4.100597E-15
1.640000E+03	2.525751E-15	4.093982E-15
1.680000E+03	2.539896E-15	4.085526E-15
1.720000E+03	2.554042E-15	4.074154E-15
1.760000E+03	2.568629E-15	4.060338E-15
1.800000E+03	2.583099E-15	4.042950E-15
1.840000E+03	2.598155E-15	4.022831E-15
1.880000E+03	2.613507E-15	3.999245E-15
1.920000E+03	2.629156E-15	3.971895E-15
1.960000E+03	2.645070E-15	3.940421E-15
2.000000E+03	2.661478E-15	3.904834E-15
2.040000E+03	2.678841E-15	3.865442E-15
2.080000E+03	2.696691E-15	3.821168E-15
2.120000E+03	2.715932E-15	3.772874E-15
2.160000E+03	2.736790E-15	3.720380E-15
2.200000E+03	2.759667E-15	3.663683E-15
2.240000E+03	2.785107E-15	3.602879E-15
2.280000E+03	2.813251E-15	3.537455E-15
2.320000E+03	2.844118E-15	3.466686E-15
2.360000E+03	2.877844E-15	3.389952E-15
2.400000E+03	2.913033E-15	3.304838E-15
2.440000E+03	2.949449E-15	3.210422E-15
2.480000E+03	2.985682E-15	3.104617E-15
2.520000E+03	3.021448E-15	2.986755E-15
2.560000E+03	3.055611E-15	2.855501E-15
2.600000E+03	3.087716E-15	2.710464E-15
2.640000E+03	3.117172E-15	2.551383E-15
2.680000E+03	3.143854E-15	2.378679E-15
2.720000E+03	3.166897E-15	2.192521E-15
2.760000E+03	3.186716E-15	1.994397E-15
2.800000E+03	3.203463E-15	1.785908E-15
2.840000E+03	3.217809E-15	1.569336E-15
2.880000E+03	3.231025E-15	1.347631E-15
2.920000E+03	3.245622E-15	1.124656E-15
2.960000E+03	3.265063E-15	9.050791E-16
3.000000E+03	3.294221E-15	6.949868E-16
3.010000E+03	3.303881E-15	6.449136E-16
3.020000E+03	3.314665E-15	5.961367E-16
3.030000E+03	3.326679E-15	5.488595E-16
3.040000E+03	3.340265E-15	5.033523E-16
3.050000E+03	3.355427E-15	4.598622E-16
3.060000E+03	3.372392E-15	4.187091E-16
3.070000E+03	3.391145E-15	3.802162E-16
3.080000E+03	3.412060E-15	3.447733E-16
3.090000E+03	3.434846E-15	3.126832E-16
3.100000E+03	3.459321E-15	2.841959E-16
3.110000E+03	3.485041E-15	2.594189E-16
3.120000E+03	3.511274E-15	2.383076E-16
3.130000E+03	3.537374E-15	2.206766E-16
3.140000E+03	3.562606E-15	2.061906E-16
3.150000E+03	3.586801E-15	1.944626E-16
3.160000E+03	3.609975E-15	1.850489E-16
3.170000E+03	3.632795E-15	1.774926E-16
3.180000E+03	3.656443E-15	1.714137E-16
3.190000E+03	3.683242E-15	1.665472E-16
3.200000E+03	3.716538E-15	1.626785E-16
3.210000E+03	3.760340E-15	1.596763E-16
3.220000E+03	3.819116E-15	1.574811E-16
3.230000E+03	3.897311E-15	1.560193E-16
3.240000E+03	3.999365E-15	1.552414E-16
3.250000E+03	4.129288E-15	1.550991E-16
3.260000E+03	4.290600E-15	1.554868E-16
3.270000E+03	4.486606E-15	1.563129E-16
3.280000E+03	4.720500E-15	1.575151E-16
3.290000E+03	4.995651E-15	1.590304E-16
3.300000E+03	5.315943E-15	1.609118E-16
3.310000E+03	5.685428E-15	1.633281E-16
3.320000E+03	6.108940E-15	1.664901E-16
3.330000E+03	6.591938E-15	1.707479E-16
3.340000E+03	7.141394E-15	1.764437E-16
3.350000E+03	7.765871E-15	1.835216E-16
3.360000E+03	8.475065E-15	1.918054E-16
3.370000E+03	9.276867E-15	2.010907E-16
3.380000E+03	1.017521E-14	2.109023E-16
3.390000E+03	1.116774E-14	2.210214E-16
3.400000E+03	1.224246E-14	2.313700E-16
3.410000E+03	1.337385E-14	2.411140E-16
3.420000E+03	1.452445E-14	2.496568E-16
3.430000E+03	1.564423E-14	2.567562E-16
3.440000E+03	1.667545E-14	2.617049E-16
3.450000E+03	1.755808E-14	2.656243E-16
3.460000E+03	1.824254E-14	2.701076E-16
3.470000E+03	1.869608E-14	2.727848E-16
3.480000E+03	1.890851E-14	2.727161E-16
3.490000E+03	1.889024E-14	2.710541E-16
3.500000E+03	1.867153E-14	2.661708E-16
3.510000E+03	1.830007E-14	2.585294E-16
3.520000E+03	1.783886E-14	2.504209E-16
3.530000E+03	1.735769E-14	2.410829E-16
3.540000E+03	1.692604E-14	2.311658E-16
3.550000E+03	1.660001E-14	2.221107E-16
3.560000E+03	1.640801E-14	2.118940E-16
3.570000E+03	1.634924E-14	2.008242E-16
3.580000E+03	1.636419E-14	1.922049E-16
3.590000E+03	1.630955E-14	1.877566E-16
3.600000E+03	1.608656E-14	1.901231E-16
3.610000E+03	1.582042E-14	1.966590E-16
3.620000E+03	1.572455E-14	2.019560E-16
3.630000E+03	1.597020E-14	2.066900E-16
3.640000E+03	1.668228E-14	2.146931E-16
3.650000E+03	1.794854E-14	2.275046E-16
3.660000E+03	1.983489E-14	2.493913E-16
3.670000E+03	2.234984E-14	2.861992E-16
3.680000E+03	2.534334E-14	3.345943E-16
3.690000E+03	2.847390E-14	3.879472E-16
3.700000E+03	3.123672E-14	4.405262E-16
3.710000E+03	3.305336E-14	4.806245E-16
3.720000E+03	3.344083E-14	4.991809E-16
3.730000E+03	3.223286E-14	4.945729E-16
3.740000E+03	2.969864E-14	4.666789E-16
3.750000E+03	2.637644E-14	4.215304E-16
3.760000E+03	2.285744E-14	3.686640E-16
3.770000E+03	1.963587E-14	3.142192E-16
3.780000E+03	1.700662E-14	2.634386E-16
3.790000E+03	1.507894E-14	2.205749E-16
3.800000E+03	1.385768E-14	1.879737E-16
3.810000E+03	1.331606E-14	1.687411E-16
3.820000E+03	1.342954E-14	1.641627E-16
3.830000E+03	1.417975E-14	1.698406E-16
3.840000E+03	1.557486E-14	1.833523E-16
3.850000E+03	1.764657E-14	2.054566E-16
3.860000E+03	2.042460E-14	2.334437E-16
3.870000E+03	2.391489E-14	2.676255E-16
3.880000E+03	2.807786E-14	3.120508E-16
3.890000E+03	3.280201E-14	3.611114E-16
3.900000E+03	3.790501E-14	4.126327E-16
3.910000E+03	4.315202E-14	4.714336E-16
3.920000E+03	4.827111E-14	5.253046E-16
3.930000E+03	5.300703E-14	5.666391E-16
3.940000E+03	5.716151E-14	5.994754E-16
3.950000E+03	6.058497E-14	6.126626E-16
3.960000E+03	6.318867E-14	6.154916E-16
3.970000E+03	6.492710E-14	6.300500E-16
3.980000E+03	6.574880E-14	6.352171E-16
3.990000E+03	6.563004E-14	6.310664E-16
4.000000E+03	6.457463E-14	6.403284E-16
4.010000E+03	6.258526E-14	6.412683E-16
4.020000E+03	5.973718E-14	6.258367E-16
4.030000E+03	5.622251E-14	6.076296E-16
4.040000E+03	5.232255E-14	5.782813E-16
4.050000E+03	4.833921E-14	5.393416E-16
4.060000E+03	4.452539E-14	5.020308E-16
4.070000E+03	4.104443E-14	4.622251E-16
4.080000E+03	3.798343E-14	4.228321E-16
4.090000E+03	3.535172E-14	3.905978E-16
4.100000E+03	3.308470E-14	3.594924E-16
4.110000E+03	3.110212E-14	3.307655E-16
4.120000E+03	2.935172E-14	3.097031E-16
4.130000E+03	2.782144E-14	2.892204E-16
4.140000E+03	2.653040E-14	2.702576E-16
4.150000E+03	2.551215E-14	2.587986E-16
4.160000E+03	2.480123E-14	2.486116E-16
4.170000E+03	2.443403E-14	2.409698E-16
4.180000E+03	2.442284E-14	2.422166E-16
4.190000E+03	2.472423E-14	2.448247E-16
4.200000E+03	2.527257E-14	2.478135E-16
4.210000E+03	2.599857E-14	2.571491E-16
4.220000E+03	2.682212E-14	2.648705E-16
4.230000E+03	2.767042E-14	2.702924E-16
4.240000E+03	2.850156E-14	2.810401E-16
4.250000E+03	2.932423E-14	2.896260E-16
4.260000E+03	3.018992E-14	2.973041E-16
4.270000E+03	3.115583E-14	3.146836E-16
4.280000E+03	3.224350E-14	3.334531E-16
4.290000E+03	3.346107E-14	3.505992E-16
4.300000E+03	3.477922E-14	3.729793E-16
4.310000E+03	3.606209E-14	3.930461E-16
4.320000E+03	3.712744E-14	4.076918E-16
4.330000E+03	3.780248E-14	4.215101E-16
4.340000E+03	3.793550E-14	4.258707E-16
4.350000E+03	3.744093E-14	4.167028E-16
4.360000E+03	3.633402E-14	3.972626E-16
4.370000E+03	3.471233E-14	3.638094E-16
4.380000E+03	3.269949E-14	3.253218E-16
4.390000E+03	3.042473E-14	3.005649E-16
4.400000E+03	2.816312E-14	2.847269E-16
4.410000E+03	2.627560E-14	2.686213E-16
4.420000E+03	2.496944E-14	2.532180E-16
4.430000E+03	2.427125E-14	2.365988E-16
4.440000E+03	2.414349E-14	2.255110E-16
4.450000E+03	2.454071E-14	2.282396E-16
4.460000E+03	2.540126E-14	2.348563E-16
4.470000E+03	2.667259E-14	2.440077E-16
4.480000E+03	2.831405E-14	2.644601E-16
4.490000E+03	3.027466E-14	2.866248E-16
4.500000E+03	3.250425E-14	3.071688E-16
4.510000E+03	3.496417E-14	3.339263E-16
4.520000E+03	3.761720E-14	3.572770E-16
4.530000E+03	4.043233E-14	3.772804E-16
4.540000E+03	4.336400E-14	4.057448E-16
4.550000E+03	4.629831E-14	4.283687E-16
4.560000E+03	4.905948E-14	4.459204E-16
4.570000E+03	5.142344E-14	4.763837E-16
4.580000E+03	5.312576E-14	4.992854E-16
4.590000E+03	5.390311E-14	5.094862E-16
4.600000E+03	5.357776E-14	5.245845E-16
4.610000E+03	5.213841E-14	5.282170E-16
4.620000E+03	4.974357E-14	5.177738E-16
4.630000E+03	4.667656E-14	5.087438E-16
4.640000E+03	4.328004E-14	4.926214E-16
4.650000E+03	3.990519E-14	4.681429E-16
4.660000E+03	3.685562E-14	4.444682E-16
4.670000E+03	3.434985E-14	4.198490E-16
4.680000E+03	3.251497E-14	3.961824E-16
4.690000E+03	3.138303E-14	3.784182E-16
4.700000E+03	3.089336E-14	3.634978E-16
4.710000E+03	3.092910E-14	3.544585E-16
4.720000E+03	3.132322E-14	3.566131E-16
4.730000E+03	3.184858E-14	3.605654E-16
4.740000E+03	3.225718E-14	3.627126E-16
4.750000E+03	3.237644E-14	3.668067E-16
4.760000E+03	3.219398E-14	3.649400E-16
4.770000E+03	3.180366E-14	3.547786E-16
4.780000E+03	3.134420E-14	3.415235E-16
4.790000E+03	3.098085E-14	3.245374E-16
4.800000E+03	3.086367E-14	3.147797E-16
4.810000E+03	3.105783E-14	3.256124E-16
4.820000E+03	3.148459E-14	3.430293E-16
4.830000E+03	3.198654E-14	3.552531E-16
4.840000E+03	3.241052E-14	3.623059E-16
4.850000E+03	3.265946E-14	3.588241E-16
4.860000E+03	3.269056E-14	3.474128E-16
4.870000E+03	3.254437E-14	3.356384E-16
4.880000E+03	3.239276E-14	3.194940E-16
4.890000E+03	3.246059E-14	3.087408E-16
4.900000E+03	3.292191E-14	3.186879E-16
4.910000E+03	3.383582E-14	3.351452E-16
4.920000E+03	3.518614E-14	3.519453E-16
4.930000E+03	3.687457E-14	3.767529E-16
4.940000E+03	3.866091E-14	3.982427E-16
4.950000E+03	4.019960E-14	4.119699E-16
4.960000E+03	4.114263E-14	4.244265E-16
4.970000E+03	4.124443E-14	4.243178E-16
4.980000E+03	4.039077E-14	4.152273E-16
4.990000E+03	3.866226E-14	4.123770E-16
5.000000E+03	3.637433E-14	4.036773E-16
5.010000E+03	3.391028E-14	3.839114E-16
5.020000E+03	3.159709E-14	3.607127E-16
5.030000E+03	2.968550E-14	3.339234E-16
5.040000E+03	2.833921E-14	3.081810E-16
5.050000E+03	2.762084E-14	2.891788E-16
5.060000E+03	2.748858E-14	2.718088E-16
5.070000E+03	2.784647E-14	2.620805E-16
5.080000E+03	2.856942E-14	2.701573E-16
5.090000E+03	2.949725E-14	2.806556E-16
5.100000E+03	3.044243E-14	2.878465E-16
5.110000E+03	3.123855E-14	2.996994E-16
5.120000E+03	3.180095E-14	3.052582E-16
5.130000E+03	3.211416E-14	3.046241E-16
5.140000E+03	3.221211E-14	3.094074E-16
5.150000E+03	3.218173E-14	3.093826E-16
5.160000E+03	3.213760E-14	3.056523E-16
5.170000E+03	3.219072E-14	3.104775E-16
5.180000E+03	3.242890E-14	3.137184E-16
5.190000E+03	3.292908E-14	3.156259E-16
5.200000E+03	3.374916E-14	3.277195E-16
5.210000E+03	3.490404E-14	3.394137E-16
5.220000E+03	3.638068E-14	3.503392E-16
5.230000E+03	3.813745E-14	3.722508E-16
5.240000E+03	4.007776E-14	3.920084E-16
5.250000E+03	4.205618E-14	4.062919E-16
5.260000E+03	4.391500E-14	4.257242E-16
5.270000E+03	4.553566E-14	4.359897E-16
5.280000E+03	4.682083E-14	4.385934E-16
5.290000E+03	4.771675E-14	4.504249E-16
5.300000E+03	4.826355E-14	4.539532E-16
5.310000E+03	4.853931E-14	4.501276E-16
5.320000E+03	4.861230E-14	4.582390E-16
5.330000E+03	4.853003E-14	4.597706E-16
5.340000E+03	4.830770E-14	4.528651E-16
5.350000E+03	4.794031E-14	4.539871E-16
5.360000E+03	4.743074E-14	4.466520E-16
5.370000E+03	4.677631E-14	4.331940E-16
5.380000E+03	4.599854E-14	4.322190E-16
5.390000E+03	4.519603E-14	4.262580E-16
5.400000E+03	4.448140E-14	4.158384E-16
5.410000E+03	4.393031E-14	4.184404E-16
5.420000E+03	4.356955E-14	4.179792E-16
5.430000E+03	4.337920E-14	4.126229E-16
5.440000E+03	4.330075E-14	4.156691E-16
5.450000E+03	4.324625E-14	4.107741E-16
5.460000E+03	4.310215E-14	3.953486E-16
5.470000E+03	4.280254E-14	3.822080E-16
5.480000E+03	4.242177E-14	3.601344E-16
5.490000E+03	4.207669E-14	3.441652E-16
5.500000E+03	4.182137E-14	3.601511E-16
5.510000E+03	4.163232E-14	3.779177E-16
5.520000E+03	4.145909E-14	3.848525E-16
5.530000E+03	4.125951E-14	3.929051E-16
5.540000E+03	4.102882E-14	3.906921E-16
5.550000E+03	4.076889E-14	3.821658E-16
5.560000E+03	4.047755E-14	3.833678E-16
5.570000E+03	4.016208E-14	3.794839E-16
5.580000E+03	3.982478E-14	3.711010E-16
5.590000E+03	3.947056E-14	3.734042E-16
5.600000E+03	3.913020E-14	3.716530E-16
5.610000E+03	3.882544E-14	3.662197E-16
5.620000E+03	3.854696E-14	3.720657E-16
5.630000E+03	3.826049E-14	3.743021E-16
5.640000E+03	3.790444E-14	3.693300E-16
5.650000E+03	3.741232E-14	3.676788E-16
5.660000E+03	3.674813E-14	3.584426E-16
5.670000E+03	3.589743E-14	3.450561E-16
5.680000E+03	3.487666E-14	3.415369E-16
5.690000E+03	3.375449E-14	3.347768E-16
5.700000E+03	3.261803E-14	3.231607E-16
5.710000E+03	3.155346E-14	3.171743E-16
5.720000E+03	3.065571E-14	3.081719E-16
5.730000E+03	2.999790E-14	2.966975E-16
5.740000E+03	2.963120E-14	2.914984E-16
5.750000E+03	2.959664E-14	2.844968E-16
5.760000E+03	2.991522E-14	2.797055E-16
5.770000E+03	3.056704E-14	2.894181E-16
5.780000E+03	3.148165E-14	3.001761E-16
5.790000E+03	3.254813E-14	3.094333E-16
5.800000E+03	3.364746E-14	3.287365E-16
5.810000E+03	3.469060E-14	3.454876E-16
5.820000E+03	3.560073E-14	3.557437E-16
5.830000E+03	3.631905E-14	3.693640E-16
5.840000E+03	3.683863E-14	3.769553E-16
5.850000E+03	3.717313E-14	3.802139E-16
5.860000E+03	3.734679E-14	3.921119E-16
5.870000E+03	3.741782E-14	4.016814E-16
5.880000E+03	3.744061E-14	4.049049E-16
5.890000E+03	3.744966E-14	4.092287E-16
5.900000E+03	3.746509E-14	4.066384E-16
5.910000E+03	3.747676E-14	3.968814E-16
5.920000E+03	3.744667E-14	3.870653E-16
5.930000E+03	3.732837E-14	3.692587E-16
5.940000E+03	3.705618E-14	3.512355E-16
5.950000E+03	3.658208E-14	3.475769E-16
5.960000E+03	3.593588E-14	3.407055E-16
5.970000E+03	3.516900E-14	3.282007E-16
5.980000E+03	3.433328E-14	3.225003E-16
5.990000E+03	3.350564E-14	3.114457E-16
6.000000E+03	3.275610E-14	2.981697E-16
6.010000E+03	3.213006E-14	2.971733E-16
6.020000E+03	3.165760E-14	2.943457E-16
6.030000E+03	3.134032E-14	2.889740E-16
6.040000E+03	3.114613E-14	2.936214E-16
6.050000E+03	3.101603E-14	2.953110E-16
6.060000E+03	3.086364E-14	2.913675E-16
6.070000E+03	3.060909E-14	2.913839E-16
6.080000E+03	3.023585E-14	2.853233E-16
6.090000E+03	2.975441E-14	2.770378E-16
6.100000E+03	2.919060E-14	2.807850E-16
6.110000E+03	2.859947E-14	2.837107E-16
6.120000E+03	2.803172E-14	2.813927E-16
6.130000E+03	2.749987E-14	2.816013E-16
6.140000E+03	2.696506E-14	2.768858E-16
6.150000E+03	2.634076E-14	2.666763E-16
6.160000E+03	2.553825E-14	2.572409E-16
6.170000E+03	2.451921E-14	2.416164E-16
6.180000E+03	2.326523E-14	2.231281E-16
6.190000E+03	2.179766E-14	2.107895E-16
6.200000E+03	2.022468E-14	1.964375E-16
6.210000E+03	1.866610E-14	1.819935E-16
6.220000E+03	1.719826E-14	1.759310E-16
6.230000E+03	1.585055E-14	1.706838E-16
6.240000E+03	1.463341E-14	1.626226E-16
6.250000E+03	1.355622E-14	1.547837E-16
6.260000E+03	1.263137E-14	1.462011E-16
6.270000E+03	1.187494E-14	1.390301E-16
6.280000E+03	1.131604E-14	1.369387E-16
6.290000E+03	1.100626E-14	1.377474E-16
6.300000E+03	1.100242E-14	1.403590E-16
6.310000E+03	1.135555E-14	1.461109E-16
6.320000E+03	1.210999E-14	1.543807E-16
6.330000E+03	1.330769E-14	1.656253E-16
6.340000E+03	1.497915E-14	1.812052E-16
6.350000E+03	1.711557E-14	1.983551E-16
6.360000E+03	1.964520E-14	2.162811E-16
6.370000E+03	2.243528E-14	2.362227E-16
6.380000E+03	2.532910E-14	2.514507E-16
6.390000E+03	2.815177E-14	2.654903E-16
6.400000E+03	3.073856E-14	2.900182E-16
6.410000E+03	3.299596E-14	3.109097E-16
6.420000E+03	3.489302E-14	3.251826E-16
6.430000E+03	3.643391E-14	3.465267E-16
6.440000E+03	3.764952E-14	3.617035E-16
6.450000E+03	3.857159E-14	3.687105E-16
6.460000E+03	3.922031E-14	3.809060E-16
6.470000E+03	3.959553E-14	3.850842E-16
6.480000E+03	3.968789E-14	3.803944E-16
6.490000E+03	3.950251E-14	3.793131E-16
6.500000E+03	3.908250E-14	3.676705E-16
6.510000E+03	3.852227E-14	3.473439E-16
6.520000E+03	3.801929E-14	3.378848E-16
6.530000E+03	3.788705E-14	3.343821E-16
6.540000E+03	3.822138E-14	3.389368E-16
6.550000E+03	3.882278E-14	3.568555E-16
6.560000E+03	3.952428E-14	3.672575E-16
6.570000E+03	4.021161E-14	3.693554E-16
6.580000E+03	4.079157E-14	3.788396E-16
6.590000E+03	4.122063E-14	3.803905E-16
6.600000E+03	4.146966E-14	3.760809E-16
6.610000E+03	4.152172E-14	3.844986E-16
6.620000E+03	4.141560E-14	3.875003E-16
6.630000E+03	4.119689E-14	3.821562E-16
6.640000E+03	4.089913E-14	3.833921E-16
6.650000E+03	4.055681E-14	3.769404E-16
6.660000E+03	4.017886E-14	3.654763E-16
6.670000E+03	3.975303E-14	3.656741E-16
6.680000E+03	3.927638E-14	3.601989E-16
6.690000E+03	3.873202E-14	3.494585E-16
6.700000E+03	3.810177E-14	3.500934E-16
6.710000E+03	3.740730E-14	3.454686E-16
6.720000E+03	3.667223E-14	3.352200E-16
6.730000E+03	3.591352E-14	3.347203E-16
6.740000E+03	3.516061E-14	3.294659E-16
6.750000E+03	3.443149E-14	3.189409E-16
6.760000E+03	3.372951E-14	3.162241E-16
6.770000E+03	3.306167E-14	3.087046E-16
6.780000E+03	3.242165E-14	2.983271E-16
6.790000E+03	3.179841E-14	2.991699E-16
6.800000E+03	3.119588E-14	2.977737E-16
6.810000E+03	3.061720E-14	2.931057E-16
6.820000E+03	3.005707E-14	2.973178E-16
6.830000E+03	2.951429E-14	2.998191E-16
6.840000E+03	2.898129E-14	2.979573E-16
6.850000E+03	2.844736E-14	2.996218E-16
6.860000E+03	2.791204E-14	2.970705E-16
6.870000E+03	2.737294E-14	2.883459E-16
6.880000E+03	2.682791E-14	2.787520E-16
6.890000E+03	2.629464E-14	2.635990E-16
6.900000E+03	2.579279E-14	2.484855E-16
6.910000E+03	2.534200E-14	2.431882E-16
6.920000E+03	2.497566E-14	2.371218E-16
6.930000E+03	2.472275E-14	2.311394E-16
6.940000E+03	2.459647E-14	2.357411E-16
6.950000E+03	2.459012E-14	2.402633E-16
6.960000E+03	2.467889E-14	2.415712E-16
6.970000E+03	2.483227E-14	2.469013E-16
6.980000E+03	2.501828E-14	2.490074E-16
6.990000E+03	2.520078E-14	2.489220E-16
7.000000E+03	2.534792E-14	2.555663E-16
7.010000E+03	2.545220E-14	2.600696E-16
7.020000E+03	2.550770E-14	2.596667E-16
7.030000E+03	2.550827E-14	2.603620E-16
7.040000E+03	2.545819E-14	2.561609E-16
7.050000E+03	2.535532E-14	2.499339E-16
7.060000E+03	2.519562E-14	2.507066E-16
7.070000E+03	2.498866E-14	2.490378E-16
7.080000E+03	2.474150E-14	2.431136E-16
7.090000E+03	2.445390E-14	2.396305E-16
7.100000E+03	2.414031E-14	2.317487E-16
7.110000E+03	2.381130E-14	2.233217E-16
7.120000E+03	2.347561E-14	2.249824E-16
7.130000E+03	2.315551E-14	2.258867E-16
7.140000E+03	2.287655E-14	2.224592E-16
7.150000E+03	2.266140E-14	2.209284E-16
7.160000E+03	2.253423E-14	2.155443E-16
7.170000E+03	2.251237E-14	2.102723E-16
7.180000E+03	2.259363E-14	2.154027E-16
7.190000E+03	2.275514E-14	2.207796E-16
7.200000E+03	2.294892E-14	2.234525E-16
7.210000E+03	2.311683E-14	2.305492E-16
7.220000E+03	2.322005E-14	2.349186E-16
7.230000E+03	2.322178E-14	2.362727E-16
7.240000E+03	2.309918E-14	2.421317E-16
7.250000E+03	2.287465E-14	2.457007E-16
7.260000E+03	2.259067E-14	2.450203E-16
7.270000E+03	2.228657E-14	2.452120E-16
7.280000E+03	2.200329E-14	2.424048E-16
7.290000E+03	2.177348E-14	2.376134E-16
7.300000E+03	2.161711E-14	2.360953E-16
7.310000E+03	2.153929E-14	2.330132E-16
7.320000E+03	2.153241E-14	2.283718E-16
7.330000E+03	2.158231E-14	2.266700E-16
7.340000E+03	2.167910E-14	2.226487E-16
7.350000E+03	2.180655E-14	2.177669E-16
7.360000E+03	2.194770E-14	2.183287E-16
7.370000E+03	2.210018E-14	2.169346E-16
7.380000E+03	2.225705E-14	2.136241E-16
7.390000E+03	2.240555E-14	2.152748E-16
7.400000E+03	2.253726E-14	2.139591E-16
7.410000E+03	2.263572E-14	2.104750E-16
7.420000E+03	2.267865E-14	2.133597E-16
7.430000E+03	2.265835E-14	2.137180E-16
7.440000E+03	2.256464E-14	2.116347E-16
7.450000E+03	2.238203E-14	2.163134E-16
7.460000E+03	2.210885E-14	2.194184E-16
7.470000E+03	2.174650E-14	2.190717E-16
7.480000E+03	2.130142E-14	2.220460E-16
7.490000E+03	2.080369E-14	2.228165E-16
7.500000E+03	2.028966E-14	2.198065E-16
7.510000E+03	1.979237E-14	2.173413E-16
7.520000E+03	1.934634E-14	2.125959E-16
7.530000E+03	1.897819E-14	2.067650E-16
7.540000E+03	1.870175E-14	2.044370E-16
7.550000E+03	1.851652E-14	2.028105E-16
7.560000E+03	1.841094E-14	2.042217E-16
7.570000E+03	1.837023E-14	2.145924E-16
7.580000E+03	1.838160E-14	2.283838E-16
7.590000E+03	1.843257E-14	2.396384E-16
7.600000E+03	1.850734E-14	2.473713E-16
7.610000E+03	1.859510E-14	2.502975E-16
7.620000E+03	1.868388E-14	2.484636E-16
7.630000E+03	1.876218E-14	2.432679E-16
7.640000E+03	1.882179E-14	2.352752E-16
7.650000E+03	1.885617E-14	2.283389E-16
7.660000E+03	1.885937E-14	2.262695E-16
7.670000E+03	1.883251E-14	2.255530E-16
7.680000E+03	1.877804E-14	2.244972E-16
7.690000E+03	1.869949E-14	2.245976E-16
7.700000E+03	1.860729E-14	2.232208E-16
7.710000E+03	1.851626E-14	2.201943E-16
7.720000E+03	1.844026E-14	2.177782E-16
7.730000E+03	1.839439E-14	2.141748E-16
7.740000E+03	1.839492E-14	2.102990E-16
7.750000E+03	1.845388E-14	2.087874E-16
7.760000E+03	1.857788E-14	2.068889E-16
