#wls	flux	fluxerr
1.600000E+03	1.136164E-15	1.854695E-15
1.640000E+03	1.120965E-15	1.817142E-15
1.680000E+03	1.105100E-15	1.777836E-15
1.720000E+03	1.088916E-15	1.737330E-15
1.760000E+03	1.072177E-15	1.695237E-15
1.800000E+03	1.055208E-15	1.652069E-15
1.840000E+03	1.037592E-15	1.607170E-15
1.880000E+03	1.019817E-15	1.561306E-15
1.920000E+03	1.001813E-15	1.514368E-15
1.960000E+03	9.835121E-16	1.466261E-15
2.000000E+03	9.651731E-16	1.417378E-15
2.040000E+03	9.467058E-16	1.367595E-15
2.080000E+03	9.283292E-16	1.317240E-15
2.120000E+03	9.099314E-16	1.266162E-15
2.160000E+03	8.916917E-16	1.214628E-15
2.200000E+03	8.737556E-16	1.162843E-15
2.240000E+03	8.557005E-16	1.110263E-15
2.280000E+03	8.376669E-16	1.057120E-15
2.320000E+03	8.192730E-16	1.002996E-15
2.360000E+03	8.005477E-16	9.480335E-16
2.400000E+03	7.811796E-16	8.919986E-16
2.440000E+03	7.611369E-16	8.350397E-16
2.480000E+03	7.404142E-16	7.773645E-16
2.520000E+03	7.190359E-16	7.192402E-16
2.560000E+03	6.970606E-16	6.609916E-16
2.600000E+03	6.744995E-16	6.029206E-16
2.640000E+03	6.515083E-16	5.454813E-16
2.680000E+03	6.282908E-16	4.891643E-16
2.720000E+03	6.052488E-16	4.345894E-16
2.760000E+03	5.826126E-16	3.822012E-16
2.800000E+03	5.608984E-16	3.325953E-16
2.840000E+03	5.405175E-16	2.862255E-16
2.880000E+03	5.220348E-16	2.435713E-16
2.920000E+03	5.061665E-16	2.051109E-16
2.960000E+03	4.939696E-16	1.713758E-16
3.000000E+03	4.869445E-16	1.429232E-16
3.010000E+03	4.862533E-16	1.367067E-16
3.020000E+03	4.860292E-16	1.308543E-16
3.030000E+03	4.863614E-16	1.253848E-16
3.040000E+03	4.872508E-16	1.202913E-16
3.050000E+03	4.887951E-16	1.155893E-16
3.060000E+03	4.910511E-16	1.112803E-16
3.070000E+03	4.940377E-16	1.073544E-16
3.080000E+03	4.978722E-16	1.038206E-16
3.090000E+03	5.026376E-16	1.006752E-16
3.100000E+03	5.083840E-16	9.790477E-17
3.110000E+03	5.153149E-16	9.552118E-17
3.120000E+03	5.234721E-16	9.350090E-17
3.130000E+03	5.331071E-16	9.185487E-17
3.140000E+03	5.443177E-16	9.056209E-17
3.150000E+03	5.574272E-16	8.963582E-17
3.160000E+03	5.726629E-16	8.906793E-17
3.170000E+03	5.903509E-16	8.886131E-17
3.180000E+03	6.109281E-16	8.902946E-17
3.190000E+03	6.347974E-16	8.957365E-17
3.200000E+03	6.625381E-16	9.051254E-17
3.210000E+03	6.947016E-16	9.185096E-17
3.220000E+03	7.320921E-16	9.361629E-17
3.230000E+03	7.753686E-16	9.580350E-17
3.240000E+03	8.254468E-16	9.842603E-17
3.250000E+03	8.833303E-16	1.014909E-16
3.260000E+03	9.499488E-16	1.049792E-16
3.270000E+03	1.026326E-15	1.088673E-16
3.280000E+03	1.113646E-15	1.131328E-16
3.290000E+03	1.212705E-15	1.177013E-16
3.300000E+03	1.324406E-15	1.225042E-16
3.310000E+03	1.449344E-15	1.274431E-16
3.320000E+03	1.587915E-15	1.324073E-16
3.330000E+03	1.740019E-15	1.372530E-16
3.340000E+03	1.904927E-15	1.417998E-16
3.350000E+03	2.081750E-15	1.458705E-16
3.360000E+03	2.268690E-15	1.492416E-16
3.370000E+03	2.462997E-15	1.516599E-16
3.380000E+03	2.661363E-15	1.528932E-16
3.390000E+03	2.859562E-15	1.527375E-16
3.400000E+03	3.052257E-15	1.510435E-16
3.410000E+03	3.233110E-15	1.477580E-16
3.420000E+03	3.396326E-15	1.430041E-16
3.426000E+03	2.757260E-15	2.459284E-16
3.428000E+03	2.772721E-15	2.461131E-16
3.430000E+03	2.793769E-15	2.464448E-16
3.432000E+03	2.815167E-15	2.467831E-16
3.434000E+03	2.839342E-15	2.471928E-16
3.436000E+03	2.863917E-15	2.476101E-16
3.438000E+03	2.889183E-15	2.480430E-16
3.440000E+03	2.915335E-15	2.484965E-16
3.442000E+03	2.942374E-15	2.489707E-16
3.444000E+03	2.969960E-15	2.494563E-16
3.446000E+03	2.997997E-15	2.499508E-16
3.448000E+03	3.026290E-15	2.504490E-16
3.450000E+03	3.054596E-15	2.509442E-16
3.452000E+03	3.082673E-15	2.516253E-16
3.454000E+03	3.110376E-15	2.513019E-16
3.456000E+03	3.137410E-15	2.644604E-16
3.458000E+03	3.163681E-15	2.668104E-16
3.460000E+03	3.188846E-15	2.663727E-16
3.462000E+03	3.209936E-15	2.649808E-16
3.464000E+03	3.236294E-15	2.691764E-16
3.466000E+03	3.257652E-15	2.646605E-16
3.468000E+03	3.272986E-15	2.544414E-16
3.470000E+03	3.290471E-15	2.530925E-16
3.472000E+03	3.306262E-15	2.615742E-16
3.474000E+03	3.324596E-15	2.617032E-16
3.476000E+03	3.335243E-15	2.618258E-16
3.478000E+03	3.347067E-15	2.637312E-16
3.480000E+03	3.348566E-15	2.568684E-16
3.482000E+03	3.357090E-15	2.504695E-16
3.484000E+03	3.349724E-15	2.446432E-16
3.486000E+03	3.340458E-15	2.438981E-16
3.488000E+03	3.333288E-15	2.164580E-16
3.490000E+03	3.330414E-15	2.159312E-16
3.492000E+03	3.318025E-15	2.146012E-16
3.494000E+03	3.307539E-15	2.130727E-16
3.496000E+03	3.289728E-15	2.121449E-16
3.498000E+03	3.278360E-15	1.922140E-16
3.500000E+03	3.261423E-15	1.914878E-16
3.502000E+03	3.239108E-15	1.905563E-16
3.504000E+03	3.220746E-15	1.870983E-16
3.506000E+03	3.196758E-15	1.694117E-16
3.508000E+03	3.181564E-15	1.620121E-16
3.510000E+03	3.163041E-15	1.600096E-16
3.512000E+03	3.142705E-15	1.592913E-16
3.514000E+03	3.119036E-15	1.528518E-16
3.516000E+03	3.105930E-15	1.520563E-16
3.518000E+03	3.103441E-15	1.546742E-16
3.520000E+03	3.089990E-15	1.536842E-16
3.522000E+03	3.073893E-15	1.424187E-16
3.524000E+03	3.056323E-15	1.462784E-16
3.526000E+03	3.045263E-15	1.454547E-16
3.528000E+03	3.032879E-15	1.472167E-16
3.530000E+03	3.029118E-15	1.480482E-16
3.532000E+03	3.012221E-15	1.598422E-16
3.534000E+03	3.003754E-15	1.646717E-16
3.536000E+03	2.998867E-15	1.728720E-16
3.538000E+03	2.974801E-15	1.739877E-16
3.540000E+03	2.972462E-15	1.764255E-16
3.542000E+03	2.971893E-15	1.773319E-16
3.544000E+03	2.968038E-15	1.773180E-16
3.546000E+03	2.964824E-15	1.800825E-16
3.548000E+03	2.944864E-15	1.827124E-16
3.550000E+03	2.934477E-15	1.826528E-16
3.552000E+03	2.926055E-15	1.831248E-16
3.554000E+03	2.909817E-15	1.828623E-16
3.556000E+03	2.911468E-15	1.828558E-16
3.558000E+03	2.899799E-15	1.844389E-16
3.560000E+03	2.899243E-15	1.844915E-16
3.562000E+03	2.888162E-15	1.831918E-16
3.564000E+03	2.879195E-15	1.810189E-16
3.566000E+03	2.863188E-15	1.808026E-16
3.568000E+03	2.857516E-15	1.876407E-16
3.570000E+03	2.856720E-15	1.872715E-16
3.572000E+03	2.859868E-15	1.868935E-16
3.574000E+03	2.856024E-15	1.858541E-16
3.576000E+03	2.851935E-15	1.862216E-16
3.578000E+03	2.845876E-15	1.817240E-16
3.580000E+03	2.835922E-15	1.818035E-16
3.582000E+03	2.828087E-15	1.722724E-16
3.584000E+03	2.826911E-15	1.702749E-16
3.586000E+03	2.816905E-15	1.624914E-16
3.588000E+03	2.805120E-15	1.693207E-16
3.590000E+03	2.800739E-15	1.655411E-16
3.592000E+03	2.786926E-15	1.710882E-16
3.594000E+03	2.781408E-15	1.744278E-16
3.596000E+03	2.776236E-15	1.742321E-16
3.598000E+03	2.768347E-15	1.710778E-16
3.600000E+03	2.746810E-15	1.704118E-16
3.602000E+03	2.727491E-15	1.692750E-16
3.604000E+03	2.711825E-15	1.677848E-16
3.606000E+03	2.700508E-15	1.690813E-16
3.608000E+03	2.693941E-15	1.841998E-16
3.610000E+03	2.684501E-15	1.847854E-16
3.612000E+03	2.668572E-15	1.842767E-16
3.614000E+03	2.658334E-15	1.841243E-16
3.616000E+03	2.640264E-15	2.023728E-16
3.618000E+03	2.633340E-15	1.942854E-16
3.620000E+03	2.628795E-15	1.987239E-16
3.622000E+03	2.611504E-15	1.984202E-16
3.624000E+03	2.592818E-15	1.968057E-16
3.626000E+03	2.587622E-15	1.970416E-16
3.628000E+03	2.579895E-15	1.978272E-16
3.630000E+03	2.566258E-15	1.991977E-16
3.632000E+03	2.554653E-15	1.971268E-16
3.634000E+03	2.558198E-15	2.010236E-16
3.636000E+03	2.570098E-15	2.011083E-16
3.638000E+03	2.586483E-15	1.968376E-16
3.640000E+03	2.589404E-15	1.981295E-16
3.642000E+03	2.610885E-15	1.986326E-16
3.644000E+03	2.629845E-15	1.968461E-16
3.646000E+03	2.653250E-15	1.997456E-16
3.648000E+03	2.677669E-15	2.072214E-16
3.650000E+03	2.707088E-15	2.145763E-16
3.652000E+03	2.742855E-15	2.199536E-16
3.654000E+03	2.779047E-15	2.223517E-16
3.656000E+03	2.817010E-15	2.186318E-16
3.658000E+03	2.855550E-15	2.156664E-16
3.660000E+03	2.899804E-15	2.201851E-16
3.662000E+03	2.961506E-15	2.235081E-16
3.664000E+03	3.027094E-15	2.301521E-16
3.666000E+03	3.092329E-15	2.170305E-16
3.668000E+03	3.150818E-15	2.153530E-16
3.670000E+03	3.219291E-15	2.187356E-16
3.672000E+03	3.290812E-15	2.279821E-16
3.674000E+03	3.374683E-15	2.349185E-16
3.676000E+03	3.459814E-15	2.347835E-16
3.678000E+03	3.539702E-15	2.371573E-16
3.680000E+03	3.631960E-15	2.562030E-16
3.682000E+03	3.725736E-15	2.565518E-16
3.684000E+03	3.814721E-15	2.529294E-16
3.686000E+03	3.911486E-15	2.540072E-16
3.688000E+03	4.018996E-15	2.557867E-16
3.690000E+03	4.121219E-15	2.575479E-16
3.692000E+03	4.219657E-15	2.577776E-16
3.694000E+03	4.316511E-15	2.591467E-16
3.696000E+03	4.404857E-15	2.543534E-16
3.698000E+03	4.503108E-15	2.525507E-16
3.700000E+03	4.591842E-15	2.536490E-16
3.702000E+03	4.673259E-15	2.524793E-16
3.704000E+03	4.749664E-15	2.507503E-16
3.706000E+03	4.820398E-15	2.520807E-16
3.708000E+03	4.901799E-15	2.497556E-16
3.710000E+03	4.965103E-15	2.480676E-16
3.712000E+03	5.029970E-15	2.473348E-16
3.714000E+03	5.077874E-15	2.435525E-16
3.716000E+03	5.128538E-15	2.440449E-16
3.718000E+03	5.167659E-15	2.443122E-16
3.720000E+03	5.189682E-15	2.380732E-16
3.722000E+03	5.202653E-15	2.293668E-16
3.724000E+03	5.215640E-15	2.229239E-16
3.726000E+03	5.208969E-15	2.310088E-16
3.728000E+03	5.196748E-15	2.320687E-16
3.730000E+03	5.177963E-15	2.031075E-16
3.732000E+03	5.148059E-15	2.014828E-16
3.734000E+03	5.098941E-15	2.008323E-16
3.736000E+03	5.047014E-15	2.023093E-16
3.738000E+03	4.986004E-15	2.006207E-16
3.740000E+03	4.909731E-15	1.947040E-16
3.742000E+03	4.837910E-15	1.917273E-16
3.744000E+03	4.749034E-15	1.889034E-16
3.746000E+03	4.641056E-15	1.907889E-16
3.748000E+03	4.525910E-15	1.873396E-16
3.750000E+03	4.426190E-15	1.805420E-16
3.752000E+03	4.318440E-15	1.745918E-16
3.754000E+03	4.200875E-15	1.789074E-16
3.756000E+03	4.076680E-15	1.780856E-16
3.758000E+03	3.946761E-15	1.753721E-16
3.760000E+03	3.812479E-15	1.713935E-16
3.762000E+03	3.684905E-15	1.664328E-16
3.764000E+03	3.544582E-15	1.603364E-16
3.766000E+03	3.411473E-15	1.574028E-16
3.768000E+03	3.273432E-15	1.572507E-16
3.770000E+03	3.135998E-15	1.555724E-16
3.772000E+03	3.018918E-15	1.574506E-16
3.774000E+03	2.902564E-15	1.617944E-16
3.776000E+03	2.784795E-15	1.400563E-16
3.778000E+03	2.665558E-15	1.381435E-16
3.780000E+03	2.567181E-15	1.354993E-16
3.782000E+03	2.470155E-15	1.349416E-16
3.784000E+03	2.377899E-15	1.345842E-16
3.786000E+03	2.289655E-15	1.338289E-16
3.788000E+03	2.204557E-15	1.331998E-16
3.790000E+03	2.141205E-15	1.320665E-16
3.792000E+03	2.073613E-15	1.344876E-16
3.794000E+03	2.013584E-15	1.376127E-16
3.796000E+03	1.965630E-15	1.355131E-16
3.798000E+03	1.915387E-15	1.308570E-16
3.800000E+03	1.872936E-15	1.431561E-16
3.802000E+03	1.842589E-15	1.448991E-16
3.804000E+03	1.815242E-15	1.355161E-16
3.806000E+03	1.804429E-15	1.339706E-16
3.808000E+03	1.800582E-15	1.345654E-16
3.810000E+03	1.805507E-15	1.342284E-16
3.812000E+03	1.806435E-15	1.339576E-16
3.814000E+03	1.809727E-15	1.340745E-16
3.816000E+03	1.821243E-15	1.328981E-16
3.818000E+03	1.844436E-15	1.375591E-16
3.820000E+03	1.872844E-15	1.357626E-16
3.822000E+03	1.907296E-15	1.306352E-16
3.824000E+03	1.940905E-15	1.221896E-16
3.826000E+03	1.973824E-15	1.256382E-16
3.828000E+03	2.018466E-15	1.270514E-16
3.830000E+03	2.056038E-15	1.267738E-16
3.832000E+03	2.105553E-15	1.281916E-16
3.834000E+03	2.163261E-15	1.284941E-16
3.836000E+03	2.219165E-15	1.297488E-16
3.838000E+03	2.283173E-15	1.296642E-16
3.840000E+03	2.352352E-15	1.319758E-16
3.842000E+03	2.429861E-15	1.314108E-16
3.844000E+03	2.508630E-15	1.300812E-16
3.846000E+03	2.594556E-15	1.274416E-16
3.848000E+03	2.669544E-15	1.381655E-16
3.850000E+03	2.768304E-15	1.356963E-16
3.852000E+03	2.874353E-15	1.340803E-16
3.854000E+03	2.990498E-15	1.414674E-16
3.856000E+03	3.109291E-15	1.422876E-16
3.858000E+03	3.214351E-15	1.423344E-16
3.860000E+03	3.343111E-15	1.427541E-16
3.862000E+03	3.479672E-15	1.467843E-16
3.864000E+03	3.630016E-15	1.576168E-16
3.866000E+03	3.777124E-15	1.641655E-16
3.868000E+03	3.950615E-15	1.630009E-16
3.870000E+03	4.138202E-15	1.659477E-16
3.872000E+03	4.328202E-15	1.641971E-16
3.874000E+03	4.520411E-15	1.662262E-16
3.876000E+03	4.723683E-15	1.683905E-16
3.878000E+03	4.929440E-15	1.708893E-16
3.880000E+03	5.147378E-15	1.751391E-16
3.882000E+03	5.376263E-15	1.769655E-16
3.884000E+03	5.607244E-15	1.848365E-16
3.886000E+03	5.839489E-15	1.901401E-16
3.888000E+03	6.075612E-15	1.960275E-16
3.890000E+03	6.324497E-15	1.980685E-16
3.892000E+03	6.560556E-15	2.169384E-16
3.894000E+03	6.800503E-15	2.304191E-16
3.896000E+03	7.056897E-15	2.378942E-16
3.898000E+03	7.314062E-15	2.411657E-16
3.900000E+03	7.549486E-15	2.535298E-16
3.902000E+03	7.791425E-15	2.704941E-16
3.904000E+03	8.042508E-15	2.822579E-16
3.906000E+03	8.283350E-15	2.949559E-16
3.908000E+03	8.512886E-15	3.190532E-16
3.910000E+03	8.740548E-15	3.235430E-16
3.912000E+03	8.962133E-15	3.255659E-16
3.914000E+03	9.179733E-15	3.242437E-16
3.916000E+03	9.395446E-15	3.425830E-16
3.918000E+03	9.610320E-15	3.447098E-16
3.920000E+03	9.813306E-15	3.517014E-16
3.922000E+03	9.997546E-15	3.560602E-16
3.924000E+03	1.016933E-14	3.590891E-16
3.926000E+03	1.033655E-14	3.621064E-16
3.928000E+03	1.049075E-14	3.695334E-16
3.930000E+03	1.063773E-14	3.706712E-16
3.932000E+03	1.076955E-14	3.734746E-16
3.934000E+03	1.089570E-14	3.758897E-16
3.936000E+03	1.101564E-14	3.765101E-16
3.938000E+03	1.112989E-14	3.842280E-16
3.940000E+03	1.122628E-14	3.862322E-16
3.942000E+03	1.132436E-14	3.953477E-16
3.944000E+03	1.141514E-14	4.020784E-16
3.946000E+03	1.150812E-14	4.033225E-16
3.948000E+03	1.161444E-14	4.029735E-16
3.950000E+03	1.171875E-14	4.095639E-16
3.952000E+03	1.182529E-14	4.040413E-16
3.954000E+03	1.194255E-14	3.953725E-16
3.956000E+03	1.206365E-14	3.874051E-16
3.958000E+03	1.219337E-14	3.838004E-16
3.960000E+03	1.231950E-14	3.869164E-16
3.962000E+03	1.244948E-14	3.909146E-16
3.964000E+03	1.259342E-14	3.886943E-16
3.966000E+03	1.274017E-14	3.834193E-16
3.968000E+03	1.289771E-14	3.909172E-16
3.970000E+03	1.305223E-14	3.968397E-16
3.972000E+03	1.321223E-14	4.067860E-16
3.974000E+03	1.338518E-14	4.098469E-16
3.976000E+03	1.357379E-14	4.271125E-16
3.978000E+03	1.376098E-14	4.380622E-16
3.980000E+03	1.396118E-14	4.523532E-16
3.982000E+03	1.416052E-14	4.596218E-16
3.984000E+03	1.435739E-14	4.679717E-16
3.986000E+03	1.456676E-14	4.746426E-16
3.988000E+03	1.477849E-14	4.778740E-16
3.990000E+03	1.499631E-14	4.841141E-16
3.992000E+03	1.521115E-14	4.818170E-16
3.994000E+03	1.543050E-14	4.906208E-16
3.996000E+03	1.565972E-14	5.098647E-16
3.998000E+03	1.590151E-14	5.212581E-16
4.000000E+03	1.613389E-14	5.323603E-16
4.002000E+03	1.636489E-14	5.424630E-16
4.004000E+03	1.659721E-14	5.530262E-16
4.006000E+03	1.682439E-14	5.576900E-16
4.008000E+03	1.707493E-14	5.605345E-16
4.010000E+03	1.731388E-14	5.648908E-16
4.012000E+03	1.754286E-14	5.680027E-16
4.014000E+03	1.776022E-14	5.721641E-16
4.016000E+03	1.798319E-14	5.771533E-16
4.018000E+03	1.818967E-14	5.818659E-16
4.020000E+03	1.838613E-14	5.804525E-16
4.022000E+03	1.858440E-14	5.814335E-16
4.024000E+03	1.876020E-14	5.855024E-16
4.026000E+03	1.892105E-14	6.020131E-16
4.028000E+03	1.907234E-14	6.112772E-16
4.030000E+03	1.920756E-14	6.254935E-16
4.032000E+03	1.931316E-14	6.383512E-16
4.034000E+03	1.939505E-14	6.434675E-16
4.036000E+03	1.946782E-14	6.475434E-16
4.038000E+03	1.952062E-14	6.499654E-16
4.040000E+03	1.953931E-14	6.500513E-16
4.042000E+03	1.955911E-14	6.495946E-16
4.044000E+03	1.954962E-14	6.407800E-16
4.046000E+03	1.951134E-14	6.264522E-16
4.048000E+03	1.945237E-14	6.190155E-16
4.050000E+03	1.937758E-14	6.015182E-16
4.052000E+03	1.927008E-14	5.911574E-16
4.054000E+03	1.914180E-14	5.780948E-16
4.056000E+03	1.899487E-14	5.729011E-16
4.058000E+03	1.882600E-14	5.703424E-16
4.060000E+03	1.863625E-14	5.658978E-16
4.062000E+03	1.844030E-14	5.615770E-16
4.064000E+03	1.822778E-14	5.594095E-16
4.066000E+03	1.799430E-14	5.696770E-16
4.068000E+03	1.774474E-14	5.774307E-16
4.070000E+03	1.747362E-14	5.745981E-16
4.072000E+03	1.719073E-14	5.683050E-16
4.074000E+03	1.690590E-14	5.651748E-16
4.076000E+03	1.660546E-14	5.422937E-16
4.078000E+03	1.630251E-14	5.271676E-16
4.080000E+03	1.598775E-14	4.970874E-16
4.082000E+03	1.566827E-14	4.699244E-16
4.084000E+03	1.535340E-14	4.526197E-16
4.086000E+03	1.503655E-14	4.346340E-16
4.088000E+03	1.471607E-14	4.174806E-16
4.090000E+03	1.441229E-14	4.053964E-16
4.092000E+03	1.411093E-14	4.029036E-16
4.094000E+03	1.382521E-14	3.973275E-16
4.096000E+03	1.355513E-14	3.920106E-16
4.098000E+03	1.328918E-14	4.001934E-16
4.100000E+03	1.304002E-14	4.012051E-16
4.102000E+03	1.280216E-14	3.959879E-16
4.104000E+03	1.258776E-14	4.039968E-16
4.106000E+03	1.237809E-14	4.062156E-16
4.108000E+03	1.217538E-14	4.026172E-16
4.110000E+03	1.199729E-14	3.992434E-16
4.112000E+03	1.183227E-14	4.000989E-16
4.114000E+03	1.168145E-14	4.032355E-16
4.116000E+03	1.153489E-14	3.873757E-16
4.118000E+03	1.139592E-14	3.732031E-16
4.120000E+03	1.128004E-14	3.668508E-16
4.122000E+03	1.118066E-14	3.650561E-16
4.124000E+03	1.108615E-14	3.606953E-16
4.126000E+03	1.098545E-14	3.544591E-16
4.128000E+03	1.088741E-14	3.458389E-16
4.130000E+03	1.078871E-14	3.446673E-16
4.132000E+03	1.068879E-14	3.438245E-16
4.134000E+03	1.059377E-14	3.291476E-16
4.136000E+03	1.050087E-14	3.269280E-16
4.138000E+03	1.040564E-14	3.235738E-16
4.140000E+03	1.031254E-14	3.140204E-16
4.142000E+03	1.022212E-14	3.112227E-16
4.144000E+03	1.013995E-14	3.102548E-16
4.146000E+03	1.005380E-14	3.084455E-16
4.148000E+03	9.977582E-15	3.014317E-16
4.150000E+03	9.895709E-15	3.031190E-16
4.152000E+03	9.818769E-15	3.089644E-16
4.154000E+03	9.740071E-15	2.974069E-16
4.156000E+03	9.661846E-15	2.940076E-16
4.158000E+03	9.581859E-15	2.939521E-16
4.160000E+03	9.496753E-15	2.934237E-16
4.162000E+03	9.416590E-15	2.872614E-16
4.164000E+03	9.334101E-15	2.846326E-16
4.166000E+03	9.261604E-15	2.816879E-16
4.168000E+03	9.191269E-15	2.724684E-16
4.170000E+03	9.115251E-15	2.696575E-16
4.172000E+03	9.034663E-15	2.710589E-16
4.174000E+03	8.962967E-15	2.721577E-16
4.176000E+03	8.895685E-15	2.836427E-16
4.178000E+03	8.832262E-15	2.848979E-16
4.180000E+03	8.767083E-15	2.900339E-16
4.182000E+03	8.708581E-15	2.854974E-16
4.184000E+03	8.660141E-15	2.859475E-16
4.186000E+03	8.606581E-15	2.859523E-16
4.188000E+03	8.559157E-15	2.840688E-16
4.190000E+03	8.527458E-15	2.854317E-16
4.192000E+03	8.486137E-15	2.889878E-16
4.194000E+03	8.453794E-15	2.885144E-16
4.196000E+03	8.428750E-15	2.917852E-16
4.198000E+03	8.395770E-15	2.905396E-16
4.200000E+03	8.372921E-15	2.905105E-16
4.202000E+03	8.357957E-15	2.856364E-16
4.204000E+03	8.334489E-15	2.852718E-16
4.206000E+03	8.320045E-15	2.811406E-16
4.208000E+03	8.313507E-15	2.779402E-16
4.210000E+03	8.312620E-15	2.781531E-16
4.212000E+03	8.307194E-15	2.781379E-16
4.214000E+03	8.306860E-15	2.720897E-16
4.216000E+03	8.312192E-15	2.691998E-16
4.218000E+03	8.316389E-15	2.685811E-16
4.220000E+03	8.328534E-15	2.693467E-16
4.222000E+03	8.350911E-15	2.704137E-16
4.224000E+03	8.385810E-15	2.693419E-16
4.226000E+03	8.417895E-15	2.569440E-16
4.228000E+03	8.457971E-15	2.538449E-16
4.230000E+03	8.500359E-15	2.460041E-16
4.232000E+03	8.562716E-15	2.427269E-16
4.234000E+03	8.625700E-15	2.401632E-16
4.236000E+03	8.692162E-15	2.377264E-16
4.238000E+03	8.766098E-15	2.406385E-16
4.240000E+03	8.838961E-15	2.436315E-16
4.242000E+03	8.921597E-15	2.428020E-16
4.244000E+03	9.002595E-15	2.444973E-16
4.246000E+03	9.090525E-15	2.455150E-16
4.248000E+03	9.188256E-15	2.472722E-16
4.250000E+03	9.290655E-15	2.490035E-16
4.252000E+03	9.394293E-15	2.495283E-16
4.254000E+03	9.499173E-15	2.523173E-16
4.256000E+03	9.612743E-15	2.582749E-16
4.258000E+03	9.728138E-15	2.632386E-16
4.260000E+03	9.832170E-15	2.663139E-16
4.262000E+03	9.939166E-15	2.685464E-16
4.264000E+03	1.003994E-14	2.726576E-16
4.266000E+03	1.015058E-14	2.759500E-16
4.268000E+03	1.025787E-14	2.777898E-16
4.270000E+03	1.035663E-14	2.792921E-16
4.272000E+03	1.045260E-14	2.792162E-16
4.274000E+03	1.054233E-14	2.810046E-16
4.276000E+03	1.061717E-14	2.857207E-16
4.278000E+03	1.069726E-14	2.871175E-16
4.280000E+03	1.077223E-14	3.005286E-16
4.282000E+03	1.083688E-14	3.033737E-16
4.284000E+03	1.089467E-14	3.044241E-16
4.286000E+03	1.095423E-14	3.063923E-16
4.288000E+03	1.100461E-14	3.057136E-16
4.290000E+03	1.105502E-14	3.107202E-16
4.292000E+03	1.110605E-14	3.121059E-16
