#wls	flux	fluxerr
1.600000E+03	4.300255E-16	7.025973E-16
1.640000E+03	4.213562E-16	6.837269E-16
1.680000E+03	4.125556E-16	6.644664E-16
1.720000E+03	4.035364E-16	6.446802E-16
1.760000E+03	3.943731E-16	6.244960E-16
1.800000E+03	3.850599E-16	6.039128E-16
1.840000E+03	3.756653E-16	5.830486E-16
1.880000E+03	3.661096E-16	5.617917E-16
1.920000E+03	3.564612E-16	5.402634E-16
1.960000E+03	3.467155E-16	5.184739E-16
2.000000E+03	3.369352E-16	4.965362E-16
2.040000E+03	3.271143E-16	4.744613E-16
2.080000E+03	3.171887E-16	4.521816E-16
2.120000E+03	3.072819E-16	4.299021E-16
2.160000E+03	2.973345E-16	4.075679E-16
2.200000E+03	2.874079E-16	3.852968E-16
2.240000E+03	2.774551E-16	3.630615E-16
2.280000E+03	2.675917E-16	3.410524E-16
2.320000E+03	2.577315E-16	3.191978E-16
2.360000E+03	2.479916E-16	2.976877E-16
2.400000E+03	2.383498E-16	2.765358E-16
2.440000E+03	2.288398E-16	2.558263E-16
2.480000E+03	2.195413E-16	2.356905E-16
2.520000E+03	2.104977E-16	2.162115E-16
2.560000E+03	2.017620E-16	1.974760E-16
2.600000E+03	1.933980E-16	1.795733E-16
2.640000E+03	1.854832E-16	1.625925E-16
2.680000E+03	1.781394E-16	1.466455E-16
2.720000E+03	1.714755E-16	1.318088E-16
2.760000E+03	1.656280E-16	1.181570E-16
2.800000E+03	1.608205E-16	1.057942E-16
2.840000E+03	1.572742E-16	9.477940E-17
2.880000E+03	1.552902E-16	8.517577E-17
2.920000E+03	1.553555E-16	7.708860E-17
2.960000E+03	1.580908E-16	7.060457E-17
3.000000E+03	1.644299E-16	6.584442E-17
3.010000E+03	1.667323E-16	6.494264E-17
3.020000E+03	1.693700E-16	6.416026E-17
3.030000E+03	1.723739E-16	6.350025E-17
3.040000E+03	1.757781E-16	6.296588E-17
3.050000E+03	1.796214E-16	6.256072E-17
3.060000E+03	1.839712E-16	6.229680E-17
3.070000E+03	1.888532E-16	6.217007E-17
3.080000E+03	1.943227E-16	6.218516E-17
3.090000E+03	2.004673E-16	6.235508E-17
3.100000E+03	2.073331E-16	6.267718E-17
3.110000E+03	2.150261E-16	6.316520E-17
3.120000E+03	2.236103E-16	6.381728E-17
3.130000E+03	2.332148E-16	6.464777E-17
3.140000E+03	2.439557E-16	6.566323E-17
3.150000E+03	2.559315E-16	6.686201E-17
3.160000E+03	2.693483E-16	6.826655E-17
3.170000E+03	2.843027E-16	6.986588E-17
3.180000E+03	3.010031E-16	7.167233E-17
3.190000E+03	3.196432E-16	7.368819E-17
3.200000E+03	3.404327E-16	7.591292E-17
3.210000E+03	3.636382E-16	7.835130E-17
3.220000E+03	3.894592E-16	8.098535E-17
3.230000E+03	4.181405E-16	8.379931E-17
3.240000E+03	4.499287E-16	8.676942E-17
3.250000E+03	4.851173E-16	8.987221E-17
3.260000E+03	5.239392E-16	9.306356E-17
3.270000E+03	5.665357E-16	9.627595E-17
3.280000E+03	6.131166E-16	9.944813E-17
3.290000E+03	6.637718E-16	1.024940E-16
3.300000E+03	7.185043E-16	1.053127E-16
3.310000E+03	7.772073E-16	1.077900E-16
3.320000E+03	8.396419E-16	1.098014E-16
3.330000E+03	9.055086E-16	1.112284E-16
3.340000E+03	9.740679E-16	1.119199E-16
3.350000E+03	1.044876E-15	1.117928E-16
3.360000E+03	1.116830E-15	1.107306E-16
3.370000E+03	1.188845E-15	1.086772E-16
3.380000E+03	1.259933E-15	1.056497E-16
3.390000E+03	1.328536E-15	1.016905E-16
3.400000E+03	1.393511E-15	9.696151E-17
3.400973E+03	1.478345E-15	2.861926E-16
3.403968E+03	1.498314E-15	2.865023E-16
3.406964E+03	1.517152E-15	2.867945E-16
3.409959E+03	1.517270E-15	2.867707E-16
3.412955E+03	1.511132E-15	2.866419E-16
3.415950E+03	1.513122E-15	2.866496E-16
3.418945E+03	1.532282E-15	2.869445E-16
3.421941E+03	1.557642E-15	2.873460E-16
3.424936E+03	1.584214E-15	2.877717E-16
3.427932E+03	1.614720E-15	2.884706E-16
3.430927E+03	1.644625E-15	3.035263E-16
3.433923E+03	1.669393E-15	3.120450E-16
3.436918E+03	1.697642E-15	3.208430E-16
3.439913E+03	1.731489E-15	3.275369E-16
3.442909E+03	1.765341E-15	3.334200E-16
3.445904E+03	1.804642E-15	3.365862E-16
3.448900E+03	1.849090E-15	3.101406E-16
3.451895E+03	1.887342E-15	3.064643E-16
3.454890E+03	1.927565E-15	3.069590E-16
3.457886E+03	1.965221E-15	3.252079E-16
3.460881E+03	2.003335E-15	3.536511E-16
3.463877E+03	2.037520E-15	3.539473E-16
3.466872E+03	2.063537E-15	3.582996E-16
3.469868E+03	2.088800E-15	3.310295E-16
3.472863E+03	2.109072E-15	2.976469E-16
3.475858E+03	2.120113E-15	2.975596E-16
3.478854E+03	2.126159E-15	2.886942E-16
3.481849E+03	2.126302E-15	2.843131E-16
3.484845E+03	2.120692E-15	2.735830E-16
3.487840E+03	2.101000E-15	2.663585E-16
3.490836E+03	2.086906E-15	2.601668E-16
3.493831E+03	2.071144E-15	2.472299E-16
3.496826E+03	2.030698E-15	2.439049E-16
3.499822E+03	1.960868E-15	2.435987E-16
3.502817E+03	1.891785E-15	2.414739E-16
3.505813E+03	1.835717E-15	2.222506E-16
3.508808E+03	1.779944E-15	1.688673E-16
3.511803E+03	1.712802E-15	1.643250E-16
3.514799E+03	1.649439E-15	1.515611E-16
3.517794E+03	1.593187E-15	1.266569E-16
3.520790E+03	1.559651E-15	1.240922E-16
3.523785E+03	1.534898E-15	1.242808E-16
3.526780E+03	1.501839E-15	1.232382E-16
3.529776E+03	1.467501E-15	1.137295E-16
3.532771E+03	1.436417E-15	1.090950E-16
3.535767E+03	1.400661E-15	1.126492E-16
3.538762E+03	1.367371E-15	1.108938E-16
3.541758E+03	1.357536E-15	1.104873E-16
3.544753E+03	1.368950E-15	1.128445E-16
3.547749E+03	1.396113E-15	1.328190E-16
3.550744E+03	1.423354E-15	1.370932E-16
3.553739E+03	1.448369E-15	1.359500E-16
3.556735E+03	1.457074E-15	1.404590E-16
3.559730E+03	1.452194E-15	1.402391E-16
3.562726E+03	1.462748E-15	1.406826E-16
3.565721E+03	1.489586E-15	1.392930E-16
3.568716E+03	1.520718E-15	1.420555E-16
3.571712E+03	1.541571E-15	1.460774E-16
3.574707E+03	1.565761E-15	1.481772E-16
3.577703E+03	1.586768E-15	1.469412E-16
3.580698E+03	1.593672E-15	1.406917E-16
3.583693E+03	1.594660E-15	1.317631E-16
3.586689E+03	1.598074E-15	1.303223E-16
3.589684E+03	1.596937E-15	1.316446E-16
3.592680E+03	1.592310E-15	1.410471E-16
3.595675E+03	1.591171E-15	1.436918E-16
3.598671E+03	1.585176E-15	1.422511E-16
3.601666E+03	1.572656E-15	1.460441E-16
3.604662E+03	1.563168E-15	1.497054E-16
3.607657E+03	1.551099E-15	1.519299E-16
3.610652E+03	1.543580E-15	1.512016E-16
3.613648E+03	1.528928E-15	1.526574E-16
3.616643E+03	1.507642E-15	1.503580E-16
3.619639E+03	1.487339E-15	1.449322E-16
3.622634E+03	1.464197E-15	1.408036E-16
3.625629E+03	1.442599E-15	1.434354E-16
3.628625E+03	1.426766E-15	1.453442E-16
3.631620E+03	1.413132E-15	1.498979E-16
3.634616E+03	1.403032E-15	1.495626E-16
3.637611E+03	1.396391E-15	1.492593E-16
3.640606E+03	1.392922E-15	1.420451E-16
3.643602E+03	1.384700E-15	1.206335E-16
3.646597E+03	1.369675E-15	1.124280E-16
3.649593E+03	1.361146E-15	1.100260E-16
3.652588E+03	1.363364E-15	1.035047E-16
3.655584E+03	1.370364E-15	9.795645E-17
3.658579E+03	1.380035E-15	9.968858E-17
3.661574E+03	1.395309E-15	9.924807E-17
3.664570E+03	1.418614E-15	1.020428E-16
3.667565E+03	1.442285E-15	1.036452E-16
3.670561E+03	1.462828E-15	1.038063E-16
3.673556E+03	1.483979E-15	1.012244E-16
3.676552E+03	1.511432E-15	1.037163E-16
3.679547E+03	1.548498E-15	9.580475E-17
3.682542E+03	1.588025E-15	9.683299E-17
3.685538E+03	1.629223E-15	9.626895E-17
3.688533E+03	1.676346E-15	9.547291E-17
3.691529E+03	1.731519E-15	9.944140E-17
3.694524E+03	1.797781E-15	1.031569E-16
3.697519E+03	1.867538E-15	1.056907E-16
3.700515E+03	1.928944E-15	1.074221E-16
3.703510E+03	1.985338E-15	1.096231E-16
3.706506E+03	2.039151E-15	1.118935E-16
3.709501E+03	2.092965E-15	1.126048E-16
3.712497E+03	2.144957E-15	1.133509E-16
3.715492E+03	2.187532E-15	1.147973E-16
3.718487E+03	2.219625E-15	1.246136E-16
3.721483E+03	2.244730E-15	1.312831E-16
3.724478E+03	2.263758E-15	1.292244E-16
3.727474E+03	2.265619E-15	1.279307E-16
3.730469E+03	2.248792E-15	1.280185E-16
3.733465E+03	2.220266E-15	1.266200E-16
3.736460E+03	2.180951E-15	1.228950E-16
3.739455E+03	2.130543E-15	1.213359E-16
3.742451E+03	2.069041E-15	1.210527E-16
3.745446E+03	1.998877E-15	1.224746E-16
3.748442E+03	1.918379E-15	1.235331E-16
3.751437E+03	1.831800E-15	1.240317E-16
3.754432E+03	1.740508E-15	1.246909E-16
3.757428E+03	1.645111E-15	1.257433E-16
3.760423E+03	1.545458E-15	1.237361E-16
3.763419E+03	1.440863E-15	1.201052E-16
3.766414E+03	1.335643E-15	1.074185E-16
3.769410E+03	1.233794E-15	8.725474E-17
3.772405E+03	1.138080E-15	7.473988E-17
3.775400E+03	1.047987E-15	7.327144E-17
3.778396E+03	9.598975E-16	7.307773E-17
3.781391E+03	8.745720E-16	7.772863E-17
3.784387E+03	7.998052E-16	7.538493E-17
3.787382E+03	7.361137E-16	7.376302E-17
3.790378E+03	6.780433E-16	7.264255E-17
3.793373E+03	6.309120E-16	7.176465E-17
3.796368E+03	5.943855E-16	6.739866E-17
3.799364E+03	5.658659E-16	6.399706E-17
3.802359E+03	5.417673E-16	5.774644E-17
3.805355E+03	5.227888E-16	4.977866E-17
3.808350E+03	5.131389E-16	4.495696E-17
3.811345E+03	5.133039E-16	4.332846E-17
3.814341E+03	5.181785E-16	4.487461E-17
3.817336E+03	5.244961E-16	4.467113E-17
3.820332E+03	5.283367E-16	4.535470E-17
3.823327E+03	5.354130E-16	4.626527E-17
3.826323E+03	5.495841E-16	4.969767E-17
3.829318E+03	5.650611E-16	4.977075E-17
3.832313E+03	5.752199E-16	5.090559E-17
3.835309E+03	5.820053E-16	4.863547E-17
3.838304E+03	5.908411E-16	4.860396E-17
3.841300E+03	5.977621E-16	4.862610E-17
3.844295E+03	6.081007E-16	4.824131E-17
3.847291E+03	6.245306E-16	4.912237E-17
3.850286E+03	6.451373E-16	5.092870E-17
3.853281E+03	6.705892E-16	4.946545E-17
3.856277E+03	7.036962E-16	5.282459E-17
3.859272E+03	7.428630E-16	6.057438E-17
3.862268E+03	7.896842E-16	7.208528E-17
3.865263E+03	8.460885E-16	9.151983E-17
3.868258E+03	9.159033E-16	1.015291E-16
3.871254E+03	9.996290E-16	1.041151E-16
3.874249E+03	1.097705E-15	1.090647E-16
3.877245E+03	1.212454E-15	1.083696E-16
3.880240E+03	1.340458E-15	1.082160E-16
3.883235E+03	1.483280E-15	1.150523E-16
3.886231E+03	1.639597E-15	1.184408E-16
3.889226E+03	1.805261E-15	1.232925E-16
3.892222E+03	1.982459E-15	1.343084E-16
3.895217E+03	2.170885E-15	1.383335E-16
3.898213E+03	2.359453E-15	1.418409E-16
3.901208E+03	2.551046E-15	1.536784E-16
3.904203E+03	2.746879E-15	1.702986E-16
3.907199E+03	2.937081E-15	1.824723E-16
3.910194E+03	3.124536E-15	1.910050E-16
3.913190E+03	3.312586E-15	1.894881E-16
3.916185E+03	3.494093E-15	1.860008E-16
3.919180E+03	3.663591E-15	1.852041E-16
3.922176E+03	3.816526E-15	1.812403E-16
3.925171E+03	3.959731E-15	1.820082E-16
3.928167E+03	4.091234E-15	1.920535E-16
3.931162E+03	4.204658E-15	2.003823E-16
3.934158E+03	4.301979E-15	2.048896E-16
3.937153E+03	4.386083E-15	2.086997E-16
3.940148E+03	4.458792E-15	2.125803E-16
3.943144E+03	4.520108E-15	2.187806E-16
3.946139E+03	4.570486E-15	2.198325E-16
3.949135E+03	4.610384E-15	2.182994E-16
3.952130E+03	4.641776E-15	2.123641E-16
3.955126E+03	4.668458E-15	2.058785E-16
3.958121E+03	4.690732E-15	1.969760E-16
3.961116E+03	4.706930E-15	1.900702E-16
3.964112E+03	4.722365E-15	1.863805E-16
3.967107E+03	4.739616E-15	1.877374E-16
3.970103E+03	4.757469E-15	1.929370E-16
3.973098E+03	4.781993E-15	1.966976E-16
3.976093E+03	4.810305E-15	1.954540E-16
3.979089E+03	4.832845E-15	1.954526E-16
3.982084E+03	4.854317E-15	2.014251E-16
3.985080E+03	4.890045E-15	2.030717E-16
3.988075E+03	4.937750E-15	2.018610E-16
3.991071E+03	4.985750E-15	1.995495E-16
3.994066E+03	5.046332E-15	2.037955E-16
3.997061E+03	5.115094E-15	2.119271E-16
4.000057E+03	5.184149E-15	2.179162E-16
4.003052E+03	5.256075E-15	2.219789E-16
4.006048E+03	5.337544E-15	2.260361E-16
4.009043E+03	5.425066E-15	2.284138E-16
4.012039E+03	5.516669E-15	2.307544E-16
4.015034E+03	5.610836E-15	2.328519E-16
4.018029E+03	5.713024E-15	2.328078E-16
4.021025E+03	5.824293E-15	2.323579E-16
4.024020E+03	5.941610E-15	2.365767E-16
4.027016E+03	6.059515E-15	2.417566E-16
4.030011E+03	6.174825E-15	2.435452E-16
4.033006E+03	6.288753E-15	2.445585E-16
4.036002E+03	6.404481E-15	2.480346E-16
4.038997E+03	6.523525E-15	2.509916E-16
4.041993E+03	6.641791E-15	2.560834E-16
4.044988E+03	6.747308E-15	2.550982E-16
4.047984E+03	6.842351E-15	2.552135E-16
4.050979E+03	6.933438E-15	2.558573E-16
4.053974E+03	7.013143E-15	2.546886E-16
4.056970E+03	7.077380E-15	2.570681E-16
4.059965E+03	7.126150E-15	2.582632E-16
4.062961E+03	7.157942E-15	2.581081E-16
4.065956E+03	7.173516E-15	2.563815E-16
4.068952E+03	7.172725E-15	2.557591E-16
4.071947E+03	7.151936E-15	2.545899E-16
4.074942E+03	7.113880E-15	2.516499E-16
4.077938E+03	7.054775E-15	2.479519E-16
4.080933E+03	6.973262E-15	2.449232E-16
4.083929E+03	6.871466E-15	2.402427E-16
4.086924E+03	6.756660E-15	2.404640E-16
4.089919E+03	6.630511E-15	2.373152E-16
4.092915E+03	6.496049E-15	2.329402E-16
4.095910E+03	6.358727E-15	2.270113E-16
4.098906E+03	6.218847E-15	2.224286E-16
4.101901E+03	6.077167E-15	2.191834E-16
4.104897E+03	5.938077E-15	2.138200E-16
4.107892E+03	5.797189E-15	2.090999E-16
4.110887E+03	5.657225E-15	2.035449E-16
4.113883E+03	5.526660E-15	1.978561E-16
4.116878E+03	5.405642E-15	1.963261E-16
4.119874E+03	5.295228E-15	1.933169E-16
4.122869E+03	5.195719E-15	1.883874E-16
4.125864E+03	5.103330E-15	1.815796E-16
4.128860E+03	5.015490E-15	1.768157E-16
4.131855E+03	4.938548E-15	1.776134E-16
4.134851E+03	4.874771E-15	1.812094E-16
4.137846E+03	4.815990E-15	1.807304E-16
4.140842E+03	4.760238E-15	1.802034E-16
4.143837E+03	4.715226E-15	1.790356E-16
4.146832E+03	4.672031E-15	1.733931E-16
4.149828E+03	4.628236E-15	1.677994E-16
4.152823E+03	4.591245E-15	1.656904E-16
4.155819E+03	4.561360E-15	1.640046E-16
4.158814E+03	4.536010E-15	1.630064E-16
4.161810E+03	4.511718E-15	1.613199E-16
4.164805E+03	4.486520E-15	1.566537E-16
4.167800E+03	4.466006E-15	1.570786E-16
4.170796E+03	4.448665E-15	1.695816E-16
4.173791E+03	4.434494E-15	1.755917E-16
4.176787E+03	4.417906E-15	1.768510E-16
4.179782E+03	4.400261E-15	1.746719E-16
4.182778E+03	4.388655E-15	1.665984E-16
4.185773E+03	4.381879E-15	1.625278E-16
4.188768E+03	4.378119E-15	1.601715E-16
4.191764E+03	4.376922E-15	1.584452E-16
4.194759E+03	4.375873E-15	1.584165E-16
4.197755E+03	4.380706E-15	1.633910E-16
4.200750E+03	4.385383E-15	1.703520E-16
4.203745E+03	4.385076E-15	1.732949E-16
4.206741E+03	4.382503E-15	1.739644E-16
4.209736E+03	4.377664E-15	1.741696E-16
4.212732E+03	4.372671E-15	1.730629E-16
4.215727E+03	4.372501E-15	1.702250E-16
4.218722E+03	4.373384E-15	1.569366E-16
4.221718E+03	4.369739E-15	1.478230E-16
4.224713E+03	4.365036E-15	1.477210E-16
4.227709E+03	4.361234E-15	1.474652E-16
4.230704E+03	4.355771E-15	1.476623E-16
4.233700E+03	4.348799E-15	1.518254E-16
4.236695E+03	4.342729E-15	1.563474E-16
4.239690E+03	4.336957E-15	1.631509E-16
4.242686E+03	4.332690E-15	1.679245E-16
4.245681E+03	4.329775E-15	1.640179E-16
4.248677E+03	4.327460E-15	1.555076E-16
4.251672E+03	4.326648E-15	1.508591E-16
4.254668E+03	4.329597E-15	1.495358E-16
4.257663E+03	4.334197E-15	1.495102E-16
4.260658E+03	4.342104E-15	1.476400E-16
4.263654E+03	4.355877E-15	1.460337E-16
4.266649E+03	4.377770E-15	1.482152E-16
4.269645E+03	4.405824E-15	1.503008E-16
4.272640E+03	4.434770E-15	1.500607E-16
4.275636E+03	4.466112E-15	1.506727E-16
4.278631E+03	4.500301E-15	1.518314E-16
4.281626E+03	4.537335E-15	1.500415E-16
4.284622E+03	4.573753E-15	1.469436E-16
4.287617E+03	4.607752E-15	1.396064E-16
4.290613E+03	4.642489E-15	1.312769E-16
4.293608E+03	4.676311E-15	1.292489E-16
4.296603E+03	4.704107E-15	1.287304E-16
4.299599E+03	4.723625E-15	1.298664E-16
4.302594E+03	4.741479E-15	1.332863E-16
4.305590E+03	4.756770E-15	1.372042E-16
4.308585E+03	4.770400E-15	1.385361E-16
4.311581E+03	4.778012E-15	1.368807E-16
4.314576E+03	4.774503E-15	1.356683E-16
4.317571E+03	4.767235E-15	1.339069E-16
4.320567E+03	4.757863E-15	1.339920E-16
4.323562E+03	4.745636E-15	1.349021E-16
4.326558E+03	4.723200E-15	1.327931E-16
4.329553E+03	4.692210E-15	1.314015E-16
4.332548E+03	4.658072E-15	1.315741E-16
4.335544E+03	4.621389E-15	1.345123E-16
4.338539E+03	4.581862E-15	1.386346E-16
4.341535E+03	4.534841E-15	1.391753E-16
4.344530E+03	4.480179E-15	1.388500E-16
4.347526E+03	4.420281E-15	1.383196E-16
4.350521E+03	4.355297E-15	1.337615E-16
4.353516E+03	4.288380E-15	1.282568E-16
4.356512E+03	4.222078E-15	1.260157E-16
4.359507E+03	4.152345E-15	1.268920E-16
4.362503E+03	4.076934E-15	1.255209E-16
4.365498E+03	4.001842E-15	1.233714E-16
4.368493E+03	3.928117E-15	1.267936E-16
4.371489E+03	3.856958E-15	1.301290E-16
4.374484E+03	3.790310E-15	1.315634E-16
4.377480E+03	3.728320E-15	1.309079E-16
4.380475E+03	3.674730E-15	1.298151E-16
4.383471E+03	3.630285E-15	1.252137E-16
4.386466E+03	3.590639E-15	1.158591E-16
4.389462E+03	3.558335E-15	1.126794E-16
4.392457E+03	3.538755E-15	1.148036E-16
4.395452E+03	3.530697E-15	1.112330E-16
4.398448E+03	3.531312E-15	1.084552E-16
4.401443E+03	3.543738E-15	1.087050E-16
4.404439E+03	3.565425E-15	1.087569E-16
4.407434E+03	3.594577E-15	1.097230E-16
4.410429E+03	3.632384E-15	1.177314E-16
4.413425E+03	3.678543E-15	1.244973E-16
4.416420E+03	3.730061E-15	1.226555E-16
4.419416E+03	3.782454E-15	1.176905E-16
4.422411E+03	3.840501E-15	1.143806E-16
4.425407E+03	3.905841E-15	1.138817E-16
4.428402E+03	3.972050E-15	1.127791E-16
4.431397E+03	4.035694E-15	1.105950E-16
4.434393E+03	4.096026E-15	1.101706E-16
4.437388E+03	4.153498E-15	1.116571E-16
4.440384E+03	4.210646E-15	1.130011E-16
4.443379E+03	4.263293E-15	1.186509E-16
4.446374E+03	4.307414E-15	1.202377E-16
4.449370E+03	4.347936E-15	1.207904E-16
4.452365E+03	4.389035E-15	1.213811E-16
4.455361E+03	4.426386E-15	1.228355E-16
4.458356E+03	4.457310E-15	1.193095E-16
4.461351E+03	4.480319E-15	1.147078E-16
4.464347E+03	4.499292E-15	1.147875E-16
4.467342E+03	4.522572E-15	1.153473E-16
4.470338E+03	4.544349E-15	1.154841E-16
4.473333E+03	4.564773E-15	1.161891E-16
4.476329E+03	4.589054E-15	1.164171E-16
4.479324E+03	4.618083E-15	1.170571E-16
4.482319E+03	4.653941E-15	1.175274E-16
4.485315E+03	4.694541E-15	1.194544E-16
4.488310E+03	4.734375E-15	1.209716E-16
4.491306E+03	4.777461E-15	1.191344E-16
4.494301E+03	4.830337E-15	1.193717E-16
4.497297E+03	4.891215E-15	1.204521E-16
4.500292E+03	4.962170E-15	1.228991E-16
4.503287E+03	5.043790E-15	1.227852E-16
4.506283E+03	5.134286E-15	1.245126E-16
4.509278E+03	5.229492E-15	1.293617E-16
4.512274E+03	5.331038E-15	1.314155E-16
4.515269E+03	5.443970E-15	1.329664E-16
4.518265E+03	5.569467E-15	1.360245E-16
4.521260E+03	5.708411E-15	1.386181E-16
4.524255E+03	5.858271E-15	1.425756E-16
4.527251E+03	6.021858E-15	1.491923E-16
4.530246E+03	6.199015E-15	1.533446E-16
4.533242E+03	6.385580E-15	1.571585E-16
4.536237E+03	6.580509E-15	1.604127E-16
4.539233E+03	6.785129E-15	1.648443E-16
4.542228E+03	7.001064E-15	1.691781E-16
4.545223E+03	7.221341E-15	1.738740E-16
4.548219E+03	7.439588E-15	1.794655E-16
4.551214E+03	7.654768E-15	1.861922E-16
4.554210E+03	7.864366E-15	1.928142E-16
4.557205E+03	8.071344E-15	1.999491E-16
4.560200E+03	8.270525E-15	2.100423E-16
4.563196E+03	8.457769E-15	2.186337E-16
4.566191E+03	8.637079E-15	2.219558E-16
4.569187E+03	8.804169E-15	2.249824E-16
4.572182E+03	8.956830E-15	2.257198E-16
4.575177E+03	9.091966E-15	2.217438E-16
4.578173E+03	9.211511E-15	2.228763E-16
4.581168E+03	9.320351E-15	2.262566E-16
4.584164E+03	9.419381E-15	2.304321E-16
4.587159E+03	9.512150E-15	2.354798E-16
4.590155E+03	9.594382E-15	2.408450E-16
4.593150E+03	9.662688E-15	2.474264E-16
4.596145E+03	9.721210E-15	2.510876E-16
4.599141E+03	9.774824E-15	2.519597E-16
4.602136E+03	9.822649E-15	2.517786E-16
4.605132E+03	9.863657E-15	2.496751E-16
4.608127E+03	9.901243E-15	2.446130E-16
4.611123E+03	9.941602E-15	2.357936E-16
4.614118E+03	9.988121E-15	2.312726E-16
4.617113E+03	1.004080E-14	2.299029E-16
4.620109E+03	1.009314E-14	2.324692E-16
4.623104E+03	1.014928E-14	2.375251E-16
4.626100E+03	1.021421E-14	2.432707E-16
4.629095E+03	1.028087E-14	2.470145E-16
4.632091E+03	1.034204E-14	2.511326E-16
4.635086E+03	1.039169E-14	2.585703E-16
4.638081E+03	1.042690E-14	2.668617E-16
4.641077E+03	1.044590E-14	2.833495E-16
4.644072E+03	1.044591E-14	3.026327E-16
4.647068E+03	1.042710E-14	3.139999E-16
4.650063E+03	1.038684E-14	3.177015E-16
4.653058E+03	1.032396E-14	3.117924E-16
4.656054E+03	1.024099E-14	2.990066E-16
4.659049E+03	1.013837E-14	2.949537E-16
4.662045E+03	1.002156E-14	3.013644E-16
4.665040E+03	9.899364E-15	3.184485E-16
4.668035E+03	9.775758E-15	3.512629E-16
4.671031E+03	9.651621E-15	3.846718E-16
4.674026E+03	9.531352E-15	4.191505E-16
4.677022E+03	9.421253E-15	4.533013E-16
4.680017E+03	9.326445E-15	4.702484E-16
4.683013E+03	9.249702E-15	4.694984E-16
4.686008E+03	9.192180E-15	4.612142E-16
4.689003E+03	9.159138E-15	4.411495E-16
4.691999E+03	9.151579E-15	4.170379E-16
4.694994E+03	9.166558E-15	4.000426E-16
4.697990E+03	9.203763E-15	3.929486E-16
4.700985E+03	9.260690E-15	4.090291E-16
4.703980E+03	9.339369E-15	4.370674E-16
