#wls	flux	fluxerr
1.600000E+03	1.022047E-16	1.692487E-16
1.640000E+03	1.010384E-16	1.664229E-16
1.680000E+03	9.989523E-17	1.635887E-16
1.720000E+03	9.880125E-17	1.607857E-16
1.760000E+03	9.774865E-17	1.579982E-16
1.800000E+03	9.676495E-17	1.552671E-16
1.840000E+03	9.587799E-17	1.526325E-16
1.880000E+03	9.505127E-17	1.500309E-16
1.920000E+03	9.434857E-17	1.475577E-16
1.960000E+03	9.376979E-17	1.452049E-16
2.000000E+03	9.333346E-17	1.429926E-16
2.040000E+03	9.304500E-17	1.409189E-16
2.080000E+03	9.296009E-17	1.390562E-16
2.120000E+03	9.307519E-17	1.373838E-16
2.160000E+03	9.345379E-17	1.359779E-16
2.200000E+03	9.411793E-17	1.348480E-16
2.240000E+03	9.511185E-17	1.340310E-16
2.280000E+03	9.648789E-17	1.335687E-16
2.320000E+03	9.830834E-17	1.335082E-16
2.360000E+03	1.006479E-16	1.339032E-16
2.400000E+03	1.036135E-16	1.348371E-16
2.440000E+03	1.072987E-16	1.363589E-16
2.480000E+03	1.118378E-16	1.385508E-16
2.520000E+03	1.174140E-16	1.415299E-16
2.560000E+03	1.242139E-16	1.453842E-16
2.600000E+03	1.325106E-16	1.502636E-16
2.640000E+03	1.425994E-16	1.562906E-16
2.680000E+03	1.548950E-16	1.636542E-16
2.720000E+03	1.698627E-16	1.725125E-16
2.760000E+03	1.881054E-16	1.830600E-16
2.800000E+03	2.103975E-16	1.955247E-16
2.840000E+03	2.376561E-16	2.100962E-16
2.880000E+03	2.709851E-16	2.269222E-16
2.920000E+03	3.116362E-16	2.460256E-16
2.960000E+03	3.610625E-16	2.673016E-16
3.000000E+03	4.209426E-16	2.904814E-16
3.010000E+03	4.377200E-16	2.964922E-16
3.020000E+03	4.551934E-16	3.025125E-16
3.030000E+03	4.735826E-16	3.086572E-16
3.040000E+03	4.927066E-16	3.147737E-16
3.050000E+03	5.126482E-16	3.208840E-16
3.060000E+03	5.334209E-16	3.269632E-16
3.070000E+03	5.551154E-16	3.330324E-16
3.080000E+03	5.775807E-16	3.389661E-16
3.090000E+03	6.009831E-16	3.448291E-16
3.100000E+03	6.252399E-16	3.505380E-16
3.110000E+03	6.503431E-16	3.560550E-16
3.120000E+03	6.762781E-16	3.613395E-16
3.130000E+03	7.030235E-16	3.663487E-16
3.140000E+03	7.305494E-16	3.710370E-16
3.150000E+03	7.588175E-16	3.753570E-16
3.160000E+03	7.878915E-16	3.793127E-16
3.170000E+03	8.174933E-16	3.827459E-16
3.180000E+03	8.477806E-16	3.857120E-16
3.190000E+03	8.785599E-16	3.881038E-16
3.200000E+03	9.097364E-16	3.898677E-16
3.210000E+03	9.410701E-16	3.908960E-16
3.220000E+03	9.728343E-16	3.913013E-16
3.230000E+03	1.004496E-15	3.908695E-16
3.240000E+03	1.036036E-15	3.896087E-16
3.250000E+03	1.067288E-15	3.874765E-16
3.260000E+03	1.098221E-15	3.844889E-16
3.270000E+03	1.128341E-15	3.805076E-16
3.280000E+03	1.157746E-15	3.756150E-16
3.290000E+03	1.186062E-15	3.697430E-16
3.300000E+03	1.213057E-15	3.628866E-16
3.310000E+03	1.238321E-15	3.550038E-16
3.320000E+03	1.262114E-15	3.462590E-16
3.330000E+03	1.283679E-15	3.365383E-16
3.340000E+03	1.302936E-15	3.259359E-16
3.350000E+03	1.319641E-15	3.145115E-16
3.360000E+03	1.333742E-15	3.023797E-16
3.370000E+03	1.344662E-15	2.895435E-16
3.380000E+03	1.352567E-15	2.761816E-16
3.390000E+03	1.357110E-15	2.623615E-16
3.400000E+03	1.357978E-15	2.481653E-16
3.410000E+03	1.355453E-15	2.337807E-16
3.420000E+03	1.349317E-15	2.192908E-16
3.430000E+03	1.339779E-15	2.048356E-16
3.440000E+03	1.326574E-15	1.904610E-16
3.450000E+03	1.310052E-15	1.762839E-16
3.460000E+03	1.290460E-15	1.623733E-16
3.470000E+03	1.268288E-15	1.487975E-16
3.480000E+03	1.243598E-15	1.355430E-16
3.490000E+03	1.217185E-15	1.226560E-16
3.500000E+03	1.189398E-15	1.101107E-16
3.510000E+03	1.160793E-15	9.789080E-17
3.520000E+03	1.131936E-15	8.597704E-17
3.530000E+03	1.103390E-15	7.435557E-17
3.540000E+03	1.075688E-15	6.303044E-17
3.550000E+03	1.049311E-15	5.204636E-17
3.560000E+03	1.024680E-15	4.153937E-17
3.570000E+03	1.002134E-15	3.186712E-17
3.580000E+03	9.820486E-16	2.395723E-17
3.590000E+03	9.643094E-16	1.984980E-17
3.600000E+03	9.491674E-16	2.140297E-17
3.610000E+03	9.362165E-16	2.696106E-17
3.620000E+03	9.254026E-16	3.392300E-17
3.630000E+03	9.162243E-16	4.100940E-17
3.640000E+03	9.082451E-16	4.772948E-17
3.650000E+03	9.009938E-16	5.388821E-17
3.660000E+03	8.939828E-16	5.940127E-17
3.670000E+03	8.867307E-16	6.422855E-17
3.680000E+03	8.787900E-16	6.834988E-17
3.690000E+03	8.697791E-16	7.175718E-17
3.700000E+03	8.594180E-16	7.445363E-17
3.710000E+03	8.476683E-16	7.646552E-17
3.720000E+03	8.343397E-16	7.780736E-17
3.730000E+03	8.197468E-16	7.854090E-17
3.740000E+03	8.043865E-16	7.874815E-17
3.750000E+03	7.886340E-16	7.850045E-17
3.760000E+03	7.734132E-16	7.792300E-17
3.770000E+03	7.594675E-16	7.712204E-17
3.780000E+03	7.476235E-16	7.620868E-17
3.790000E+03	7.390220E-16	7.532097E-17
3.800000E+03	7.345414E-16	7.456317E-17
3.810000E+03	7.351552E-16	7.404021E-17
3.820000E+03	7.418394E-16	7.384662E-17
3.830000E+03	7.554906E-16	7.405711E-17
3.840000E+03	7.772990E-16	7.476238E-17
3.850000E+03	8.082100E-16	7.601576E-17
3.860000E+03	8.492685E-16	7.786824E-17
3.870000E+03	9.015902E-16	8.036721E-17
3.880000E+03	9.658509E-16	8.351494E-17
3.890000E+03	1.042774E-15	8.732018E-17
3.900000E+03	1.132533E-15	9.175479E-17
3.910000E+03	1.234636E-15	9.675725E-17
3.920000E+03	1.347708E-15	1.022285E-16
3.930000E+03	1.469512E-15	1.080437E-16
3.940000E+03	1.596243E-15	1.140061E-16
3.950000E+03	1.723684E-15	1.199299E-16
3.960000E+03	1.846921E-15	1.256058E-16
3.970000E+03	1.961255E-15	1.308445E-16
3.980000E+03	2.061876E-15	1.354336E-16
3.990000E+03	2.145681E-15	1.392419E-16
4.000000E+03	2.210953E-15	1.421864E-16
4.010000E+03	2.256604E-15	1.441856E-16
4.020000E+03	2.283532E-15	1.452575E-16
4.030000E+03	2.293578E-15	1.454656E-16
4.040000E+03	2.288398E-15	1.448607E-16
4.050000E+03	2.270740E-15	1.435724E-16
4.060000E+03	2.243437E-15	1.417489E-16
4.070000E+03	2.208492E-15	1.394995E-16
4.080000E+03	2.168782E-15	1.369994E-16
4.090000E+03	2.125977E-15	1.343533E-16
4.100000E+03	2.082247E-15	1.316980E-16
4.110000E+03	2.039240E-15	1.291327E-16
4.120000E+03	1.998545E-15	1.267445E-16
4.130000E+03	1.960789E-15	1.245513E-16
4.140000E+03	1.927027E-15	1.225906E-16
4.150000E+03	1.897862E-15	1.208672E-16
4.160000E+03	1.873918E-15	1.193872E-16
4.170000E+03	1.855041E-15	1.181093E-16
4.180000E+03	1.841585E-15	1.170288E-16
4.190000E+03	1.833583E-15	1.161249E-16
4.200000E+03	1.830975E-15	1.153742E-16
4.210000E+03	1.833617E-15	1.147482E-16
4.220000E+03	1.841297E-15	1.142110E-16
4.230000E+03	1.853745E-15	1.137146E-16
4.240000E+03	1.870657E-15	1.131956E-16
4.250000E+03	1.891702E-15	1.125723E-16
4.260000E+03	1.916533E-15	1.117422E-16
4.270000E+03	1.944563E-15	1.105688E-16
4.280000E+03	1.975782E-15	1.089271E-16
4.290000E+03	2.009467E-15	1.066283E-16
4.300000E+03	2.044753E-15	1.034556E-16
4.310000E+03	2.081260E-15	9.919861E-17
4.320000E+03	2.117535E-15	9.358542E-17
4.330000E+03	2.152817E-15	8.639404E-17
4.340000E+03	2.185259E-15	7.741896E-17
4.350000E+03	2.213585E-15	6.663643E-17
4.360000E+03	2.236511E-15	5.437975E-17
4.370000E+03	2.252193E-15	4.186951E-17
4.380000E+03	2.259912E-15	3.266457E-17
4.390000E+03	2.259547E-15	3.282923E-17
4.400000E+03	2.252231E-15	4.212209E-17
4.410000E+03	2.240018E-15	5.448317E-17
4.420000E+03	2.226246E-15	6.662368E-17
4.430000E+03	2.213619E-15	7.750807E-17
4.440000E+03	2.204635E-15	8.695656E-17
4.450000E+03	2.202132E-15	9.513957E-17
4.460000E+03	2.207621E-15	1.023105E-16
4.470000E+03	2.223116E-15	1.087905E-16
4.480000E+03	2.249306E-15	1.148414E-16
4.490000E+03	2.287167E-15	1.207177E-16
4.500000E+03	2.337012E-15	1.266103E-16
4.510000E+03	2.398679E-15	1.326502E-16
4.520000E+03	2.471448E-15	1.389037E-16
4.530000E+03	2.553708E-15	1.453556E-16
4.540000E+03	2.643938E-15	1.519694E-16
4.550000E+03	2.738882E-15	1.585883E-16
4.560000E+03	2.835769E-15	1.650691E-16
4.570000E+03	2.930283E-15	1.711710E-16
4.580000E+03	3.018791E-15	1.766911E-16
4.590000E+03	3.097529E-15	1.814212E-16
4.600000E+03	3.163192E-15	1.851859E-16
4.610000E+03	3.213220E-15	1.878611E-16
4.620000E+03	3.245668E-15	1.893683E-16
4.630000E+03	3.260627E-15	1.897583E-16
4.640000E+03	3.257938E-15	1.890760E-16
4.650000E+03	3.239724E-15	1.875049E-16
4.660000E+03	3.207585E-15	1.851992E-16
4.670000E+03	3.164644E-15	1.823963E-16
4.680000E+03	3.113934E-15	1.793181E-16
4.690000E+03	3.058430E-15	1.761663E-16
4.700000E+03	3.000488E-15	1.730845E-16
4.710000E+03	2.942854E-15	1.702117E-16
4.720000E+03	2.886459E-15	1.675559E-16
4.730000E+03	2.832775E-15	1.651356E-16
4.740000E+03	2.781565E-15	1.628634E-16
4.750000E+03	2.732996E-15	1.606844E-16
4.760000E+03	2.686648E-15	1.585321E-16
4.770000E+03	2.641695E-15	1.563448E-16
4.780000E+03	2.598094E-15	1.541341E-16
4.790000E+03	2.554899E-15	1.518766E-16
4.800000E+03	2.512441E-15	1.496310E-16
4.810000E+03	2.470389E-15	1.474112E-16
4.820000E+03	2.429540E-15	1.452841E-16
4.830000E+03	2.390811E-15	1.433074E-16
4.840000E+03	2.355432E-15	1.415433E-16
4.850000E+03	2.324621E-15	1.400453E-16
4.860000E+03	2.300384E-15	1.389139E-16
4.870000E+03	2.283825E-15	1.382015E-16
4.880000E+03	2.276644E-15	1.380060E-16
4.890000E+03	2.280184E-15	1.384136E-16
4.900000E+03	2.295622E-15	1.395064E-16
4.910000E+03	2.323701E-15	1.413419E-16
4.920000E+03	2.365564E-15	1.439973E-16
4.930000E+03	2.421073E-15	1.474632E-16
4.940000E+03	2.490455E-15	1.517417E-16
4.950000E+03	2.572235E-15	1.567226E-16
4.960000E+03	2.664623E-15	1.622729E-16
4.970000E+03	2.764103E-15	1.681596E-16
4.980000E+03	2.866618E-15	1.741306E-16
4.990000E+03	2.965849E-15	1.798188E-16
5.000000E+03	3.055808E-15	1.849029E-16
5.010000E+03	3.129372E-15	1.890158E-16
5.020000E+03	3.181274E-15	1.919143E-16
5.030000E+03	3.207992E-15	1.934550E-16
5.040000E+03	3.208497E-15	1.936208E-16
5.050000E+03	3.185734E-15	1.925982E-16
5.060000E+03	3.144128E-15	1.906244E-16
5.070000E+03	3.091136E-15	1.880908E-16
5.080000E+03	3.033724E-15	1.853442E-16
5.090000E+03	2.979365E-15	1.827625E-16
5.100000E+03	2.933762E-15	1.806264E-16
5.110000E+03	2.901783E-15	1.791807E-16
5.120000E+03	2.885346E-15	1.785046E-16
5.130000E+03	2.885687E-15	1.786504E-16
5.140000E+03	2.901362E-15	1.795185E-16
5.150000E+03	2.930416E-15	1.809922E-16
5.160000E+03	2.969625E-15	1.828907E-16
5.170000E+03	3.014857E-15	1.849920E-16
5.180000E+03	3.062606E-15	1.871263E-16
5.190000E+03	3.108429E-15	1.890761E-16
5.200000E+03	3.149294E-15	1.907147E-16
5.210000E+03	3.182703E-15	1.919453E-16
5.220000E+03	3.207084E-15	1.927174E-16
5.230000E+03	3.221763E-15	1.930194E-16
5.240000E+03	3.226819E-15	1.928659E-16
5.250000E+03	3.222586E-15	1.922662E-16
5.260000E+03	3.210347E-15	1.912683E-16
5.270000E+03	3.191234E-15	1.898975E-16
5.280000E+03	3.166383E-15	1.881729E-16
5.290000E+03	3.136833E-15	1.861086E-16
5.300000E+03	3.103465E-15	1.837164E-16
5.310000E+03	3.066711E-15	1.809919E-16
5.320000E+03	3.027721E-15	1.779834E-16
5.330000E+03	2.986416E-15	1.746735E-16
5.340000E+03	2.943544E-15	1.710940E-16
5.350000E+03	2.899609E-15	1.672570E-16
5.360000E+03	2.855208E-15	1.631688E-16
5.370000E+03	2.810803E-15	1.588150E-16
5.380000E+03	2.767782E-15	1.542208E-16
5.390000E+03	2.726630E-15	1.493508E-16
5.400000E+03	2.688747E-15	1.442165E-16
5.410000E+03	2.655395E-15	1.388252E-16
5.420000E+03	2.627944E-15	1.332065E-16
5.430000E+03	2.607834E-15	1.274274E-16
5.440000E+03	2.596517E-15	1.216178E-16
5.450000E+03	2.595121E-15	1.159951E-16
5.460000E+03	2.605264E-15	1.109562E-16
5.470000E+03	2.627199E-15	1.070501E-16
5.480000E+03	2.661259E-15	1.050501E-16
5.490000E+03	2.706648E-15	1.057438E-16
5.500000E+03	2.761409E-15	1.094904E-16
5.510000E+03	2.821964E-15	1.158703E-16
5.520000E+03	2.884154E-15	1.240109E-16
5.530000E+03	2.941645E-15	1.328845E-16
5.540000E+03	2.988213E-15	1.415591E-16
5.550000E+03	3.017674E-15	1.492390E-16
5.560000E+03	3.023881E-15	1.552595E-16
5.570000E+03	3.002903E-15	1.591822E-16
5.580000E+03	2.953564E-15	1.608181E-16
5.590000E+03	2.876192E-15	1.601469E-16
5.600000E+03	2.773184E-15	1.573265E-16
5.610000E+03	2.649145E-15	1.526828E-16
5.620000E+03	2.508406E-15	1.465486E-16
5.630000E+03	2.356187E-15	1.393143E-16
5.640000E+03	2.197222E-15	1.313369E-16
5.650000E+03	2.035870E-15	1.229399E-16
5.660000E+03	1.875960E-15	1.143997E-16
5.670000E+03	1.721539E-15	1.059908E-16
5.680000E+03	1.575811E-15	9.792403E-17
5.690000E+03	1.441658E-15	9.038398E-17
5.700000E+03	1.321762E-15	8.354299E-17
5.710000E+03	1.218058E-15	7.753293E-17
5.720000E+03	1.131874E-15	7.245549E-17
5.730000E+03	1.064013E-15	6.838555E-17
5.740000E+03	1.014904E-15	6.537755E-17
5.750000E+03	9.848037E-16	6.347413E-17
5.760000E+03	9.739070E-16	6.270967E-17
5.770000E+03	9.828632E-16	6.314141E-17
5.780000E+03	1.012256E-15	6.481499E-17
5.790000E+03	1.063250E-15	6.780605E-17
5.800000E+03	1.137257E-15	7.219976E-17
5.810000E+03	1.235416E-15	7.805909E-17
5.820000E+03	1.358832E-15	8.544262E-17
5.830000E+03	1.507539E-15	9.434200E-17
5.840000E+03	1.680509E-15	1.046857E-16
5.850000E+03	1.874223E-15	1.162527E-16
5.860000E+03	2.082478E-15	1.286629E-16
5.870000E+03	2.296860E-15	1.414064E-16
5.880000E+03	2.505831E-15	1.537863E-16
5.890000E+03	2.697133E-15	1.650655E-16
5.900000E+03	2.858590E-15	1.745141E-16
5.910000E+03	2.980350E-15	1.815470E-16
5.920000E+03	3.055065E-15	1.857343E-16
5.930000E+03	3.081486E-15	1.870190E-16
5.940000E+03	3.061743E-15	1.855487E-16
5.950000E+03	3.001906E-15	1.817058E-16
5.960000E+03	2.910140E-15	1.759930E-16
5.970000E+03	2.796354E-15	1.690105E-16
5.980000E+03	2.669132E-15	1.612711E-16
5.990000E+03	2.536989E-15	1.532788E-16
6.000000E+03	2.405997E-15	1.453880E-16
6.010000E+03	2.281411E-15	1.379042E-16
6.020000E+03	2.166856E-15	1.310373E-16
6.030000E+03	2.064804E-15	1.249302E-16
6.040000E+03	1.976810E-15	1.196741E-16
6.050000E+03	1.903733E-15	1.153202E-16
6.060000E+03	1.845903E-15	1.118895E-16
6.070000E+03	1.803097E-15	1.093696E-16
6.080000E+03	1.775306E-15	1.077606E-16
6.090000E+03	1.761688E-15	1.070112E-16
6.100000E+03	1.761969E-15	1.071041E-16
6.110000E+03	1.775244E-15	1.079832E-16
6.120000E+03	1.801368E-15	1.096395E-16
6.130000E+03	1.839756E-15	1.120387E-16
6.140000E+03	1.890615E-15	1.151960E-16
6.150000E+03	1.954365E-15	1.191413E-16
6.160000E+03	2.031844E-15	1.239301E-16
6.170000E+03	2.124290E-15	1.296416E-16
6.180000E+03	2.233247E-15	1.363718E-16
6.190000E+03	2.360382E-15	1.442220E-16
6.200000E+03	2.507208E-15	1.532820E-16
6.210000E+03	2.674456E-15	1.635917E-16
6.220000E+03	2.862580E-15	1.751723E-16
6.230000E+03	3.069559E-15	1.878900E-16
6.240000E+03	3.292475E-15	2.015511E-16
6.250000E+03	3.525033E-15	2.157473E-16
6.260000E+03	3.759863E-15	2.299963E-16
6.270000E+03	3.986393E-15	2.436154E-16
6.280000E+03	4.193918E-15	2.559171E-16
6.290000E+03	4.371855E-15	2.662338E-16
6.300000E+03	4.509801E-15	2.739291E-16
6.310000E+03	4.601138E-15	2.786172E-16
6.320000E+03	4.642356E-15	2.801153E-16
6.330000E+03	4.633787E-15	2.784763E-16
6.340000E+03	4.579376E-15	2.739619E-16
6.350000E+03	4.485969E-15	2.669912E-16
6.360000E+03	4.362309E-15	2.580766E-16
6.370000E+03	4.217570E-15	2.477376E-16
6.380000E+03	4.061920E-15	2.365356E-16
6.390000E+03	3.903383E-15	2.248905E-16
6.400000E+03	3.748570E-15	2.131254E-16
6.410000E+03	3.603422E-15	2.015084E-16
6.420000E+03	3.471077E-15	1.901324E-16
6.430000E+03	3.353110E-15	1.789923E-16
6.440000E+03	3.250636E-15	1.680528E-16
6.450000E+03	3.162408E-15	1.571628E-16
6.460000E+03	3.087246E-15	1.462096E-16
6.470000E+03	3.023360E-15	1.351173E-16
6.480000E+03	2.967792E-15	1.238812E-16
6.490000E+03	2.918343E-15	1.127348E-16
6.500000E+03	2.872663E-15	1.022086E-16
6.510000E+03	2.828999E-15	9.325557E-17
6.520000E+03	2.785292E-15	8.717619E-17
6.530000E+03	2.740828E-15	8.516554E-17
6.540000E+03	2.695141E-15	8.723750E-17
6.550000E+03	2.648227E-15	9.209236E-17
6.560000E+03	2.600496E-15	9.819439E-17
6.570000E+03	2.552648E-15	1.044228E-16
6.580000E+03	2.505270E-15	1.101222E-16
6.590000E+03	2.459582E-15	1.150136E-16
6.600000E+03	2.415892E-15	1.189997E-16
6.610000E+03	2.374429E-15	1.221051E-16
6.620000E+03	2.335057E-15	1.244031E-16
6.630000E+03	2.297068E-15	1.259645E-16
6.640000E+03	2.260076E-15	1.268835E-16
6.650000E+03	2.222822E-15	1.271995E-16
6.660000E+03	2.183948E-15	1.269318E-16
6.670000E+03	2.142727E-15	1.261202E-16
6.680000E+03	2.097778E-15	1.247519E-16
6.690000E+03	2.048796E-15	1.228641E-16
6.700000E+03	1.995060E-15	1.204597E-16
6.710000E+03	1.937020E-15	1.176042E-16
6.720000E+03	1.874785E-15	1.143373E-16
6.730000E+03	1.809349E-15	1.107484E-16
6.740000E+03	1.741932E-15	1.069369E-16
6.750000E+03	1.673391E-15	1.029764E-16
6.760000E+03	1.605105E-15	9.896867E-17
6.770000E+03	1.538212E-15	9.499703E-17
6.780000E+03	1.473848E-15	9.114165E-17
6.790000E+03	1.412554E-15	8.744361E-17
6.800000E+03	1.355111E-15	8.395702E-17
6.810000E+03	1.301992E-15	8.071555E-17
6.820000E+03	1.253546E-15	7.774404E-17
6.830000E+03	1.210047E-15	7.506190E-17
6.840000E+03	1.171751E-15	7.268688E-17
6.850000E+03	1.138941E-15	7.063858E-17
6.860000E+03	1.111968E-15	6.894102E-17
6.870000E+03	1.091266E-15	6.762415E-17
6.880000E+03	1.077362E-15	6.672418E-17
6.890000E+03	1.070872E-15	6.628310E-17
6.900000E+03	1.072392E-15	6.634146E-17
6.910000E+03	1.082885E-15	6.696211E-17
6.920000E+03	1.103068E-15	6.819196E-17
6.930000E+03	1.133789E-15	7.008574E-17
6.940000E+03	1.175783E-15	7.269133E-17
6.950000E+03	1.230054E-15	7.607386E-17
6.960000E+03	1.297143E-15	8.027069E-17
6.970000E+03	1.377307E-15	8.530218E-17
6.980000E+03	1.470767E-15	9.118591E-17
6.990000E+03	1.576627E-15	9.786805E-17
7.000000E+03	1.693777E-15	1.052768E-16
7.010000E+03	1.819611E-15	1.132413E-16
7.020000E+03	1.951031E-15	1.215541E-16
7.030000E+03	2.084150E-15	1.299549E-16
7.040000E+03	2.213934E-15	1.381124E-16
7.050000E+03	2.335985E-15	1.457397E-16
7.060000E+03	2.445452E-15	1.525298E-16
7.070000E+03	2.539048E-15	1.582823E-16
7.080000E+03	2.614660E-15	1.628778E-16
7.090000E+03	2.671829E-15	1.663050E-16
7.100000E+03	2.712064E-15	1.686766E-16
7.110000E+03	2.737645E-15	1.701522E-16
7.120000E+03	2.752825E-15	1.710118E-16
7.130000E+03	2.762399E-15	1.715660E-16
7.140000E+03	2.771550E-15	1.721462E-16
7.150000E+03	2.785504E-15	1.730825E-16
7.160000E+03	2.809280E-15	1.746883E-16
7.170000E+03	2.847533E-15	1.772493E-16
7.180000E+03	2.904185E-15	1.810000E-16
7.190000E+03	2.983459E-15	1.861878E-16
7.200000E+03	3.088156E-15	1.929660E-16
7.210000E+03	3.220594E-15	2.014527E-16
7.220000E+03	3.381771E-15	2.116804E-16
7.230000E+03	3.572280E-15	2.236538E-16
7.240000E+03	3.789959E-15	2.372052E-16
7.250000E+03	4.030210E-15	2.520166E-16
7.260000E+03	4.286723E-15	2.676668E-16
7.270000E+03	4.548509E-15	2.834499E-16
7.280000E+03	4.803192E-15	2.985853E-16
7.290000E+03	5.034331E-15	3.120569E-16
7.300000E+03	5.225866E-15	3.228960E-16
7.310000E+03	5.362827E-15	3.302261E-16
7.320000E+03	5.431929E-15	3.332971E-16
7.330000E+03	5.426596E-15	3.317847E-16
7.340000E+03	5.346127E-15	3.257248E-16
7.350000E+03	5.196250E-15	3.155348E-16
7.360000E+03	4.988013E-15	3.019367E-16
7.370000E+03	4.735847E-15	2.858353E-16
7.380000E+03	4.455313E-15	2.681822E-16
7.390000E+03	4.161070E-15	2.498575E-16
7.400000E+03	3.865441E-15	2.315884E-16
7.410000E+03	3.577690E-15	2.139131E-16
7.420000E+03	3.303953E-15	1.971807E-16
7.430000E+03	3.047312E-15	1.815604E-16
7.440000E+03	2.809624E-15	1.671521E-16
7.450000E+03	2.590361E-15	1.539180E-16
7.460000E+03	2.388262E-15	1.417802E-16
7.470000E+03	2.202456E-15	1.306860E-16
7.480000E+03	2.031182E-15	1.205296E-16
7.490000E+03	1.873771E-15	1.112688E-16
7.500000E+03	1.729083E-15	1.028303E-16
7.510000E+03	1.596845E-15	9.518951E-17
7.520000E+03	1.476954E-15	8.832860E-17
7.530000E+03	1.368996E-15	8.220848E-17
7.540000E+03	1.273055E-15	7.681774E-17
7.550000E+03	1.189051E-15	7.213367E-17
7.560000E+03	1.116869E-15	6.813083E-17
7.570000E+03	1.056361E-15	6.478223E-17
7.580000E+03	1.007364E-15	6.206180E-17
7.590000E+03	9.697230E-16	5.994764E-17
7.600000E+03	9.433270E-16	5.842515E-17
7.610000E+03	9.280410E-16	5.748380E-17
7.620000E+03	9.240933E-16	5.714081E-17
7.630000E+03	9.315397E-16	5.740694E-17
7.640000E+03	9.505327E-16	5.830141E-17
7.650000E+03	9.815747E-16	5.986520E-17
7.660000E+03	1.024814E-15	6.211590E-17
7.670000E+03	1.080623E-15	6.508226E-17
7.680000E+03	1.149214E-15	6.878179E-17
7.690000E+03	1.230142E-15	7.319297E-17
7.700000E+03	1.322773E-15	7.828631E-17
7.710000E+03	1.425658E-15	8.398823E-17
7.720000E+03	1.536445E-15	9.017649E-17
7.730000E+03	1.651745E-15	9.667110E-17
7.740000E+03	1.767091E-15	1.032306E-16
7.750000E+03	1.877057E-15	1.095574E-16
7.760000E+03	1.975599E-15	1.153140E-16
