#wls	flux	fluxerr
1.589667E+03	8.229571E-18	8.702008E-19
1.629409E+03	8.420960E-18	8.876816E-19
1.669151E+03	8.609430E-18	9.046616E-19
1.708892E+03	8.790178E-18	9.206348E-19
1.748634E+03	8.965597E-18	9.358530E-19
1.788376E+03	9.127899E-18	9.495059E-19
1.828117E+03	9.279093E-18	9.618101E-19
1.867859E+03	9.404369E-18	9.712431E-19
1.907601E+03	9.503464E-18	9.778020E-19
1.947342E+03	9.565251E-18	9.803728E-19
1.987084E+03	9.587321E-18	9.787503E-19
2.026826E+03	9.582774E-18	9.743125E-19
2.066567E+03	9.576776E-18	9.696390E-19
2.106309E+03	9.626675E-18	9.705116E-19
2.146051E+03	9.785767E-18	9.822038E-19
2.185792E+03	1.009196E-17	1.008351E-18
2.225534E+03	1.054967E-17	1.049181E-18
2.265276E+03	1.112435E-17	1.101047E-18
2.305017E+03	1.178195E-17	1.160408E-18
2.344759E+03	1.248304E-17	1.223255E-18
2.384501E+03	1.320860E-17	1.287646E-18
2.424242E+03	1.394235E-17	1.351937E-18
2.463984E+03	1.468400E-17	1.416061E-18
2.503726E+03	1.542848E-17	1.479488E-18
2.543467E+03	1.617689E-17	1.542295E-18
2.583209E+03	1.694076E-17	1.605534E-18
2.622951E+03	1.771244E-17	1.668431E-18
2.662692E+03	1.849836E-17	1.731541E-18
2.702434E+03	1.930479E-17	1.795391E-18
2.742176E+03	2.012747E-17	1.859517E-18
2.781918E+03	2.097699E-17	1.924827E-18
2.821659E+03	2.184292E-17	1.990282E-18
2.861401E+03	2.273516E-17	2.056711E-18
2.901143E+03	2.365284E-17	2.123946E-18
2.940884E+03	2.459472E-17	2.191785E-18
2.980626E+03	2.556450E-17	2.260465E-18
2.990561E+03	2.581512E-17	2.278092E-18
3.000497E+03	2.606463E-17	2.295511E-18
3.010432E+03	2.631300E-17	2.312718E-18
3.020368E+03	2.656557E-17	2.330184E-18
3.030303E+03	2.682233E-17	2.347903E-18
3.040238E+03	2.707804E-17	2.365415E-18
3.050174E+03	2.733887E-17	2.383258E-18
3.060109E+03	2.760554E-17	2.401491E-18
3.070045E+03	2.787236E-17	2.419616E-18
3.079980E+03	2.814450E-17	2.438080E-18
3.089916E+03	2.842171E-17	2.456858E-18
3.099851E+03	2.869833E-17	2.475458E-18
3.109786E+03	2.897958E-17	2.494329E-18
3.119722E+03	2.926525E-17	2.513450E-18
3.129657E+03	2.954971E-17	2.532333E-18
3.139593E+03	2.984366E-17	2.551897E-18
3.149528E+03	3.013604E-17	2.571188E-18
3.159463E+03	3.043759E-17	2.591123E-18
3.169399E+03	3.073722E-17	2.610753E-18
3.179334E+03	3.104025E-17	2.630529E-18
3.189270E+03	3.134652E-17	2.650435E-18
3.199205E+03	3.166139E-17	2.670920E-18
3.209141E+03	3.197375E-17	2.691044E-18
3.219076E+03	3.229442E-17	2.711716E-18
3.229011E+03	3.261782E-17	2.732461E-18
3.238947E+03	3.294380E-17	2.753267E-18
3.248882E+03	3.327225E-17	2.774120E-18
3.258818E+03	3.360853E-17	2.795464E-18
3.268753E+03	3.395249E-17	2.817281E-18
3.278689E+03	3.429310E-17	2.838653E-18
3.288624E+03	3.464663E-17	2.860924E-18
3.298559E+03	3.500203E-17	2.883176E-18
3.308495E+03	3.535920E-17	2.905397E-18
3.318430E+03	3.572891E-17	2.928468E-18
3.328366E+03	3.610014E-17	2.951480E-18
3.338301E+03	3.647821E-17	2.974866E-18
3.348236E+03	3.686299E-17	2.998608E-18
3.358172E+03	3.725435E-17	3.022691E-18
3.368107E+03	3.765216E-17	3.047099E-18
3.378043E+03	3.806167E-17	3.072252E-18
3.387978E+03	3.847195E-17	3.097260E-18
3.397914E+03	3.889362E-17	3.122976E-18
3.407849E+03	3.932655E-17	3.149379E-18
3.417784E+03	3.976516E-17	3.176017E-18
3.427720E+03	4.020931E-17	3.202873E-18
3.437655E+03	4.066954E-17	3.230779E-18
3.447591E+03	4.113495E-17	3.258861E-18
3.457526E+03	4.161070E-17	3.287522E-18
3.467462E+03	4.209128E-17	3.316319E-18
3.477397E+03	4.258711E-17	3.346067E-18
3.487332E+03	4.309794E-17	3.376735E-18
3.497268E+03	4.361298E-17	3.407468E-18
3.507203E+03	4.414254E-17	3.439067E-18
3.517139E+03	4.468112E-17	3.471091E-18
3.527074E+03	4.523371E-17	3.503922E-18
3.537009E+03	4.580003E-17	3.537525E-18
3.546945E+03	4.637979E-17	3.571868E-18
3.556880E+03	4.696749E-17	3.606520E-18
3.566816E+03	4.757321E-17	3.642243E-18
3.576751E+03	4.819147E-17	3.678606E-18
3.586687E+03	4.882191E-17	3.715572E-18
3.596622E+03	4.946422E-17	3.753106E-18
3.606557E+03	5.012316E-17	3.791561E-18
3.616493E+03	5.079835E-17	3.830893E-18
3.626428E+03	5.148938E-17	3.871058E-18
3.636364E+03	5.219081E-17	3.911637E-18
3.646299E+03	5.290728E-17	3.952967E-18
3.656234E+03	5.364339E-17	3.995378E-18
3.666170E+03	5.439367E-17	4.038449E-18
3.676105E+03	5.515766E-17	4.082134E-18
3.686041E+03	5.593988E-17	4.126754E-18
3.695976E+03	5.673981E-17	4.172258E-18
3.705912E+03	5.755694E-17	4.218591E-18
3.715847E+03	5.838584E-17	4.265345E-18
3.725782E+03	5.923577E-17	4.313182E-18
3.735718E+03	6.010128E-17	4.361690E-18
3.745653E+03	6.098184E-17	4.410817E-18
3.755589E+03	6.188167E-17	4.460856E-18
3.765524E+03	6.280015E-17	4.511744E-18
3.775460E+03	6.373190E-17	4.563081E-18
3.785395E+03	6.468581E-17	4.615489E-18
3.795330E+03	6.565175E-17	4.668231E-18
3.805266E+03	6.663851E-17	4.721918E-18
3.815201E+03	6.764539E-17	4.776481E-18
3.825137E+03	6.866701E-17	4.831528E-18
3.835072E+03	6.970276E-17	4.887000E-18
3.845007E+03	7.076110E-17	4.943477E-18
3.854943E+03	7.183669E-17	5.000567E-18
3.864878E+03	7.292890E-17	5.058212E-18
3.874814E+03	7.403695E-17	5.116343E-18
3.884749E+03	7.516466E-17	5.175208E-18
3.894685E+03	7.631126E-17	5.234739E-18
3.904620E+03	7.747597E-17	5.294865E-18
3.914555E+03	7.865369E-17	5.355222E-18
3.924491E+03	7.985257E-17	5.416351E-18
3.934426E+03	8.106751E-17	5.477889E-18
3.944362E+03	8.229786E-17	5.539778E-18
3.954297E+03	8.354723E-17	5.602247E-18
3.964232E+03	8.481521E-17	5.665249E-18
3.974168E+03	8.609673E-17	5.728431E-18
3.984103E+03	8.739998E-17	5.792324E-18
3.994039E+03	8.871602E-17	5.856319E-18
4.003974E+03	9.005286E-17	5.920929E-18
4.013910E+03	9.140604E-17	5.985845E-18
4.023845E+03	9.277957E-17	6.051312E-18
4.033780E+03	9.416919E-17	6.117036E-18
4.043716E+03	9.557905E-17	6.183271E-18
4.053651E+03	9.700936E-17	6.250012E-18
4.063587E+03	9.845649E-17	6.317008E-18
4.073522E+03	9.992883E-17	6.384780E-18
4.083458E+03	1.014231E-16	6.453099E-18
4.093393E+03	1.029363E-16	6.521747E-18
4.103328E+03	1.044773E-16	6.591279E-18
4.113264E+03	1.060434E-16	6.661493E-18
4.123199E+03	1.076399E-16	6.732704E-18
4.133135E+03	1.092608E-16	6.804506E-18
4.143070E+03	1.109157E-16	6.877477E-18
4.153005E+03	1.126029E-16	6.951479E-18
4.162941E+03	1.143283E-16	7.026853E-18
4.172876E+03	1.160907E-16	7.103486E-18
4.182812E+03	1.178927E-16	7.181513E-18
4.192747E+03	1.197373E-16	7.261072E-18
4.202683E+03	1.216310E-16	7.342525E-18
4.212618E+03	1.235696E-16	7.425577E-18
4.222553E+03	1.255636E-16	7.510824E-18
4.232489E+03	1.276129E-16	7.598200E-18
4.242424E+03	1.297171E-16	7.687647E-18
4.252360E+03	1.318869E-16	7.779747E-18
4.262295E+03	1.341187E-16	7.874225E-18
4.272231E+03	1.364159E-16	7.971238E-18
4.282166E+03	1.387858E-16	8.071147E-18
4.292101E+03	1.412315E-16	8.174077E-18
4.302037E+03	1.437496E-16	8.279760E-18
4.311972E+03	1.463465E-16	8.388515E-18
4.321908E+03	1.490256E-16	8.500461E-18
4.331843E+03	1.517897E-16	8.615688E-18
4.341778E+03	1.546380E-16	8.734078E-18
4.351714E+03	1.575728E-16	8.855698E-18
4.361649E+03	1.605963E-16	8.980595E-18
4.371585E+03	1.637102E-16	9.108790E-18
4.381520E+03	1.669125E-16	9.240090E-18
4.391456E+03	1.702110E-16	9.374862E-18
4.401391E+03	1.735955E-16	9.512461E-18
4.411326E+03	1.770730E-16	9.653199E-18
4.421262E+03	1.806393E-16	9.796773E-18
4.431197E+03	1.842928E-16	9.943024E-18
4.441133E+03	1.880352E-16	1.009197E-17
4.451068E+03	1.918602E-16	1.024321E-17
4.461003E+03	1.957678E-16	1.039667E-17
4.470939E+03	1.997539E-16	1.055206E-17
4.480874E+03	2.038134E-16	1.070907E-17
4.490810E+03	2.079444E-16	1.086753E-17
4.500745E+03	2.121368E-16	1.102686E-17
4.510681E+03	2.163798E-16	1.118646E-17
4.520616E+03	2.206621E-16	1.134571E-17
4.530551E+03	2.249678E-16	1.150377E-17
4.540487E+03	2.292920E-16	1.166038E-17
4.550422E+03	2.336145E-16	1.181450E-17
4.560358E+03	2.379223E-16	1.196548E-17
4.570293E+03	2.422061E-16	1.211287E-17
4.580229E+03	2.464531E-16	1.225606E-17
4.590164E+03	2.506469E-16	1.239427E-17
4.600099E+03	2.547793E-16	1.252713E-17
4.610035E+03	2.588313E-16	1.265377E-17
4.619970E+03	2.628038E-16	1.277432E-17
4.629906E+03	2.666796E-16	1.288799E-17
4.639841E+03	2.704505E-16	1.299448E-17
4.649776E+03	2.741130E-16	1.309373E-17
4.659712E+03	2.776576E-16	1.318536E-17
4.669647E+03	2.810801E-16	1.326928E-17
4.679583E+03	2.843812E-16	1.334562E-17
4.689518E+03	2.875556E-16	1.341425E-17
4.699454E+03	2.906030E-16	1.347527E-17
4.709389E+03	2.935281E-16	1.352899E-17
4.719324E+03	2.963296E-16	1.357546E-17
4.729260E+03	2.990104E-16	1.361493E-17
4.739195E+03	3.015745E-16	1.364767E-17
4.749131E+03	3.040304E-16	1.367419E-17
4.759066E+03	3.063796E-16	1.369462E-17
4.769001E+03	3.086274E-16	1.370931E-17
4.778937E+03	3.107834E-16	1.371877E-17
4.788872E+03	3.128532E-16	1.372333E-17
4.798808E+03	3.148460E-16	1.372346E-17
4.808743E+03	3.167634E-16	1.371932E-17
4.818679E+03	3.186142E-16	1.371134E-17
4.828614E+03	3.204065E-16	1.369993E-17
4.838549E+03	3.221483E-16	1.368550E-17
4.848485E+03	3.238430E-16	1.366823E-17
4.858420E+03	3.255010E-16	1.364861E-17
4.868356E+03	3.271214E-16	1.362665E-17
4.878291E+03	3.287210E-16	1.360308E-17
4.888227E+03	3.302942E-16	1.357770E-17
4.898162E+03	3.318533E-16	1.355104E-17
4.908097E+03	3.334031E-16	1.352332E-17
4.918033E+03	3.349446E-16	1.349461E-17
4.927968E+03	3.364893E-16	1.346538E-17
4.937904E+03	3.380342E-16	1.343553E-17
4.947839E+03	3.395907E-16	1.340553E-17
4.957774E+03	3.411630E-16	1.337554E-17
4.967710E+03	3.427551E-16	1.334572E-17
4.977645E+03	3.443751E-16	1.331640E-17
4.987581E+03	3.460237E-16	1.328758E-17
4.997516E+03	3.477123E-16	1.325972E-17
5.007452E+03	3.494419E-16	1.323282E-17
5.017387E+03	3.512240E-16	1.320732E-17
5.027322E+03	3.530596E-16	1.318324E-17
5.037258E+03	3.549604E-16	1.316099E-17
5.047193E+03	3.569271E-16	1.314056E-17
5.057129E+03	3.589672E-16	1.312222E-17
5.067064E+03	3.610883E-16	1.310620E-17
5.077000E+03	3.632937E-16	1.309260E-17
5.086935E+03	3.655901E-16	1.308163E-17
5.096870E+03	3.679837E-16	1.307345E-17
5.106806E+03	3.704761E-16	1.306810E-17
5.116741E+03	3.730721E-16	1.306571E-17
5.126677E+03	3.757721E-16	1.306625E-17
5.136612E+03	3.785791E-16	1.306979E-17
5.146547E+03	3.814954E-16	1.307637E-17
5.156483E+03	3.845224E-16	1.308601E-17
5.166418E+03	3.876529E-16	1.309843E-17
5.176354E+03	3.908943E-16	1.311385E-17
5.186289E+03	3.942332E-16	1.313181E-17
5.196225E+03	3.976753E-16	1.315248E-17
5.206160E+03	4.012092E-16	1.317548E-17
5.216095E+03	4.048350E-16	1.320080E-17
5.226031E+03	4.085437E-16	1.322815E-17
5.235966E+03	4.123294E-16	1.325737E-17
5.245902E+03	4.161816E-16	1.328813E-17
5.255837E+03	4.200975E-16	1.332037E-17
5.265772E+03	4.240607E-16	1.335363E-17
5.275708E+03	4.280632E-16	1.338768E-17
5.285643E+03	4.321005E-16	1.342247E-17
5.295579E+03	4.361552E-16	1.345750E-17
5.305514E+03	4.402182E-16	1.349259E-17
5.315450E+03	4.442847E-16	1.352768E-17
5.325385E+03	4.483367E-16	1.356231E-17
5.335320E+03	4.523654E-16	1.359632E-17
5.345256E+03	4.563622E-16	1.362958E-17
5.355191E+03	4.603147E-16	1.366182E-17
5.365127E+03	4.642201E-16	1.369311E-17
5.375062E+03	4.680577E-16	1.372297E-17
5.384998E+03	4.718313E-16	1.375164E-17
5.394933E+03	4.755266E-16	1.377885E-17
5.404868E+03	4.791447E-16	1.380479E-17
5.414804E+03	4.826736E-16	1.382925E-17
5.424739E+03	4.861068E-16	1.385221E-17
5.434675E+03	4.894490E-16	1.387394E-17
5.444610E+03	4.926960E-16	1.389449E-17
5.454545E+03	4.958401E-16	1.391377E-17
5.464481E+03	4.988791E-16	1.393189E-17
5.474416E+03	5.018124E-16	1.394895E-17
5.484352E+03	5.046505E-16	1.396540E-17
5.494287E+03	5.074002E-16	1.398156E-17
5.504223E+03	5.100595E-16	1.399751E-17
5.514158E+03	5.126376E-16	1.401361E-17
5.524093E+03	5.151352E-16	1.403001E-17
5.534029E+03	5.175690E-16	1.404723E-17
5.543964E+03	5.199365E-16	1.406522E-17
5.553900E+03	5.222519E-16	1.408434E-17
5.563835E+03	5.245199E-16	1.410471E-17
5.573770E+03	5.267516E-16	1.412660E-17
5.583706E+03	5.289588E-16	1.415031E-17
5.593641E+03	5.311488E-16	1.417599E-17
5.603577E+03	5.333350E-16	1.420397E-17
5.613512E+03	5.355359E-16	1.423469E-17
5.623448E+03	5.377551E-16	1.426820E-17
5.633383E+03	5.400014E-16	1.430468E-17
5.643318E+03	5.422992E-16	1.434473E-17
5.653254E+03	5.446517E-16	1.438838E-17
5.663189E+03	5.470725E-16	1.443593E-17
5.673125E+03	5.495689E-16	1.448751E-17
5.683060E+03	5.521534E-16	1.454339E-17
5.692996E+03	5.548317E-16	1.460367E-17
5.702931E+03	5.576195E-16	1.466870E-17
5.712866E+03	5.605149E-16	1.473838E-17
5.722802E+03	5.635253E-16	1.481284E-17
5.732737E+03	5.666512E-16	1.489204E-17
5.742673E+03	5.698963E-16	1.497603E-17
5.752608E+03	5.732570E-16	1.506466E-17
5.762543E+03	5.767382E-16	1.515801E-17
5.772479E+03	5.803205E-16	1.525552E-17
5.782414E+03	5.840043E-16	1.535715E-17
5.792350E+03	5.877760E-16	1.546250E-17
5.802285E+03	5.916196E-16	1.557110E-17
5.812221E+03	5.955277E-16	1.568271E-17
5.822156E+03	5.994685E-16	1.579645E-17
5.832091E+03	6.034299E-16	1.591195E-17
5.842027E+03	6.073871E-16	1.602851E-17
5.851962E+03	6.113134E-16	1.614537E-17
5.861898E+03	6.151869E-16	1.626192E-17
5.871833E+03	6.189790E-16	1.637734E-17
5.881769E+03	6.226610E-16	1.649081E-17
5.891704E+03	6.262160E-16	1.660185E-17
5.901639E+03	6.296046E-16	1.670934E-17
5.911575E+03	6.328121E-16	1.681284E-17
5.921510E+03	6.358136E-16	1.691162E-17
5.931446E+03	6.385928E-16	1.700519E-17
5.941381E+03	6.411237E-16	1.709280E-17
5.951316E+03	6.433953E-16	1.717408E-17
5.961252E+03	6.454059E-16	1.724892E-17
5.971187E+03	6.471332E-16	1.731667E-17
5.981123E+03	6.485823E-16	1.737738E-17
5.991058E+03	6.497440E-16	1.743077E-17
6.000994E+03	6.506363E-16	1.747723E-17
6.010929E+03	6.512511E-16	1.751650E-17
6.020864E+03	6.516069E-16	1.754901E-17
6.030800E+03	6.517136E-16	1.757498E-17
6.040735E+03	6.515836E-16	1.759469E-17
6.050671E+03	6.512439E-16	1.760882E-17
6.060606E+03	6.507057E-16	1.761763E-17
6.070541E+03	6.499999E-16	1.762191E-17
6.080477E+03	6.491409E-16	1.762203E-17
6.090412E+03	6.481626E-16	1.761887E-17
6.100348E+03	6.470874E-16	1.761302E-17
6.110283E+03	6.459447E-16	1.760525E-17
6.120219E+03	6.447584E-16	1.759621E-17
6.130154E+03	6.435584E-16	1.758670E-17
6.140089E+03	6.423745E-16	1.757753E-17
6.150025E+03	6.412247E-16	1.756919E-17
6.159960E+03	6.401502E-16	1.756281E-17
6.169896E+03	6.391680E-16	1.755888E-17
6.179831E+03	6.383064E-16	1.755819E-17
6.189767E+03	6.375989E-16	1.756167E-17
6.199702E+03	6.370720E-16	1.757007E-17
6.209637E+03	6.367695E-16	1.758465E-17
6.219573E+03	6.367162E-16	1.760611E-17
6.229508E+03	6.369419E-16	1.763532E-17
6.239444E+03	6.374812E-16	1.767328E-17
6.249379E+03	6.383676E-16	1.772098E-17
6.259314E+03	6.396212E-16	1.777901E-17
6.269250E+03	6.412668E-16	1.784814E-17
6.279185E+03	6.433397E-16	1.792940E-17
6.289121E+03	6.458555E-16	1.802330E-17
6.299056E+03	6.488332E-16	1.813045E-17
6.308992E+03	6.522903E-16	1.825140E-17
6.318927E+03	6.562540E-16	1.838700E-17
6.328862E+03	6.607233E-16	1.853731E-17
6.338798E+03	6.657134E-16	1.870284E-17
6.348733E+03	6.712358E-16	1.888401E-17
6.358669E+03	6.772916E-16	1.908095E-17
6.368604E+03	6.838773E-16	1.929366E-17
6.378539E+03	6.909846E-16	1.952200E-17
6.388475E+03	6.985994E-16	1.976569E-17
6.398410E+03	7.067164E-16	2.002468E-17
6.408346E+03	7.153029E-16	2.029816E-17
6.418281E+03	7.243263E-16	2.058532E-17
6.428217E+03	7.337473E-16	2.088514E-17
6.438152E+03	7.435195E-16	2.119640E-17
6.448087E+03	7.535893E-16	2.151770E-17
6.458023E+03	7.638639E-16	2.184648E-17
6.467958E+03	7.742907E-16	2.218133E-17
6.477894E+03	7.847624E-16	2.251926E-17
6.487829E+03	7.951896E-16	2.285774E-17
6.497765E+03	8.054784E-16	2.319406E-17
6.507700E+03	8.155320E-16	2.352534E-17
6.517635E+03	8.252512E-16	2.384866E-17
6.527571E+03	8.345190E-16	2.416052E-17
6.537506E+03	8.432554E-16	2.445849E-17
6.547442E+03	8.513478E-16	2.473916E-17
6.557377E+03	8.587169E-16	2.500006E-17
6.567312E+03	8.652811E-16	2.523863E-17
6.577248E+03	8.709594E-16	2.545232E-17
6.587183E+03	8.756904E-16	2.563911E-17
6.597119E+03	8.794250E-16	2.579734E-17
6.607054E+03	8.821375E-16	2.592603E-17
6.616990E+03	8.837960E-16	2.602400E-17
6.626925E+03	8.843829E-16	2.609048E-17
6.636860E+03	8.839240E-16	2.612600E-17
6.646796E+03	8.824292E-16	2.613060E-17
6.656731E+03	8.799206E-16	2.610472E-17
6.666667E+03	8.764625E-16	2.605003E-17
6.676602E+03	8.720890E-16	2.596733E-17
6.686538E+03	8.668737E-16	2.585863E-17
6.696473E+03	8.608766E-16	2.572552E-17
6.706408E+03	8.541845E-16	2.557043E-17
6.716344E+03	8.468673E-16	2.539532E-17
6.726279E+03	8.390179E-16	2.520282E-17
6.736215E+03	8.307100E-16	2.499505E-17
6.746150E+03	8.220271E-16	2.477442E-17
6.756085E+03	8.130511E-16	2.454333E-17
6.766021E+03	8.038611E-16	2.430410E-17
6.775956E+03	7.945423E-16	2.405927E-17
6.785892E+03	7.851472E-16	2.381039E-17
6.795827E+03	7.757428E-16	2.355948E-17
6.805763E+03	7.664098E-16	2.330898E-17
6.815698E+03	7.571856E-16	2.306004E-17
6.825633E+03	7.481215E-16	2.281424E-17
6.835569E+03	7.392720E-16	2.257326E-17
6.845504E+03	7.306684E-16	2.233808E-17
6.855440E+03	7.223455E-16	2.210981E-17
6.865375E+03	7.143334E-16	2.188940E-17
6.875310E+03	7.066660E-16	2.167793E-17
6.885246E+03	6.993380E-16	2.147528E-17
6.895181E+03	6.923920E-16	2.128279E-17
6.905117E+03	6.858235E-16	2.110039E-17
6.915052E+03	6.796502E-16	2.092864E-17
6.924988E+03	6.738697E-16	2.076752E-17
6.934923E+03	6.684851E-16	2.061717E-17
6.944858E+03	6.634968E-16	2.047763E-17
6.954794E+03	6.589029E-16	2.034887E-17
6.964729E+03	6.547075E-16	2.023106E-17
6.974665E+03	6.508798E-16	2.012326E-17
6.984600E+03	6.474370E-16	2.002605E-17
6.994536E+03	6.443532E-16	1.993863E-17
7.004471E+03	6.416182E-16	1.986071E-17
7.014406E+03	6.392283E-16	1.979220E-17
7.024342E+03	6.371627E-16	1.973245E-17
7.034277E+03	6.353995E-16	1.968082E-17
7.044213E+03	6.339404E-16	1.963734E-17
7.054148E+03	6.327538E-16	1.960105E-17
7.064083E+03	6.318319E-16	1.957171E-17
7.074019E+03	6.311576E-16	1.954879E-17
7.083954E+03	6.307058E-16	1.953151E-17
7.093890E+03	6.304581E-16	1.951930E-17
7.103825E+03	6.304044E-16	1.951185E-17
7.113761E+03	6.305173E-16	1.950829E-17
7.123696E+03	6.307687E-16	1.950777E-17
7.133631E+03	6.311552E-16	1.951017E-17
7.143567E+03	6.316396E-16	1.951433E-17
7.153502E+03	6.322092E-16	1.951987E-17
7.163438E+03	6.328346E-16	1.952588E-17
7.173373E+03	6.335026E-16	1.953194E-17
7.183308E+03	6.341833E-16	1.953715E-17
7.193244E+03	6.348636E-16	1.954111E-17
7.203179E+03	6.355138E-16	1.954290E-17
7.213115E+03	6.361046E-16	1.954165E-17
7.223050E+03	6.366323E-16	1.953726E-17
7.232986E+03	6.370772E-16	1.952915E-17
7.242921E+03	6.373948E-16	1.951598E-17
7.252856E+03	6.375929E-16	1.949802E-17
7.262792E+03	6.376464E-16	1.947453E-17
7.272727E+03	6.375400E-16	1.944510E-17
7.282663E+03	6.372515E-16	1.940909E-17
7.292598E+03	6.367778E-16	1.936645E-17
7.302534E+03	6.361089E-16	1.931695E-17
7.312469E+03	6.352369E-16	1.926040E-17
7.322404E+03	6.341471E-16	1.919642E-17
7.332340E+03	6.328532E-16	1.912549E-17
7.342275E+03	6.313364E-16	1.904713E-17
7.352211E+03	6.296056E-16	1.896167E-17
7.362146E+03	6.276638E-16	1.886928E-17
7.372081E+03	6.255155E-16	1.877019E-17
7.382017E+03	6.231675E-16	1.866468E-17
7.391952E+03	6.206282E-16	1.855309E-17
7.401888E+03	6.179076E-16	1.843580E-17
7.411823E+03	6.150177E-16	1.831326E-17
7.421759E+03	6.119799E-16	1.818618E-17
7.431694E+03	6.087998E-16	1.805483E-17
7.441629E+03	6.054924E-16	1.791973E-17
7.451565E+03	6.020737E-16	1.778144E-17
7.461500E+03	5.985686E-16	1.764078E-17
7.471436E+03	5.949852E-16	1.749805E-17
7.481371E+03	5.913490E-16	1.735410E-17
7.491307E+03	5.876681E-16	1.720923E-17
7.501242E+03	5.839593E-16	1.706400E-17
7.511177E+03	5.802470E-16	1.691921E-17
7.521113E+03	5.765469E-16	1.677537E-17
7.531048E+03	5.728653E-16	1.663273E-17
7.540984E+03	5.692330E-16	1.649224E-17
7.550919E+03	5.656458E-16	1.635385E-17
7.560854E+03	5.621242E-16	1.621820E-17
7.570790E+03	5.586784E-16	1.608565E-17
7.580725E+03	5.553179E-16	1.595653E-17
7.590661E+03	5.520584E-16	1.583133E-17
7.600596E+03	5.488982E-16	1.571007E-17
7.610532E+03	5.458419E-16	1.559292E-17
7.620467E+03	5.429011E-16	1.548028E-17
7.630402E+03	5.400774E-16	1.537224E-17
7.640338E+03	5.373709E-16	1.526885E-17
7.650273E+03	5.347802E-16	1.517015E-17
7.660209E+03	5.323025E-16	1.507609E-17
7.670144E+03	5.299414E-16	1.498685E-17
7.680079E+03	5.276831E-16	1.490210E-17
7.690015E+03	5.255288E-16	1.482192E-17
7.699950E+03	5.234620E-16	1.474593E-17
7.709886E+03	5.214898E-16	1.467439E-17
