#wls	flux	fluxerr
1.589667E+03	4.281504E-18	3.663345E-19
1.629409E+03	4.381061E-18	3.745372E-19
1.669151E+03	4.476253E-18	3.823436E-19
1.708892E+03	4.568218E-18	3.898509E-19
1.748634E+03	4.654408E-18	3.968419E-19
1.788376E+03	4.734497E-18	4.032894E-19
1.828117E+03	4.805503E-18	4.089402E-19
1.867859E+03	4.863745E-18	4.134830E-19
1.907601E+03	4.903326E-18	4.164195E-19
1.947342E+03	4.924175E-18	4.177481E-19
1.987084E+03	4.921657E-18	4.170805E-19
2.026826E+03	4.904236E-18	4.151395E-19
2.066567E+03	4.885128E-18	4.130467E-19
2.106309E+03	4.889830E-18	4.129556E-19
2.146051E+03	4.946964E-18	4.172729E-19
2.185792E+03	5.076483E-18	4.276627E-19
2.225534E+03	5.275914E-18	4.438927E-19
2.265276E+03	5.528494E-18	4.645296E-19
2.305017E+03	5.813947E-18	4.878518E-19
2.344759E+03	6.113845E-18	5.123011E-19
2.384501E+03	6.414376E-18	5.367134E-19
2.424242E+03	6.711133E-18	5.607173E-19
2.463984E+03	6.999736E-18	5.839455E-19
2.503726E+03	7.281746E-18	6.065277E-19
2.543467E+03	7.557772E-18	6.285141E-19
2.583209E+03	7.826672E-18	6.498087E-19
2.622951E+03	8.093446E-18	6.708260E-19
2.662692E+03	8.354702E-18	6.912824E-19
2.702434E+03	8.613052E-18	7.113930E-19
2.742176E+03	8.868840E-18	7.311840E-19
2.781918E+03	9.122232E-18	7.506666E-19
2.821659E+03	9.375360E-18	7.700138E-19
2.861401E+03	9.628066E-18	7.892090E-19
2.901143E+03	9.882231E-18	8.084028E-19
2.940884E+03	1.013960E-17	8.277334E-19
2.980626E+03	1.039747E-17	8.469744E-19
2.990561E+03	1.046241E-17	8.518026E-19
3.000497E+03	1.052882E-17	8.567415E-19
3.010432E+03	1.059452E-17	8.616143E-19
3.020368E+03	1.065949E-17	8.664194E-19
3.030303E+03	1.072590E-17	8.713319E-19
3.040238E+03	1.079381E-17	8.763582E-19
3.050174E+03	1.086136E-17	8.813457E-19
3.060109E+03	1.093100E-17	8.864941E-19
3.070045E+03	1.100045E-17	8.916179E-19
3.079980E+03	1.107178E-17	8.968837E-19
3.089916E+03	1.114487E-17	9.022830E-19
3.099851E+03	1.121748E-17	9.076338E-19
3.109786E+03	1.129169E-17	9.131037E-19
3.119722E+03	1.136742E-17	9.186858E-19
3.129657E+03	1.144457E-17	9.243732E-19
3.139593E+03	1.152094E-17	9.299862E-19
3.149528E+03	1.160075E-17	9.358670E-19
3.159463E+03	1.167964E-17	9.416623E-19
3.169399E+03	1.175971E-17	9.475415E-19
3.179334E+03	1.184089E-17	9.534992E-19
3.189270E+03	1.192314E-17	9.595314E-19
3.199205E+03	1.200638E-17	9.656322E-19
3.209141E+03	1.209059E-17	9.717989E-19
3.219076E+03	1.217570E-17	9.780264E-19
3.229011E+03	1.226168E-17	9.843112E-19
3.238947E+03	1.234848E-17	9.906495E-19
3.248882E+03	1.243818E-17	9.972079E-19
3.258818E+03	1.252860E-17	1.003812E-18
3.268753E+03	1.261972E-17	1.010459E-18
3.278689E+03	1.271360E-17	1.017313E-18
3.288624E+03	1.280808E-17	1.024201E-18
3.298559E+03	1.290312E-17	1.031122E-18
3.308495E+03	1.300079E-17	1.038238E-18
3.318430E+03	1.310104E-17	1.045546E-18
3.328366E+03	1.320173E-17	1.052874E-18
3.338301E+03	1.330490E-17	1.060385E-18
3.348236E+03	1.340843E-17	1.067910E-18
3.358172E+03	1.351642E-17	1.075776E-18
3.368107E+03	1.362469E-17	1.083646E-18
3.378043E+03	1.373524E-17	1.091683E-18
3.387978E+03	1.385009E-17	1.100044E-18
3.397914E+03	1.396505E-17	1.108398E-18
3.407849E+03	1.408216E-17	1.116905E-18
3.417784E+03	1.420337E-17	1.125720E-18
3.427720E+03	1.432660E-17	1.134676E-18
3.437655E+03	1.445178E-17	1.143769E-18
3.447591E+03	1.458088E-17	1.153153E-18
3.457526E+03	1.471180E-17	1.162662E-18
3.467462E+03	1.484650E-17	1.172449E-18
3.477397E+03	1.498489E-17	1.182508E-18
3.487332E+03	1.512490E-17	1.192673E-18
3.497268E+03	1.526846E-17	1.203098E-18
3.507203E+03	1.541548E-17	1.213772E-18
3.517139E+03	1.556587E-17	1.224691E-18
3.527074E+03	1.572152E-17	1.236000E-18
3.537009E+03	1.587841E-17	1.247382E-18
3.546945E+03	1.604035E-17	1.259138E-18
3.556880E+03	1.620532E-17	1.271106E-18
3.566816E+03	1.637515E-17	1.283430E-18
3.576751E+03	1.654779E-17	1.295948E-18
3.586687E+03	1.672508E-17	1.308804E-18
3.596622E+03	1.690689E-17	1.321986E-18
3.606557E+03	1.709122E-17	1.335338E-18
3.616493E+03	1.728175E-17	1.349145E-18
3.626428E+03	1.747646E-17	1.363248E-18
3.636364E+03	1.767522E-17	1.377638E-18
3.646299E+03	1.787793E-17	1.392303E-18
3.656234E+03	1.808631E-17	1.407379E-18
3.666170E+03	1.830022E-17	1.422853E-18
3.676105E+03	1.851768E-17	1.438569E-18
3.686041E+03	1.874041E-17	1.454659E-18
3.695976E+03	1.896825E-17	1.471111E-18
3.705912E+03	1.920105E-17	1.487912E-18
3.715847E+03	1.943870E-17	1.505051E-18
3.725782E+03	1.968102E-17	1.522515E-18
3.735718E+03	1.992968E-17	1.540430E-18
3.745653E+03	2.018450E-17	1.558781E-18
3.755589E+03	2.044355E-17	1.577418E-18
3.765524E+03	2.070846E-17	1.596465E-18
3.775460E+03	2.097907E-17	1.615909E-18
3.785395E+03	2.125696E-17	1.635869E-18
3.795330E+03	2.153850E-17	1.656066E-18
3.805266E+03	2.182700E-17	1.676751E-18
3.815201E+03	2.212228E-17	1.697911E-18
3.825137E+03	2.242251E-17	1.719401E-18
3.835072E+03	2.272922E-17	1.741339E-18
3.845007E+03	2.304394E-17	1.763840E-18
3.854943E+03	2.336317E-17	1.786634E-18
3.864878E+03	2.369011E-17	1.809965E-18
3.874814E+03	2.402462E-17	1.833819E-18
3.884749E+03	2.436492E-17	1.858059E-18
3.894685E+03	2.471252E-17	1.882800E-18
3.904620E+03	2.506733E-17	1.908031E-18
3.914555E+03	2.542923E-17	1.933742E-18
3.924491E+03	2.579974E-17	1.960046E-18
3.934426E+03	2.617717E-17	1.986813E-18
3.944362E+03	2.656306E-17	2.014157E-18
3.954297E+03	2.695734E-17	2.042072E-18
3.964232E+03	2.736000E-17	2.070554E-18
3.974168E+03	2.777100E-17	2.099598E-18
3.984103E+03	2.819192E-17	2.129321E-18
3.994039E+03	2.862125E-17	2.159607E-18
4.003974E+03	2.906058E-17	2.190572E-18
4.013910E+03	2.950999E-17	2.222221E-18
4.023845E+03	2.997110E-17	2.254672E-18
4.033780E+03	3.044107E-17	2.287709E-18
4.043716E+03	3.092306E-17	2.321567E-18
4.053651E+03	3.141729E-17	2.356258E-18
4.063587E+03	3.192400E-17	2.391799E-18
4.073522E+03	3.244351E-17	2.428208E-18
4.083458E+03	3.297614E-17	2.465507E-18
4.093393E+03	3.352228E-17	2.503722E-18
4.103328E+03	3.408381E-17	2.542989E-18
4.113264E+03	3.466120E-17	2.583337E-18
4.123199E+03	3.525496E-17	2.624802E-18
4.133135E+03	3.586426E-17	2.667317E-18
4.143070E+03	3.649253E-17	2.711134E-18
4.153005E+03	3.714045E-17	2.756295E-18
4.162941E+03	3.780593E-17	2.802643E-18
4.172876E+03	3.849392E-17	2.850538E-18
4.182812E+03	3.920246E-17	2.899830E-18
4.192747E+03	3.993380E-17	2.950679E-18
4.202683E+03	4.068884E-17	3.003145E-18
4.212618E+03	4.146854E-17	3.057291E-18
4.222553E+03	4.227387E-17	3.113185E-18
4.232489E+03	4.310724E-17	3.170995E-18
4.242424E+03	4.396833E-17	3.230689E-18
4.252360E+03	4.485823E-17	3.292341E-18
4.262295E+03	4.577806E-17	3.356025E-18
4.272231E+03	4.673029E-17	3.421912E-18
4.282166E+03	4.771471E-17	3.489980E-18
4.292101E+03	4.873383E-17	3.560401E-18
4.302037E+03	4.978743E-17	3.633150E-18
4.311972E+03	5.087664E-17	3.708301E-18
4.321908E+03	5.200256E-17	3.785923E-18
4.331843E+03	5.316631E-17	3.866086E-18
4.341778E+03	5.436891E-17	3.948854E-18
4.351714E+03	5.561001E-17	4.034192E-18
4.361649E+03	5.689189E-17	4.122253E-18
4.371585E+03	5.821407E-17	4.212991E-18
4.381520E+03	5.957596E-17	4.306351E-18
4.391456E+03	6.097962E-17	4.402470E-18
4.401391E+03	6.242426E-17	4.501280E-18
4.411326E+03	6.390896E-17	4.602701E-18
4.421262E+03	6.543403E-17	4.706746E-18
4.431197E+03	6.699968E-17	4.813417E-18
4.441133E+03	6.860317E-17	4.922504E-18
4.451068E+03	7.024576E-17	5.034088E-18
4.461003E+03	7.192438E-17	5.147936E-18
4.470939E+03	7.363714E-17	5.263902E-18
4.480874E+03	7.538487E-17	5.382035E-18
4.490810E+03	7.716382E-17	5.502058E-18
4.500745E+03	7.897460E-17	5.624003E-18
4.510681E+03	8.081319E-17	5.747575E-18
4.520616E+03	8.267820E-17	5.872666E-18
4.530551E+03	8.457140E-17	5.999393E-18
4.540487E+03	8.648824E-17	6.127425E-18
4.550422E+03	8.842863E-17	6.256746E-18
4.560358E+03	9.039094E-17	6.387235E-18
4.570293E+03	9.237050E-17	6.518554E-18
4.580229E+03	9.436706E-17	6.650680E-18
4.590164E+03	9.637889E-17	6.783484E-18
4.600099E+03	9.840120E-17	6.916625E-18
4.610035E+03	1.004322E-16	7.049976E-18
4.619970E+03	1.024688E-16	7.183309E-18
4.629906E+03	1.045079E-16	7.316403E-18
4.639841E+03	1.065480E-16	7.449164E-18
4.649776E+03	1.085861E-16	7.581375E-18
4.659712E+03	1.106180E-16	7.712738E-18
4.669647E+03	1.126426E-16	7.843184E-18
4.679583E+03	1.146576E-16	7.972550E-18
4.689518E+03	1.166591E-16	8.100560E-18
4.699454E+03	1.186449E-16	8.227083E-18
4.709389E+03	1.206150E-16	8.352103E-18
4.719324E+03	1.225643E-16	8.475281E-18
4.729260E+03	1.244930E-16	8.596638E-18
4.739195E+03	1.263966E-16	8.715863E-18
4.749131E+03	1.282756E-16	8.833002E-18
4.759066E+03	1.301291E-16	8.947989E-18
4.769001E+03	1.319529E-16	9.060560E-18
4.778937E+03	1.337465E-16	9.170674E-18
4.788872E+03	1.355093E-16	9.278301E-18
4.798808E+03	1.372393E-16	9.383319E-18
4.808743E+03	1.389393E-16	9.485925E-18
4.818679E+03	1.406042E-16	9.585780E-18
4.828614E+03	1.422404E-16	9.683330E-18
4.838549E+03	1.438445E-16	9.778345E-18
4.848485E+03	1.454196E-16	9.871058E-18
4.858420E+03	1.469656E-16	9.961463E-18
4.868356E+03	1.484859E-16	1.004980E-17
4.878291E+03	1.499804E-16	1.013606E-17
4.888227E+03	1.514490E-16	1.022026E-17
4.898162E+03	1.528966E-16	1.030273E-17
4.908097E+03	1.543231E-16	1.038347E-17
4.918033E+03	1.557301E-16	1.046260E-17
4.927968E+03	1.571208E-16	1.054034E-17
4.937904E+03	1.584934E-16	1.061657E-17
4.947839E+03	1.598528E-16	1.069162E-17
4.957774E+03	1.611987E-16	1.076547E-17
4.967710E+03	1.625342E-16	1.083835E-17
4.977645E+03	1.638606E-16	1.091034E-17
4.987581E+03	1.651793E-16	1.098153E-17
4.997516E+03	1.664934E-16	1.105214E-17
5.007452E+03	1.678021E-16	1.112212E-17
5.017387E+03	1.691102E-16	1.119178E-17
5.027322E+03	1.704188E-16	1.126119E-17
5.037258E+03	1.717268E-16	1.133029E-17
5.047193E+03	1.730389E-16	1.139938E-17
5.057129E+03	1.743555E-16	1.146851E-17
5.067064E+03	1.756792E-16	1.153782E-17
5.077000E+03	1.770103E-16	1.160735E-17
5.086935E+03	1.783493E-16	1.167711E-17
5.096870E+03	1.796996E-16	1.174735E-17
5.106806E+03	1.810633E-16	1.181817E-17
5.116741E+03	1.824381E-16	1.188945E-17
5.126677E+03	1.838254E-16	1.196126E-17
5.136612E+03	1.852284E-16	1.203381E-17
5.146547E+03	1.866460E-16	1.210703E-17
5.156483E+03	1.880793E-16	1.218098E-17
5.166418E+03	1.895267E-16	1.225557E-17
5.176354E+03	1.909888E-16	1.233081E-17
5.186289E+03	1.924676E-16	1.240684E-17
5.196225E+03	1.939593E-16	1.248341E-17
5.206160E+03	1.954654E-16	1.256062E-17
5.216095E+03	1.969858E-16	1.263846E-17
5.226031E+03	1.985178E-16	1.271675E-17
5.235966E+03	2.000608E-16	1.279545E-17
5.245902E+03	2.016141E-16	1.287451E-17
5.255837E+03	2.031764E-16	1.295386E-17
5.265772E+03	2.047448E-16	1.303331E-17
5.275708E+03	2.063204E-16	1.311293E-17
5.285643E+03	2.078999E-16	1.319250E-17
5.295579E+03	2.094822E-16	1.327196E-17
5.305514E+03	2.110640E-16	1.335110E-17
5.315450E+03	2.126462E-16	1.342999E-17
5.325385E+03	2.142281E-16	1.350857E-17
5.335320E+03	2.158042E-16	1.358652E-17
5.345256E+03	2.173740E-16	1.366380E-17
5.355191E+03	2.189387E-16	1.374049E-17
5.365127E+03	2.204983E-16	1.381659E-17
5.375062E+03	2.220457E-16	1.389167E-17
5.384998E+03	2.235853E-16	1.396601E-17
5.394933E+03	2.251153E-16	1.403950E-17
5.404868E+03	2.266362E-16	1.411217E-17
5.414804E+03	2.281443E-16	1.418382E-17
5.424739E+03	2.296431E-16	1.425464E-17
5.434675E+03	2.311317E-16	1.432461E-17
5.444610E+03	2.326119E-16	1.439384E-17
5.454545E+03	2.340838E-16	1.446233E-17
5.464481E+03	2.355450E-16	1.452996E-17
5.474416E+03	2.370009E-16	1.459705E-17
5.484352E+03	2.384524E-16	1.466367E-17
5.494287E+03	2.399031E-16	1.473004E-17
5.504223E+03	2.413521E-16	1.479613E-17
5.514158E+03	2.428017E-16	1.486205E-17
5.524093E+03	2.442562E-16	1.492810E-17
5.534029E+03	2.457185E-16	1.499444E-17
5.543964E+03	2.471913E-16	1.506124E-17
5.553900E+03	2.486753E-16	1.512855E-17
5.563835E+03	2.501740E-16	1.519658E-17
5.573770E+03	2.516932E-16	1.526568E-17
5.583706E+03	2.532342E-16	1.533592E-17
5.593641E+03	2.548010E-16	1.540754E-17
5.603577E+03	2.563950E-16	1.548063E-17
5.613512E+03	2.580228E-16	1.555556E-17
5.623448E+03	2.596834E-16	1.563229E-17
5.633383E+03	2.613835E-16	1.571119E-17
5.643318E+03	2.631271E-16	1.579252E-17
5.653254E+03	2.649131E-16	1.587618E-17
5.663189E+03	2.667453E-16	1.596240E-17
5.673125E+03	2.686300E-16	1.605155E-17
5.683060E+03	2.705654E-16	1.614350E-17
5.692996E+03	2.725547E-16	1.623844E-17
5.702931E+03	2.745982E-16	1.633638E-17
5.712866E+03	2.766985E-16	1.643745E-17
5.722802E+03	2.788577E-16	1.654178E-17
5.732737E+03	2.810722E-16	1.664913E-17
5.742673E+03	2.833463E-16	1.675975E-17
5.752608E+03	2.856753E-16	1.687336E-17
5.762543E+03	2.880598E-16	1.698996E-17
5.772479E+03	2.904995E-16	1.710956E-17
5.782414E+03	2.929886E-16	1.723177E-17
5.792350E+03	2.955287E-16	1.735670E-17
5.802285E+03	2.981127E-16	1.748392E-17
5.812221E+03	3.007386E-16	1.761331E-17
5.822156E+03	3.034039E-16	1.774471E-17
5.832091E+03	3.061000E-16	1.787761E-17
5.842027E+03	3.088238E-16	1.801184E-17
5.851962E+03	3.115688E-16	1.814701E-17
5.861898E+03	3.143310E-16	1.828290E-17
5.871833E+03	3.171008E-16	1.841894E-17
5.881769E+03	3.198766E-16	1.855504E-17
5.891704E+03	3.226516E-16	1.869082E-17
5.901639E+03	3.254154E-16	1.882568E-17
5.911575E+03	3.281670E-16	1.895957E-17
5.921510E+03	3.308996E-16	1.909210E-17
5.931446E+03	3.336033E-16	1.922272E-17
5.941381E+03	3.362781E-16	1.935144E-17
5.951316E+03	3.389179E-16	1.947792E-17
5.961252E+03	3.415172E-16	1.960186E-17
5.971187E+03	3.440744E-16	1.972319E-17
5.981123E+03	3.465818E-16	1.984146E-17
5.991058E+03	3.490418E-16	1.995686E-17
6.000994E+03	3.514516E-16	2.006922E-17
6.010929E+03	3.538085E-16	2.017841E-17
6.020864E+03	3.561139E-16	2.028453E-17
6.030800E+03	3.583667E-16	2.038754E-17
6.040735E+03	3.605695E-16	2.048759E-17
6.050671E+03	3.627227E-16	2.058473E-17
6.060606E+03	3.648333E-16	2.067938E-17
6.070541E+03	3.668960E-16	2.077124E-17
6.080477E+03	3.689227E-16	2.086101E-17
6.090412E+03	3.709088E-16	2.094845E-17
6.100348E+03	3.728703E-16	2.103446E-17
6.110283E+03	3.748002E-16	2.111866E-17
6.120219E+03	3.767117E-16	2.120182E-17
6.130154E+03	3.786116E-16	2.128432E-17
6.140089E+03	3.804966E-16	2.136599E-17
6.150025E+03	3.823839E-16	2.144781E-17
6.159960E+03	3.842702E-16	2.152959E-17
6.169896E+03	3.861656E-16	2.161191E-17
6.179831E+03	3.880768E-16	2.169514E-17
6.189767E+03	3.900065E-16	2.177945E-17
6.199702E+03	3.919641E-16	2.186537E-17
6.209637E+03	3.939553E-16	2.195321E-17
6.219573E+03	3.959851E-16	2.204325E-17
6.229508E+03	3.980650E-16	2.213614E-17
6.239444E+03	4.002101E-16	2.223271E-17
6.249379E+03	4.024236E-16	2.233314E-17
6.259314E+03	4.047154E-16	2.243798E-17
6.269250E+03	4.070911E-16	2.254753E-17
6.279185E+03	4.095590E-16	2.266225E-17
6.289121E+03	4.121188E-16	2.278212E-17
6.299056E+03	4.147850E-16	2.290794E-17
6.308992E+03	4.175472E-16	2.303912E-17
6.318927E+03	4.204137E-16	2.317613E-17
6.328862E+03	4.233835E-16	2.331889E-17
6.338798E+03	4.264547E-16	2.346731E-17
6.348733E+03	4.296192E-16	2.362094E-17
6.358669E+03	4.328763E-16	2.377974E-17
6.368604E+03	4.362239E-16	2.394359E-17
6.378539E+03	4.396411E-16	2.411135E-17
6.388475E+03	4.431314E-16	2.428322E-17
6.398410E+03	4.466710E-16	2.445790E-17
6.408346E+03	4.502563E-16	2.463521E-17
6.418281E+03	4.538648E-16	2.481392E-17
6.428217E+03	4.574814E-16	2.499322E-17
6.438152E+03	4.610807E-16	2.517174E-17
6.448087E+03	4.646548E-16	2.534906E-17
6.458023E+03	4.681716E-16	2.552346E-17
6.467958E+03	4.716169E-16	2.569419E-17
6.477894E+03	4.749573E-16	2.585946E-17
6.487829E+03	4.781781E-16	2.601848E-17
6.497765E+03	4.812504E-16	2.616972E-17
6.507700E+03	4.841552E-16	2.631218E-17
6.517635E+03	4.868594E-16	2.644409E-17
6.527571E+03	4.893563E-16	2.656512E-17
6.537506E+03	4.916098E-16	2.667333E-17
6.547442E+03	4.936116E-16	2.676831E-17
6.557377E+03	4.953447E-16	2.684914E-17
6.567312E+03	4.967895E-16	2.691479E-17
6.577248E+03	4.979336E-16	2.696460E-17
6.587183E+03	4.987735E-16	2.699840E-17
6.597119E+03	4.993024E-16	2.701586E-17
6.607054E+03	4.995117E-16	2.701650E-17
6.616990E+03	4.994062E-16	2.700061E-17
6.626925E+03	4.989886E-16	2.696835E-17
6.636860E+03	4.982586E-16	2.691970E-17
6.646796E+03	4.972302E-16	2.685544E-17
6.656731E+03	4.959140E-16	2.677614E-17
6.666667E+03	4.943236E-16	2.668255E-17
6.676602E+03	4.924689E-16	2.657518E-17
6.686538E+03	4.903727E-16	2.645530E-17
6.696473E+03	4.880543E-16	2.632391E-17
6.706408E+03	4.855340E-16	2.618212E-17
6.716344E+03	4.828278E-16	2.603079E-17
6.726279E+03	4.799635E-16	2.587141E-17
6.736215E+03	4.769636E-16	2.570518E-17
6.746150E+03	4.738459E-16	2.553305E-17
6.756085E+03	4.706383E-16	2.535652E-17
6.766021E+03	4.673635E-16	2.517679E-17
6.775956E+03	4.640380E-16	2.499475E-17
6.785892E+03	4.606884E-16	2.481181E-17
6.795827E+03	4.573297E-16	2.462877E-17
6.805763E+03	4.539814E-16	2.444666E-17
6.815698E+03	4.506669E-16	2.426675E-17
6.825633E+03	4.473928E-16	2.408936E-17
6.835569E+03	4.441855E-16	2.391590E-17
6.845504E+03	4.410539E-16	2.374685E-17
6.855440E+03	4.380115E-16	2.358292E-17
6.865375E+03	4.350647E-16	2.342444E-17
6.875310E+03	4.322343E-16	2.327253E-17
6.885246E+03	4.295142E-16	2.312683E-17
6.895181E+03	4.269276E-16	2.298862E-17
6.905117E+03	4.244710E-16	2.285766E-17
6.915052E+03	4.221498E-16	2.273426E-17
6.924988E+03	4.199737E-16	2.261893E-17
6.934923E+03	4.179357E-16	2.251129E-17
6.944858E+03	4.160482E-16	2.241199E-17
6.954794E+03	4.143075E-16	2.232084E-17
6.964729E+03	4.127090E-16	2.223758E-17
6.974665E+03	4.112623E-16	2.216274E-17
6.984600E+03	4.099511E-16	2.209542E-17
6.994536E+03	4.087886E-16	2.203634E-17
7.004471E+03	4.077570E-16	2.198453E-17
7.014406E+03	4.068630E-16	2.194036E-17
7.024342E+03	4.061028E-16	2.190363E-17
7.034277E+03	4.054618E-16	2.187355E-17
7.044213E+03	4.049401E-16	2.185011E-17
7.054148E+03	4.045323E-16	2.183304E-17
7.064083E+03	4.042326E-16	2.182202E-17
7.074019E+03	4.040345E-16	2.181669E-17
7.083954E+03	4.039265E-16	2.181645E-17
7.093890E+03	4.039066E-16	2.182119E-17
7.103825E+03	4.039625E-16	2.183023E-17
7.113761E+03	4.040866E-16	2.184319E-17
7.123696E+03	4.042712E-16	2.185962E-17
7.133631E+03	4.045084E-16	2.187913E-17
7.143567E+03	4.047951E-16	2.190153E-17
7.153502E+03	4.051131E-16	2.192585E-17
7.163438E+03	4.054591E-16	2.195190E-17
7.173373E+03	4.058197E-16	2.197897E-17
7.183308E+03	4.061920E-16	2.200689E-17
7.193244E+03	4.065677E-16	2.203522E-17
7.203179E+03	4.069337E-16	2.206325E-17
7.213115E+03	4.072822E-16	2.209054E-17
7.223050E+03	4.076055E-16	2.211670E-17
7.232986E+03	4.078964E-16	2.214131E-17
7.242921E+03	4.081477E-16	2.216400E-17
7.252856E+03	4.083533E-16	2.218441E-17
7.262792E+03	4.085067E-16	2.220221E-17
7.272727E+03	4.085973E-16	2.221681E-17
7.282663E+03	4.086251E-16	2.222820E-17
7.292598E+03	4.085803E-16	2.223585E-17
7.302534E+03	4.084645E-16	2.223984E-17
7.312469E+03	4.082636E-16	2.223939E-17
7.322404E+03	4.079856E-16	2.223494E-17
7.332340E+03	4.076180E-16	2.222580E-17
7.342275E+03	4.071650E-16	2.221219E-17
7.352211E+03	4.066204E-16	2.219377E-17
7.362146E+03	4.059899E-16	2.217084E-17
7.372081E+03	4.052687E-16	2.214312E-17
7.382017E+03	4.044529E-16	2.211041E-17
7.391952E+03	4.035554E-16	2.207338E-17
7.401888E+03	4.025624E-16	2.203130E-17
7.411823E+03	4.014879E-16	2.198490E-17
7.421759E+03	4.003246E-16	2.193379E-17
7.431694E+03	3.990822E-16	2.187848E-17
7.441629E+03	3.977703E-16	2.181950E-17
7.451565E+03	3.963885E-16	2.175681E-17
7.461500E+03	3.949471E-16	2.169098E-17
7.471436E+03	3.934513E-16	2.162228E-17
7.481371E+03	3.919120E-16	2.155130E-17
7.491307E+03	3.903398E-16	2.147863E-17
7.501242E+03	3.887347E-16	2.140426E-17
7.511177E+03	3.871019E-16	2.132848E-17
7.521113E+03	3.854575E-16	2.125215E-17
7.531048E+03	3.838008E-16	2.117526E-17
7.540984E+03	3.821367E-16	2.109807E-17
7.550919E+03	3.804750E-16	2.102110E-17
7.560854E+03	3.788143E-16	2.094430E-17
7.570790E+03	3.771691E-16	2.086845E-17
7.580725E+03	3.755373E-16	2.079344E-17
7.590661E+03	3.739216E-16	2.071944E-17
7.600596E+03	3.723302E-16	2.064687E-17
7.610532E+03	3.707592E-16	2.057556E-17
7.620467E+03	3.692156E-16	2.050587E-17
7.630402E+03	3.676951E-16	2.043757E-17
7.640338E+03	3.662088E-16	2.037129E-17
7.650273E+03	3.647513E-16	2.030672E-17
7.660209E+03	3.633222E-16	2.024385E-17
7.670144E+03	3.619257E-16	2.018292E-17
7.680079E+03	3.605498E-16	2.012326E-17
7.690015E+03	3.592087E-16	2.006567E-17
7.699950E+03	3.578897E-16	2.000945E-17
7.709886E+03	3.565898E-16	1.995442E-17
