#wls	flux	fluxerr
1.600000E+03	2.840378E-15	1.550139E-15
1.640000E+03	2.830077E-15	1.423953E-15
1.680000E+03	2.802701E-15	1.286515E-15
1.720000E+03	2.756565E-15	1.139978E-15
1.760000E+03	2.690322E-15	9.872081E-16
1.800000E+03	2.603956E-15	8.320152E-16
1.840000E+03	2.496851E-15	6.782749E-16
1.880000E+03	2.370882E-15	5.307019E-16
1.920000E+03	2.227573E-15	3.936775E-16
1.960000E+03	2.070996E-15	2.716844E-16
2.000000E+03	1.908433E-15	1.690793E-16
2.040000E+03	1.750579E-15	9.145278E-17
2.080000E+03	1.613279E-15	5.449455E-17
2.120000E+03	1.508487E-15	6.246181E-17
2.160000E+03	1.427754E-15	6.887645E-17
2.200000E+03	1.366183E-15	5.913071E-17
2.240000E+03	1.329137E-15	4.230227E-17
2.280000E+03	1.326981E-15	4.958495E-17
2.320000E+03	1.358121E-15	8.127372E-17
2.360000E+03	1.413031E-15	1.152160E-16
2.400000E+03	1.484886E-15	1.431905E-16
2.440000E+03	1.568278E-15	1.602033E-16
2.480000E+03	1.659246E-15	1.619232E-16
2.520000E+03	1.754846E-15	1.448013E-16
2.560000E+03	1.856080E-15	1.076788E-16
2.600000E+03	1.975666E-15	6.131691E-17
2.640000E+03	2.146912E-15	8.261290E-17
2.680000E+03	2.368878E-15	1.733812E-16
2.720000E+03	2.611044E-15	2.820005E-16
2.760000E+03	2.854646E-15	3.951815E-16
2.800000E+03	3.087725E-15	5.037671E-16
2.840000E+03	3.301649E-15	5.993635E-16
2.880000E+03	3.489339E-15	6.746710E-16
2.920000E+03	3.644367E-15	7.241470E-16
2.960000E+03	3.762008E-15	7.449497E-16
3.000000E+03	3.837387E-15	7.370887E-16
3.010000E+03	3.849379E-15	7.309988E-16
3.020000E+03	3.858644E-15	7.234247E-16
3.030000E+03	3.864886E-15	7.144089E-16
3.040000E+03	3.868346E-15	7.041030E-16
3.050000E+03	3.869012E-15	6.926159E-16
3.060000E+03	3.866628E-15	6.800181E-16
3.070000E+03	3.861720E-15	6.665201E-16
3.080000E+03	3.853811E-15	6.521551E-16
3.090000E+03	3.843452E-15	6.371295E-16
3.100000E+03	3.830217E-15	6.214776E-16
3.110000E+03	3.814688E-15	6.053906E-16
3.120000E+03	3.796971E-15	5.889663E-16
3.130000E+03	3.776965E-15	5.722557E-16
3.140000E+03	3.754838E-15	5.553363E-16
3.150000E+03	3.731011E-15	5.383031E-16
3.160000E+03	3.705693E-15	5.212001E-16
3.170000E+03	3.679115E-15	5.040565E-16
3.180000E+03	3.651533E-15	4.868886E-16
3.190000E+03	3.623217E-15	4.697018E-16
3.200000E+03	3.594454E-15	4.524925E-16
3.210000E+03	3.565744E-15	4.352762E-16
3.220000E+03	3.537186E-15	4.180140E-16
3.230000E+03	3.509483E-15	4.007388E-16
3.240000E+03	3.482556E-15	3.833932E-16
3.250000E+03	3.457114E-15	3.660149E-16
3.260000E+03	3.433118E-15	3.485664E-16
3.270000E+03	3.411476E-15	3.311188E-16
3.280000E+03	3.392203E-15	3.136628E-16
3.290000E+03	3.375901E-15	2.962622E-16
3.300000E+03	3.363041E-15	2.789851E-16
3.310000E+03	3.354333E-15	2.619410E-16
3.320000E+03	3.350227E-15	2.452457E-16
3.330000E+03	3.351618E-15	2.290839E-16
3.340000E+03	3.359505E-15	2.136855E-16
3.350000E+03	3.374659E-15	1.993063E-16
3.360000E+03	3.398154E-15	1.862417E-16
3.370000E+03	3.430545E-15	1.747122E-16
3.380000E+03	3.471917E-15	1.648189E-16
3.390000E+03	3.521725E-15	1.565688E-16
3.400000E+03	3.579120E-15	1.499103E-16
3.410000E+03	3.643107E-15	1.447293E-16
3.420000E+03	3.712339E-15	1.408876E-16
3.430000E+03	3.785598E-15	1.382664E-16
3.440000E+03	3.861524E-15	1.367446E-16
3.450000E+03	3.938923E-15	1.362396E-16
3.460000E+03	4.016590E-15	1.366924E-16
3.470000E+03	4.093132E-15	1.380126E-16
3.480000E+03	4.167218E-15	1.400865E-16
3.490000E+03	4.237170E-15	1.427487E-16
3.500000E+03	4.301436E-15	1.457751E-16
3.510000E+03	4.357961E-15	1.489097E-16
3.520000E+03	4.404754E-15	1.519093E-16
3.530000E+03	4.439652E-15	1.545267E-16
3.540000E+03	4.460757E-15	1.565712E-16
3.550000E+03	4.466063E-15	1.578995E-16
3.560000E+03	4.454235E-15	1.584075E-16
3.570000E+03	4.423874E-15	1.580331E-16
3.580000E+03	4.374387E-15	1.567768E-16
3.590000E+03	4.305592E-15	1.546447E-16
3.600000E+03	4.218200E-15	1.516952E-16
3.610000E+03	4.113081E-15	1.480043E-16
3.620000E+03	3.992577E-15	1.436750E-16
3.630000E+03	3.859046E-15	1.388184E-16
3.640000E+03	3.716021E-15	1.335912E-16
3.650000E+03	3.567325E-15	1.281316E-16
3.660000E+03	3.417309E-15	1.226026E-16
3.670000E+03	3.270323E-15	1.171718E-16
3.680000E+03	3.130944E-15	1.119914E-16
3.690000E+03	3.003105E-15	1.071987E-16
3.700000E+03	2.890619E-15	1.029331E-16
3.710000E+03	2.796666E-15	9.929294E-17
3.720000E+03	2.723990E-15	9.636965E-17
3.730000E+03	2.674891E-15	9.424720E-17
3.740000E+03	2.651185E-15	9.297731E-17
3.750000E+03	2.654439E-15	9.261086E-17
3.760000E+03	2.686095E-15	9.319941E-17
3.770000E+03	2.747447E-15	9.476930E-17
3.780000E+03	2.839860E-15	9.735478E-17
3.790000E+03	2.964436E-15	1.009870E-16
3.800000E+03	3.122258E-15	1.056757E-16
3.810000E+03	3.314034E-15	1.114266E-16
3.820000E+03	3.539954E-15	1.182397E-16
3.830000E+03	3.799430E-15	1.260700E-16
3.840000E+03	4.090725E-15	1.348506E-16
3.850000E+03	4.410988E-15	1.444989E-16
3.860000E+03	4.755902E-15	1.548611E-16
3.870000E+03	5.119819E-15	1.657607E-16
3.880000E+03	5.495398E-15	1.769876E-16
3.890000E+03	5.874541E-15	1.882634E-16
3.900000E+03	6.248106E-15	1.992837E-16
3.910000E+03	6.606810E-15	2.097431E-16
3.920000E+03	6.941840E-15	2.192750E-16
3.930000E+03	7.245465E-15	2.275527E-16
3.940000E+03	7.511245E-15	2.343269E-16
3.950000E+03	7.735050E-15	2.393967E-16
3.960000E+03	7.914299E-15	2.426801E-16
3.970000E+03	8.048787E-15	2.442456E-16
3.980000E+03	8.139375E-15	2.441795E-16
3.990000E+03	8.188836E-15	2.426923E-16
4.000000E+03	8.200591E-15	2.400430E-16
4.010000E+03	8.178914E-15	2.364193E-16
4.020000E+03	8.128403E-15	2.320336E-16
4.030000E+03	8.053833E-15	2.271079E-16
4.040000E+03	7.959901E-15	2.217518E-16
4.050000E+03	7.851645E-15	2.161110E-16
4.060000E+03	7.733804E-15	2.103457E-16
4.070000E+03	7.611362E-15	2.045299E-16
4.080000E+03	7.488916E-15	1.987711E-16
4.090000E+03	7.370673E-15	1.932014E-16
4.100000E+03	7.259774E-15	1.878368E-16
4.110000E+03	7.158794E-15	1.827307E-16
4.120000E+03	7.068754E-15	1.779387E-16
4.130000E+03	6.989120E-15	1.733945E-16
4.140000E+03	6.918369E-15	1.690693E-16
4.150000E+03	6.853958E-15	1.649575E-16
4.160000E+03	6.792351E-15	1.609400E-16
4.170000E+03	6.729949E-15	1.569585E-16
4.180000E+03	6.663733E-15	1.530019E-16
4.190000E+03	6.591450E-15	1.489520E-16
4.200000E+03	6.511829E-15	1.447607E-16
4.210000E+03	6.424452E-15	1.404333E-16
4.220000E+03	6.329723E-15	1.358682E-16
4.230000E+03	6.228888E-15	1.310484E-16
4.240000E+03	6.123546E-15	1.260313E-16
4.250000E+03	6.015608E-15	1.207900E-16
4.260000E+03	5.907421E-15	1.154009E-16
4.270000E+03	5.801902E-15	1.100100E-16
4.280000E+03	5.702585E-15	1.046509E-16
4.290000E+03	5.613176E-15	9.944396E-17
4.300000E+03	5.537430E-15	9.453555E-17
4.310000E+03	5.479149E-15	8.988250E-17
4.320000E+03	5.441392E-15	8.552524E-17
4.330000E+03	5.426276E-15	8.157184E-17
4.340000E+03	5.433795E-15	7.793694E-17
4.350000E+03	5.463099E-15	7.471829E-17
4.360000E+03	5.511936E-15	7.220930E-17
4.370000E+03	5.576446E-15	7.055743E-17
4.380000E+03	5.653005E-15	7.009911E-17
4.390000E+03	5.739804E-15	7.124394E-17
4.400000E+03	5.835790E-15	7.390651E-17
4.410000E+03	5.941340E-15	7.789842E-17
4.420000E+03	6.058572E-15	8.301350E-17
4.430000E+03	6.190510E-15	8.874818E-17
4.440000E+03	6.340366E-15	9.485965E-17
4.450000E+03	6.511609E-15	1.013992E-16
4.460000E+03	6.707111E-15	1.082323E-16
4.470000E+03	6.928771E-15	1.153745E-16
4.480000E+03	7.176197E-15	1.229810E-16
4.490000E+03	7.445634E-15	1.309034E-16
4.500000E+03	7.730078E-15	1.390193E-16
4.510000E+03	8.020092E-15	1.473080E-16
4.520000E+03	8.304273E-15	1.554867E-16
4.530000E+03	8.569659E-15	1.633305E-16
4.540000E+03	8.805071E-15	1.707653E-16
4.550000E+03	9.002032E-15	1.775005E-16
4.560000E+03	9.155683E-15	1.833774E-16
4.570000E+03	9.263749E-15	1.884143E-16
4.580000E+03	9.326962E-15	1.924766E-16
4.590000E+03	9.348015E-15	1.955604E-16
4.600000E+03	9.330298E-15	1.977968E-16
4.610000E+03	9.276839E-15	1.991117E-16
4.620000E+03	9.190191E-15	1.995086E-16
4.630000E+03	9.072830E-15	1.991105E-16
4.640000E+03	8.926479E-15	1.978731E-16
4.650000E+03	8.752835E-15	1.958457E-16
4.660000E+03	8.554056E-15	1.931761E-16
4.670000E+03	8.332861E-15	1.898604E-16
4.680000E+03	8.092945E-15	1.859784E-16
4.690000E+03	7.838933E-15	1.816929E-16
4.700000E+03	7.577188E-15	1.770579E-16
4.710000E+03	7.314795E-15	1.722056E-16
4.720000E+03	7.059219E-15	1.673538E-16
4.730000E+03	6.818337E-15	1.626364E-16
4.740000E+03	6.599476E-15	1.582438E-16
4.750000E+03	6.409462E-15	1.544173E-16
4.760000E+03	6.253792E-15	1.512755E-16
4.770000E+03	6.137390E-15	1.489717E-16
4.780000E+03	6.063833E-15	1.476661E-16
4.790000E+03	6.035704E-15	1.473961E-16
4.800000E+03	6.054426E-15	1.482073E-16
4.810000E+03	6.120221E-15	1.501574E-16
4.820000E+03	6.231051E-15	1.531616E-16
4.830000E+03	6.383246E-15	1.571360E-16
4.840000E+03	6.571088E-15	1.619926E-16
4.850000E+03	6.786243E-15	1.674877E-16
4.860000E+03	7.017960E-15	1.733578E-16
4.870000E+03	7.254349E-15	1.793548E-16
4.880000E+03	7.483118E-15	1.851110E-16
4.890000E+03	7.692001E-15	1.902980E-16
4.900000E+03	7.870920E-15	1.946969E-16
4.910000E+03	8.012965E-15	1.980670E-16
4.920000E+03	8.115002E-15	2.003224E-16
4.930000E+03	8.177198E-15	2.015267E-16
4.940000E+03	8.203319E-15	2.017308E-16
4.950000E+03	8.200037E-15	2.011213E-16
4.960000E+03	8.175376E-15	1.999715E-16
4.970000E+03	8.137962E-15	1.984448E-16
4.980000E+03	8.096150E-15	1.967512E-16
4.990000E+03	8.057609E-15	1.951333E-16
5.000000E+03	8.027882E-15	1.936580E-16
5.010000E+03	8.011195E-15	1.924204E-16
5.020000E+03	8.010411E-15	1.915408E-16
5.030000E+03	8.026345E-15	1.909743E-16
5.040000E+03	8.059007E-15	1.907232E-16
5.050000E+03	8.108068E-15	1.908383E-16
5.060000E+03	8.172897E-15	1.912341E-16
5.070000E+03	8.253331E-15	1.918998E-16
5.080000E+03	8.349716E-15	1.928977E-16
5.090000E+03	8.462874E-15	1.941662E-16
5.100000E+03	8.594246E-15	1.957303E-16
5.110000E+03	8.745485E-15	1.976875E-16
5.120000E+03	8.917814E-15	1.999780E-16
5.130000E+03	9.112208E-15	2.026160E-16
5.140000E+03	9.328884E-15	2.056710E-16
5.150000E+03	9.566354E-15	2.090037E-16
5.160000E+03	9.822069E-15	2.125397E-16
5.170000E+03	1.009220E-14	2.162628E-16
5.180000E+03	1.037182E-14	2.199417E-16
5.190000E+03	1.065497E-14	2.234347E-16
5.200000E+03	1.093575E-14	2.267127E-16
5.210000E+03	1.120838E-14	2.295388E-16
5.220000E+03	1.146779E-14	2.318314E-16
5.230000E+03	1.170964E-14	2.336396E-16
5.240000E+03	1.193101E-14	2.347691E-16
5.250000E+03	1.213026E-14	2.352018E-16
5.260000E+03	1.230733E-14	2.350794E-16
5.270000E+03	1.246365E-14	2.342602E-16
5.280000E+03	1.260249E-14	2.328215E-16
5.290000E+03	1.272905E-14	2.310263E-16
5.300000E+03	1.285078E-14	2.288177E-16
5.310000E+03	1.297660E-14	2.263859E-16
5.320000E+03	1.311545E-14	2.240842E-16
5.330000E+03	1.327502E-14	2.218029E-16
5.340000E+03	1.346128E-14	2.196523E-16
5.350000E+03	1.367525E-14	2.178223E-16
5.360000E+03	1.391095E-14	2.157952E-16
5.370000E+03	1.415654E-14	2.132438E-16
5.380000E+03	1.439713E-14	2.101297E-16
5.390000E+03	1.461636E-14	2.059046E-16
5.400000E+03	1.479717E-14	2.005360E-16
5.410000E+03	1.492686E-14	1.945048E-16
5.420000E+03	1.500060E-14	1.876903E-16
5.430000E+03	1.501716E-14	1.804100E-16
5.440000E+03	1.497834E-14	1.730899E-16
5.450000E+03	1.488991E-14	1.649464E-16
5.460000E+03	1.475903E-14	1.560265E-16
5.470000E+03	1.459161E-14	1.476097E-16
5.480000E+03	1.439357E-14	1.406642E-16
5.490000E+03	1.416868E-14	1.371577E-16
5.500000E+03	1.391439E-14	1.387257E-16
5.510000E+03	1.362266E-14	1.439193E-16
5.520000E+03	1.328253E-14	1.508378E-16
5.530000E+03	1.288653E-14	1.582154E-16
5.540000E+03	1.243487E-14	1.642771E-16
5.550000E+03	1.193613E-14	1.681641E-16
5.560000E+03	1.140858E-14	1.699743E-16
5.570000E+03	1.088061E-14	1.695963E-16
5.580000E+03	1.038326E-14	1.673267E-16
5.590000E+03	9.944166E-15	1.640051E-16
5.600000E+03	9.585350E-15	1.604435E-16
5.610000E+03	9.322986E-15	1.576506E-16
5.620000E+03	9.165197E-15	1.564467E-16
5.630000E+03	9.111957E-15	1.569376E-16
5.640000E+03	9.158503E-15	1.591968E-16
5.650000E+03	9.298663E-15	1.633712E-16
5.660000E+03	9.525112E-15	1.692007E-16
5.670000E+03	9.830175E-15	1.765522E-16
5.680000E+03	1.020597E-14	1.854814E-16
5.690000E+03	1.064368E-14	1.956864E-16
5.700000E+03	1.113366E-14	2.069706E-16
5.710000E+03	1.166399E-14	2.192837E-16
5.720000E+03	1.221968E-14	2.321549E-16
5.730000E+03	1.278364E-14	2.451829E-16
5.740000E+03	1.333821E-14	2.581697E-16
5.750000E+03	1.386784E-14	2.706314E-16
5.760000E+03	1.435935E-14	2.822977E-16
5.770000E+03	1.480245E-14	2.931641E-16
5.780000E+03	1.519179E-14	3.029320E-16
5.790000E+03	1.552531E-14	3.115163E-16
5.800000E+03	1.580230E-14	3.190689E-16
5.810000E+03	1.602217E-14	3.253629E-16
5.820000E+03	1.618440E-14	3.303577E-16
5.830000E+03	1.628811E-14	3.342418E-16
5.840000E+03	1.633344E-14	3.368783E-16
5.850000E+03	1.632078E-14	3.383309E-16
5.860000E+03	1.625257E-14	3.388813E-16
5.870000E+03	1.613419E-14	3.384376E-16
5.880000E+03	1.597254E-14	3.370513E-16
5.890000E+03	1.577654E-14	3.349507E-16
5.900000E+03	1.555574E-14	3.319774E-16
5.910000E+03	1.532041E-14	3.281386E-16
5.920000E+03	1.507889E-14	3.236585E-16
5.930000E+03	1.483810E-14	3.185691E-16
5.940000E+03	1.460298E-14	3.131069E-16
5.950000E+03	1.437658E-14	3.076400E-16
5.960000E+03	1.415980E-14	3.022055E-16
5.970000E+03	1.395269E-14	2.969636E-16
5.980000E+03	1.375533E-14	2.921524E-16
5.990000E+03	1.356844E-14	2.876526E-16
6.000000E+03	1.339256E-14	2.834560E-16
6.010000E+03	1.322828E-14	2.796926E-16
6.020000E+03	1.307520E-14	2.761918E-16
6.030000E+03	1.293156E-14	2.729046E-16
6.040000E+03	1.279395E-14	2.698612E-16
6.050000E+03	1.265602E-14	2.667118E-16
6.060000E+03	1.251035E-14	2.632115E-16
6.070000E+03	1.234971E-14	2.592879E-16
6.080000E+03	1.216785E-14	2.546808E-16
6.090000E+03	1.196071E-14	2.493552E-16
6.100000E+03	1.172735E-14	2.434657E-16
6.110000E+03	1.147125E-14	2.369846E-16
6.120000E+03	1.119863E-14	2.300733E-16
6.130000E+03	1.091780E-14	2.230468E-16
6.140000E+03	1.063854E-14	2.159923E-16
6.150000E+03	1.037110E-14	2.091492E-16
6.160000E+03	1.012446E-14	2.028324E-16
6.170000E+03	9.905796E-15	1.970601E-16
6.180000E+03	9.720870E-15	1.919663E-16
6.190000E+03	9.573575E-15	1.877587E-16
6.200000E+03	9.465087E-15	1.843430E-16
6.210000E+03	9.395170E-15	1.817378E-16
6.220000E+03	9.361597E-15	1.800043E-16
6.230000E+03	9.359945E-15	1.788434E-16
6.240000E+03	9.384380E-15	1.780426E-16
6.250000E+03	9.428141E-15	1.775106E-16
6.260000E+03	9.483026E-15	1.769055E-16
6.270000E+03	9.540280E-15	1.761114E-16
6.280000E+03	9.590236E-15	1.752636E-16
6.290000E+03	9.622893E-15	1.743823E-16
6.300000E+03	9.628754E-15	1.737632E-16
6.310000E+03	9.601782E-15	1.736449E-16
6.320000E+03	9.540839E-15	1.734682E-16
6.330000E+03	9.449563E-15	1.726441E-16
6.340000E+03	9.336405E-15	1.710464E-16
6.350000E+03	9.214368E-15	1.687145E-16
6.360000E+03	9.098921E-15	1.660744E-16
6.370000E+03	9.003614E-15	1.636231E-16
6.380000E+03	8.939039E-15	1.613762E-16
6.390000E+03	8.912512E-15	1.593333E-16
6.400000E+03	8.927569E-15	1.575996E-16
6.410000E+03	8.982858E-15	1.560416E-16
6.420000E+03	9.074316E-15	1.547053E-16
6.430000E+03	9.196273E-15	1.537092E-16
6.440000E+03	9.343256E-15	1.527514E-16
6.450000E+03	9.509292E-15	1.516158E-16
6.460000E+03	9.688867E-15	1.502364E-16
6.470000E+03	9.876711E-15	1.481511E-16
6.480000E+03	1.006788E-14	1.451209E-16
6.490000E+03	1.025772E-14	1.414032E-16
6.500000E+03	1.044222E-14	1.373402E-16
6.510000E+03	1.061762E-14	1.340374E-16
6.520000E+03	1.078130E-14	1.334581E-16
6.530000E+03	1.093239E-14	1.370445E-16
6.540000E+03	1.107076E-14	1.450451E-16
6.550000E+03	1.119649E-14	1.564249E-16
6.560000E+03	1.131082E-14	1.693142E-16
6.570000E+03	1.141503E-14	1.823007E-16
6.580000E+03	1.150967E-14	1.946550E-16
6.590000E+03	1.159415E-14	2.058072E-16
6.600000E+03	1.166706E-14	2.156200E-16
6.610000E+03	1.172524E-14	2.242077E-16
6.620000E+03	1.176425E-14	2.314255E-16
6.630000E+03	1.177907E-14	2.372347E-16
6.640000E+03	1.176500E-14	2.417416E-16
6.650000E+03	1.171862E-14	2.448635E-16
6.660000E+03	1.163811E-14	2.466849E-16
6.670000E+03	1.152318E-14	2.474545E-16
6.680000E+03	1.137668E-14	2.472813E-16
6.690000E+03	1.120325E-14	2.464326E-16
6.700000E+03	1.100951E-14	2.453154E-16
6.710000E+03	1.080398E-14	2.441336E-16
6.720000E+03	1.059628E-14	2.431537E-16
6.730000E+03	1.039529E-14	2.426204E-16
6.740000E+03	1.020868E-14	2.424333E-16
6.750000E+03	1.004273E-14	2.424776E-16
6.760000E+03	9.902026E-15	2.427565E-16
6.770000E+03	9.788746E-15	2.431884E-16
6.780000E+03	9.704141E-15	2.438039E-16
6.790000E+03	9.647937E-15	2.446862E-16
6.800000E+03	9.619460E-15	2.457764E-16
6.810000E+03	9.617087E-15	2.470377E-16
6.820000E+03	9.638255E-15	2.484775E-16
6.830000E+03	9.680091E-15	2.500016E-16
6.840000E+03	9.738677E-15	2.515720E-16
6.850000E+03	9.809892E-15	2.532344E-16
6.860000E+03	9.888884E-15	2.549324E-16
6.870000E+03	9.970807E-15	2.566928E-16
6.880000E+03	1.005132E-14	2.585997E-16
6.890000E+03	1.012719E-14	2.605986E-16
6.900000E+03	1.019574E-14	2.626853E-16
6.910000E+03	1.025525E-14	2.649251E-16
6.920000E+03	1.030484E-14	2.672524E-16
6.930000E+03	1.034431E-14	2.696710E-16
6.940000E+03	1.037310E-14	2.722314E-16
6.950000E+03	1.039116E-14	2.748432E-16
6.960000E+03	1.039805E-14	2.774426E-16
6.970000E+03	1.039396E-14	2.800272E-16
6.980000E+03	1.038005E-14	2.824636E-16
6.990000E+03	1.035757E-14	2.846516E-16
7.000000E+03	1.032856E-14	2.865708E-16
7.010000E+03	1.029513E-14	2.880968E-16
7.020000E+03	1.025952E-14	2.891771E-16
7.030000E+03	1.022394E-14	2.898644E-16
7.040000E+03	1.019042E-14	2.901691E-16
7.050000E+03	1.016121E-14	2.902013E-16
7.060000E+03	1.013743E-14	2.901071E-16
7.070000E+03	1.011989E-14	2.899281E-16
7.080000E+03	1.010835E-14	2.897167E-16
7.090000E+03	1.010204E-14	2.895395E-16
7.100000E+03	1.009884E-14	2.893042E-16
7.110000E+03	1.009637E-14	2.889503E-16
7.120000E+03	1.009202E-14	2.884693E-16
7.130000E+03	1.008318E-14	2.877744E-16
7.140000E+03	1.006842E-14	2.868807E-16
7.150000E+03	1.004602E-14	2.858474E-16
7.160000E+03	1.001590E-14	2.846720E-16
7.170000E+03	9.978154E-15	2.833901E-16
7.180000E+03	9.934211E-15	2.820909E-16
7.190000E+03	9.885843E-15	2.807261E-16
7.200000E+03	9.835425E-15	2.792866E-16
7.210000E+03	9.785473E-15	2.778151E-16
7.220000E+03	9.737768E-15	2.762476E-16
7.230000E+03	9.694214E-15	2.745922E-16
7.240000E+03	9.655896E-15	2.729099E-16
7.250000E+03	9.623697E-15	2.711932E-16
7.260000E+03	9.597245E-15	2.694776E-16
7.270000E+03	9.576070E-15	2.678621E-16
7.280000E+03	9.558045E-15	2.663148E-16
7.290000E+03	9.541301E-15	2.648626E-16
7.300000E+03	9.522693E-15	2.635175E-16
7.310000E+03	9.499119E-15	2.621505E-16
7.320000E+03	9.466996E-15	2.606540E-16
7.330000E+03	9.423299E-15	2.589992E-16
7.340000E+03	9.365260E-15	2.570942E-16
7.350000E+03	9.291092E-15	2.549675E-16
7.360000E+03	9.199839E-15	2.527555E-16
7.370000E+03	9.091556E-15	2.505399E-16
7.380000E+03	8.968227E-15	2.485025E-16
7.390000E+03	8.832157E-15	2.468249E-16
7.400000E+03	8.687924E-15	2.455489E-16
7.410000E+03	8.540069E-15	2.446735E-16
7.420000E+03	8.393565E-15	2.441879E-16
7.430000E+03	8.252767E-15	2.439097E-16
7.440000E+03	8.121923E-15	2.436682E-16
7.450000E+03	8.003904E-15	2.433413E-16
7.460000E+03	7.900885E-15	2.427888E-16
7.470000E+03	7.814380E-15	2.419337E-16
7.480000E+03	7.744926E-15	2.407408E-16
7.490000E+03	7.692580E-15	2.391342E-16
7.500000E+03	7.656486E-15	2.370679E-16
7.510000E+03	7.635969E-15	2.345741E-16
7.520000E+03	7.629481E-15	2.316613E-16
7.530000E+03	7.635642E-15	2.284111E-16
7.540000E+03	7.652779E-15	2.249257E-16
7.550000E+03	7.679043E-15	2.212355E-16
7.560000E+03	7.712434E-15	2.174182E-16
7.570000E+03	7.750659E-15	2.136093E-16
7.580000E+03	7.791541E-15	2.099289E-16
7.590000E+03	7.832847E-15	2.065707E-16
7.600000E+03	7.872904E-15	2.037218E-16
7.610000E+03	7.910955E-15	2.013924E-16
7.620000E+03	7.946868E-15	1.995962E-16
7.630000E+03	7.981396E-15	1.983705E-16
7.640000E+03	8.015709E-15	1.976206E-16
7.650000E+03	8.051071E-15	1.973324E-16
7.660000E+03	8.088874E-15	1.975972E-16
7.670000E+03	8.129278E-15	1.984009E-16
7.680000E+03	8.172275E-15	1.998101E-16
7.690000E+03	8.216978E-15	2.018832E-16
7.700000E+03	8.262289E-15	2.044299E-16
7.710000E+03	8.306108E-15	2.071971E-16
7.720000E+03	8.346750E-15	2.099636E-16
7.730000E+03	8.382553E-15	2.123662E-16
7.740000E+03	8.411891E-15	2.141017E-16
7.750000E+03	8.433668E-15	2.150254E-16
7.760000E+03	8.446940E-15	2.150240E-16
