#wls	flux	fluxerr
1.600000E+03	1.192005E-15	6.984012E-16
1.640000E+03	1.232663E-15	6.735897E-16
1.680000E+03	1.272743E-15	6.434712E-16
1.720000E+03	1.311445E-15	6.077598E-16
1.760000E+03	1.348566E-15	5.666680E-16
1.800000E+03	1.382955E-15	5.202387E-16
1.840000E+03	1.413419E-15	4.689236E-16
1.880000E+03	1.438665E-15	4.136823E-16
1.920000E+03	1.456439E-15	3.559558E-16
1.960000E+03	1.464676E-15	2.983582E-16
2.000000E+03	1.461270E-15	2.448956E-16
2.040000E+03	1.443875E-15	2.008409E-16
2.080000E+03	1.412901E-15	1.709665E-16
2.120000E+03	1.369279E-15	1.542119E-16
2.160000E+03	1.316708E-15	1.436207E-16
2.200000E+03	1.260610E-15	1.340033E-16
2.240000E+03	1.206761E-15	1.263220E-16
2.280000E+03	1.160219E-15	1.242029E-16
2.320000E+03	1.122731E-15	1.276605E-16
2.360000E+03	1.093818E-15	1.324883E-16
2.400000E+03	1.072205E-15	1.340501E-16
2.440000E+03	1.056604E-15	1.291641E-16
2.480000E+03	1.045560E-15	1.159418E-16
2.520000E+03	1.036825E-15	9.335423E-17
2.560000E+03	1.028282E-15	6.143280E-17
2.600000E+03	1.020121E-15	2.430243E-17
2.640000E+03	1.017523E-15	3.495603E-17
2.680000E+03	1.018132E-15	7.876448E-17
2.720000E+03	1.017160E-15	1.210686E-16
2.760000E+03	1.014359E-15	1.592245E-16
2.800000E+03	1.011898E-15	1.926566E-16
2.840000E+03	1.011244E-15	2.212499E-16
2.880000E+03	1.014127E-15	2.452532E-16
2.920000E+03	1.021289E-15	2.648607E-16
2.960000E+03	1.033650E-15	2.803474E-16
3.000000E+03	1.051864E-15	2.918926E-16
3.010000E+03	1.057413E-15	2.941779E-16
3.020000E+03	1.063304E-15	2.962027E-16
3.030000E+03	1.069674E-15	2.980023E-16
3.040000E+03	1.076527E-15	2.995741E-16
3.050000E+03	1.083734E-15	3.008782E-16
3.060000E+03	1.091430E-15	3.019475E-16
3.070000E+03	1.099486E-15	3.027408E-16
3.080000E+03	1.108165E-15	3.033245E-16
3.090000E+03	1.117206E-15	3.036201E-16
3.100000E+03	1.126866E-15	3.036906E-16
3.110000E+03	1.136882E-15	3.034564E-16
3.120000E+03	1.147377E-15	3.029425E-16
3.130000E+03	1.158473E-15	3.021714E-16
3.140000E+03	1.169895E-15	3.010618E-16
3.150000E+03	1.181888E-15	2.996666E-16
3.160000E+03	1.194299E-15	2.979360E-16
3.170000E+03	1.207231E-15	2.958847E-16
3.180000E+03	1.220391E-15	2.934294E-16
3.190000E+03	1.233997E-15	2.906131E-16
3.200000E+03	1.248000E-15	2.874124E-16
3.210000E+03	1.262211E-15	2.837730E-16
3.220000E+03	1.276693E-15	2.796998E-16
3.230000E+03	1.291364E-15	2.751657E-16
3.240000E+03	1.306001E-15	2.701161E-16
3.250000E+03	1.320761E-15	2.645782E-16
3.260000E+03	1.335262E-15	2.584713E-16
3.270000E+03	1.349499E-15	2.517962E-16
3.280000E+03	1.363454E-15	2.445516E-16
3.290000E+03	1.376830E-15	2.366900E-16
3.300000E+03	1.389448E-15	2.281932E-16
3.310000E+03	1.401115E-15	2.190476E-16
3.320000E+03	1.411754E-15	2.092647E-16
3.330000E+03	1.421020E-15	1.988231E-16
3.340000E+03	1.428820E-15	1.877484E-16
3.350000E+03	1.434928E-15	1.760562E-16
3.360000E+03	1.439122E-15	1.637739E-16
3.370000E+03	1.441189E-15	1.509429E-16
3.380000E+03	1.440813E-15	1.376085E-16
3.390000E+03	1.438068E-15	1.238702E-16
3.400000E+03	1.432812E-15	1.098212E-16
3.410000E+03	1.424720E-15	9.556882E-17
3.420000E+03	1.413983E-15	8.129841E-17
3.430000E+03	1.400617E-15	6.724765E-17
3.440000E+03	1.384593E-15	5.379278E-17
3.450000E+03	1.366263E-15	4.163839E-17
3.460000E+03	1.345608E-15	3.217320E-17
3.470000E+03	1.323039E-15	2.779909E-17
3.480000E+03	1.298557E-15	2.997224E-17
3.490000E+03	1.272518E-15	3.663009E-17
3.500000E+03	1.245059E-15	4.495718E-17
3.510000E+03	1.216250E-15	5.342618E-17
3.520000E+03	1.186368E-15	6.137960E-17
3.530000E+03	1.155635E-15	6.854067E-17
3.540000E+03	1.124303E-15	7.480565E-17
3.550000E+03	1.092643E-15	8.015719E-17
3.560000E+03	1.060932E-15	8.462531E-17
3.570000E+03	1.029514E-15	8.827307E-17
3.580000E+03	9.986463E-16	9.117442E-17
3.590000E+03	9.685135E-16	9.340623E-17
3.600000E+03	9.394598E-16	9.506604E-17
3.610000E+03	9.115731E-16	9.622912E-17
3.620000E+03	8.851427E-16	9.699110E-17
3.630000E+03	8.602705E-16	9.742673E-17
3.640000E+03	8.370932E-16	9.761140E-17
3.650000E+03	8.157727E-16	9.762009E-17
3.660000E+03	7.964456E-16	9.752139E-17
3.670000E+03	7.791047E-16	9.736201E-17
3.680000E+03	7.638624E-16	9.719867E-17
3.690000E+03	7.508146E-16	9.708216E-17
3.700000E+03	7.399713E-16	9.704808E-17
3.710000E+03	7.314133E-16	9.713728E-17
3.720000E+03	7.251441E-16	9.737679E-17
3.730000E+03	7.212705E-16	9.780409E-17
3.740000E+03	7.197592E-16	9.843474E-17
3.750000E+03	7.207128E-16	9.929996E-17
3.760000E+03	7.241648E-16	1.004192E-16
3.770000E+03	7.301175E-16	1.018052E-16
3.780000E+03	7.386054E-16	1.034733E-16
3.790000E+03	7.497239E-16	1.054454E-16
3.800000E+03	7.634380E-16	1.077240E-16
3.810000E+03	7.798337E-16	1.103268E-16
3.820000E+03	7.988941E-16	1.132561E-16
3.830000E+03	8.206222E-16	1.165158E-16
3.840000E+03	8.450062E-16	1.201069E-16
3.850000E+03	8.720810E-16	1.240359E-16
3.860000E+03	9.017298E-16	1.282872E-16
3.870000E+03	9.338737E-16	1.328498E-16
3.880000E+03	9.684731E-16	1.377174E-16
3.890000E+03	1.005321E-15	1.428596E-16
3.900000E+03	1.044316E-15	1.482596E-16
3.910000E+03	1.085215E-15	1.538807E-16
3.920000E+03	1.127742E-15	1.596801E-16
3.930000E+03	1.171697E-15	1.656255E-16
3.940000E+03	1.216743E-15	1.716641E-16
3.950000E+03	1.262558E-15	1.777447E-16
3.960000E+03	1.308840E-15	1.838181E-16
3.970000E+03	1.355162E-15	1.898171E-16
3.980000E+03	1.401257E-15	1.956957E-16
3.990000E+03	1.446744E-15	2.013919E-16
4.000000E+03	1.491262E-15	2.068453E-16
4.010000E+03	1.534600E-15	2.120163E-16
4.020000E+03	1.576415E-15	2.168461E-16
4.030000E+03	1.616532E-15	2.212985E-16
4.040000E+03	1.654777E-15	2.253374E-16
4.050000E+03	1.690941E-15	2.289208E-16
4.060000E+03	1.725036E-15	2.320366E-16
4.070000E+03	1.756990E-15	2.346608E-16
4.080000E+03	1.786821E-15	2.367808E-16
4.090000E+03	1.814544E-15	2.383831E-16
4.100000E+03	1.840252E-15	2.394638E-16
4.110000E+03	1.864063E-15	2.400218E-16
4.120000E+03	1.886076E-15	2.400527E-16
4.130000E+03	1.906485E-15	2.395635E-16
4.140000E+03	1.925362E-15	2.385453E-16
4.150000E+03	1.942863E-15	2.369989E-16
4.160000E+03	1.959174E-15	2.349286E-16
4.170000E+03	1.974299E-15	2.323162E-16
4.180000E+03	1.988430E-15	2.291663E-16
4.190000E+03	2.001525E-15	2.254567E-16
4.200000E+03	2.013718E-15	2.211869E-16
4.210000E+03	2.024945E-15	2.163364E-16
4.220000E+03	2.035150E-15	2.108896E-16
4.230000E+03	2.044281E-15	2.048363E-16
4.240000E+03	2.052209E-15	1.981657E-16
4.250000E+03	2.058810E-15	1.908768E-16
4.260000E+03	2.063856E-15	1.829714E-16
4.270000E+03	2.067207E-15	1.744754E-16
4.280000E+03	2.068599E-15	1.654246E-16
4.290000E+03	2.067805E-15	1.558842E-16
4.300000E+03	2.064651E-15	1.459569E-16
4.310000E+03	2.058932E-15	1.357850E-16
4.320000E+03	2.050573E-15	1.255727E-16
4.330000E+03	2.039553E-15	1.155935E-16
4.340000E+03	2.025965E-15	1.062068E-16
4.350000E+03	2.010031E-15	9.786530E-17
4.360000E+03	1.992117E-15	9.109931E-17
4.370000E+03	1.972736E-15	8.645166E-17
4.380000E+03	1.952387E-15	8.434012E-17
4.390000E+03	1.931689E-15	8.490835E-17
4.400000E+03	1.911128E-15	8.794399E-17
4.410000E+03	1.891073E-15	9.296432E-17
4.420000E+03	1.871905E-15	9.939680E-17
4.430000E+03	1.853908E-15	1.067163E-16
4.440000E+03	1.837310E-15	1.145093E-16
4.450000E+03	1.822378E-15	1.224855E-16
4.460000E+03	1.809298E-15	1.304509E-16
4.470000E+03	1.798143E-15	1.382795E-16
4.480000E+03	1.788962E-15	1.458976E-16
4.490000E+03	1.781705E-15	1.532603E-16
4.500000E+03	1.776270E-15	1.603426E-16
4.510000E+03	1.772484E-15	1.671281E-16
4.520000E+03	1.770108E-15	1.736027E-16
4.530000E+03	1.768824E-15	1.797489E-16
4.540000E+03	1.768295E-15	1.855478E-16
4.550000E+03	1.768195E-15	1.909814E-16
4.560000E+03	1.768089E-15	1.960184E-16
4.570000E+03	1.767626E-15	2.006346E-16
4.580000E+03	1.766400E-15	2.047975E-16
4.590000E+03	1.764092E-15	2.084832E-16
4.600000E+03	1.760337E-15	2.116606E-16
4.610000E+03	1.754907E-15	2.143146E-16
4.620000E+03	1.747594E-15	2.164316E-16
4.630000E+03	1.738280E-15	2.180096E-16
4.640000E+03	1.726904E-15	2.190537E-16
4.650000E+03	1.713480E-15	2.195794E-16
4.660000E+03	1.698121E-15	2.196152E-16
4.670000E+03	1.681012E-15	2.191995E-16
4.680000E+03	1.662378E-15	2.183771E-16
4.690000E+03	1.642523E-15	2.172029E-16
4.700000E+03	1.621789E-15	2.157378E-16
4.710000E+03	1.600551E-15	2.140465E-16
4.720000E+03	1.579199E-15	2.121964E-16
4.730000E+03	1.558111E-15	2.102526E-16
4.740000E+03	1.537680E-15	2.082815E-16
4.750000E+03	1.518318E-15	2.063520E-16
4.760000E+03	1.500378E-15	2.045238E-16
4.770000E+03	1.484166E-15	2.028498E-16
4.780000E+03	1.469989E-15	2.013817E-16
4.790000E+03	1.458099E-15	2.001631E-16
4.800000E+03	1.448689E-15	1.992285E-16
4.810000E+03	1.441897E-15	1.986038E-16
4.820000E+03	1.437818E-15	1.983080E-16
4.830000E+03	1.436519E-15	1.983555E-16
4.840000E+03	1.438005E-15	1.987514E-16
4.850000E+03	1.442257E-15	1.994962E-16
4.860000E+03	1.449207E-15	2.005834E-16
4.870000E+03	1.458728E-15	2.019974E-16
4.880000E+03	1.470669E-15	2.037185E-16
4.890000E+03	1.484837E-15	2.057208E-16
4.900000E+03	1.501007E-15	2.079733E-16
4.910000E+03	1.518923E-15	2.104400E-16
4.920000E+03	1.538291E-15	2.130793E-16
4.930000E+03	1.558839E-15	2.158521E-16
4.940000E+03	1.580273E-15	2.187160E-16
4.950000E+03	1.602313E-15	2.216295E-16
4.960000E+03	1.624676E-15	2.245509E-16
4.970000E+03	1.647167E-15	2.274496E-16
4.980000E+03	1.669557E-15	2.302902E-16
4.990000E+03	1.691739E-15	2.330536E-16
5.000000E+03	1.713605E-15	2.357197E-16
5.010000E+03	1.735121E-15	2.382783E-16
5.020000E+03	1.756326E-15	2.407285E-16
5.030000E+03	1.777297E-15	2.430737E-16
5.040000E+03	1.798117E-15	2.453175E-16
5.050000E+03	1.819009E-15	2.474814E-16
5.060000E+03	1.840152E-15	2.495800E-16
5.070000E+03	1.861750E-15	2.516296E-16
5.080000E+03	1.884063E-15	2.536529E-16
5.090000E+03	1.907361E-15	2.556720E-16
5.100000E+03	1.931853E-15	2.576993E-16
5.110000E+03	1.957826E-15	2.597549E-16
5.120000E+03	1.985495E-15	2.618472E-16
5.130000E+03	2.015099E-15	2.639853E-16
5.140000E+03	2.046817E-15	2.661676E-16
5.150000E+03	2.080826E-15	2.683892E-16
5.160000E+03	2.117298E-15	2.706414E-16
5.170000E+03	2.156356E-15	2.729063E-16
5.180000E+03	2.198093E-15	2.751585E-16
5.190000E+03	2.242543E-15	2.773626E-16
5.200000E+03	2.289754E-15	2.794815E-16
5.210000E+03	2.339737E-15	2.814709E-16
5.220000E+03	2.392390E-15	2.832708E-16
5.230000E+03	2.447648E-15	2.848235E-16
5.240000E+03	2.505405E-15	2.860655E-16
5.250000E+03	2.565463E-15	2.869225E-16
5.260000E+03	2.627612E-15	2.873199E-16
5.270000E+03	2.691605E-15	2.871806E-16
5.280000E+03	2.757192E-15	2.864306E-16
5.290000E+03	2.824036E-15	2.849911E-16
5.300000E+03	2.891809E-15	2.827900E-16
5.310000E+03	2.960201E-15	2.797634E-16
5.320000E+03	3.028834E-15	2.758484E-16
5.330000E+03	3.097401E-15	2.709960E-16
5.340000E+03	3.165547E-15	2.651602E-16
5.350000E+03	3.233006E-15	2.583086E-16
5.360000E+03	3.299484E-15	2.504100E-16
5.370000E+03	3.364790E-15	2.414425E-16
5.380000E+03	3.428748E-15	2.313820E-16
5.390000E+03	3.491189E-15	2.201982E-16
5.400000E+03	3.552010E-15	2.078570E-16
5.410000E+03	3.611167E-15	1.943206E-16
5.420000E+03	3.668582E-15	1.795516E-16
5.430000E+03	3.724080E-15	1.635374E-16
5.440000E+03	3.777622E-15	1.463563E-16
5.450000E+03	3.828876E-15	1.282701E-16
5.460000E+03	3.877628E-15	1.099656E-16
5.470000E+03	3.923475E-15	9.298016E-17
5.480000E+03	3.966043E-15	8.037894E-17
5.490000E+03	4.004830E-15	7.666673E-17
5.500000E+03	4.039317E-15	8.453650E-17
5.510000E+03	4.068983E-15	1.018207E-16
5.520000E+03	4.093241E-15	1.244862E-16
5.530000E+03	4.111626E-15	1.496072E-16
5.540000E+03	4.123839E-15	1.754935E-16
5.550000E+03	4.129691E-15	2.011706E-16
5.560000E+03	4.129088E-15	2.260422E-16
5.570000E+03	4.122298E-15	2.497376E-16
5.580000E+03	4.109724E-15	2.720214E-16
5.590000E+03	4.091907E-15	2.927530E-16
5.600000E+03	4.069762E-15	3.118829E-16
5.610000E+03	4.044306E-15	3.294232E-16
5.620000E+03	4.016615E-15	3.454355E-16
5.630000E+03	3.988052E-15	3.600440E-16
5.640000E+03	3.959773E-15	3.733877E-16
5.650000E+03	3.933065E-15	3.856439E-16
5.660000E+03	3.909140E-15	3.970038E-16
5.670000E+03	3.889013E-15	4.076547E-16
5.680000E+03	3.873628E-15	4.177865E-16
5.690000E+03	3.863642E-15	4.275644E-16
5.700000E+03	3.859682E-15	4.371514E-16
5.710000E+03	3.862036E-15	4.466709E-16
5.720000E+03	3.870916E-15	4.562336E-16
5.730000E+03	3.886359E-15	4.659233E-16
5.740000E+03	3.908113E-15	4.757828E-16
5.750000E+03	3.935843E-15	4.858360E-16
5.760000E+03	3.969144E-15	4.960901E-16
5.770000E+03	4.007317E-15	5.065080E-16
5.780000E+03	4.049618E-15	5.170383E-16
5.790000E+03	4.095188E-15	5.276079E-16
5.800000E+03	4.143109E-15	5.381295E-16
5.810000E+03	4.192298E-15	5.484885E-16
5.820000E+03	4.241641E-15	5.585608E-16
5.830000E+03	4.289978E-15	5.682116E-16
5.840000E+03	4.336077E-15	5.772929E-16
5.850000E+03	4.378832E-15	5.856706E-16
5.860000E+03	4.417001E-15	5.931896E-16
5.870000E+03	4.449488E-15	5.997124E-16
5.880000E+03	4.475338E-15	6.051196E-16
5.890000E+03	4.493646E-15	6.092971E-16
5.900000E+03	4.503713E-15	6.121587E-16
5.910000E+03	4.505036E-15	6.136446E-16
5.920000E+03	4.497328E-15	6.137243E-16
5.930000E+03	4.480529E-15	6.123986E-16
5.940000E+03	4.454811E-15	6.097005E-16
5.950000E+03	4.420569E-15	6.056933E-16
5.960000E+03	4.378318E-15	6.004573E-16
5.970000E+03	4.328965E-15	5.941263E-16
5.980000E+03	4.273346E-15	5.868243E-16
5.990000E+03	4.212490E-15	5.787012E-16
6.000000E+03	4.147490E-15	5.699150E-16
6.010000E+03	4.079460E-15	5.606258E-16
6.020000E+03	4.009497E-15	5.509909E-16
6.030000E+03	3.938614E-15	5.411540E-16
6.040000E+03	3.867818E-15	5.312577E-16
6.050000E+03	3.797979E-15	5.214238E-16
6.060000E+03	3.729775E-15	5.117469E-16
6.070000E+03	3.663908E-15	5.023232E-16
6.080000E+03	3.600801E-15	4.932096E-16
6.090000E+03	3.540859E-15	4.844591E-16
6.100000E+03	3.484297E-15	4.760968E-16
6.110000E+03	3.431282E-15	4.681407E-16
6.120000E+03	3.381789E-15	4.605804E-16
6.130000E+03	3.335842E-15	4.534111E-16
6.140000E+03	3.293304E-15	4.466049E-16
6.150000E+03	3.254061E-15	4.401351E-16
6.160000E+03	3.217945E-15	4.339664E-16
6.170000E+03	3.184813E-15	4.280658E-16
6.180000E+03	3.154539E-15	4.224002E-16
6.190000E+03	3.126991E-15	4.169347E-16
6.200000E+03	3.102017E-15	4.116297E-16
6.210000E+03	3.079576E-15	4.064584E-16
6.220000E+03	3.059675E-15	4.013980E-16
6.230000E+03	3.042367E-15	3.964295E-16
6.240000E+03	3.027748E-15	3.915360E-16
6.250000E+03	3.015942E-15	3.867012E-16
6.260000E+03	3.007090E-15	3.819068E-16
6.270000E+03	3.001336E-15	3.771306E-16
6.280000E+03	2.998871E-15	3.723515E-16
6.290000E+03	2.999739E-15	3.675243E-16
6.300000E+03	3.004095E-15	3.626121E-16
6.310000E+03	3.011895E-15	3.575475E-16
6.320000E+03	3.023126E-15	3.522614E-16
6.330000E+03	3.037685E-15	3.466682E-16
6.340000E+03	3.055470E-15	3.406766E-16
6.350000E+03	3.076198E-15	3.341703E-16
6.360000E+03	3.099622E-15	3.270334E-16
6.370000E+03	3.125420E-15	3.191392E-16
6.380000E+03	3.153232E-15	3.103562E-16
6.390000E+03	3.182704E-15	3.005543E-16
6.400000E+03	3.213403E-15	2.895989E-16
6.410000E+03	3.244955E-15	2.773673E-16
6.420000E+03	3.276927E-15	2.637411E-16
6.430000E+03	3.308932E-15	2.486208E-16
6.440000E+03	3.340606E-15	2.319291E-16
6.450000E+03	3.371607E-15	2.136210E-16
6.460000E+03	3.401587E-15	1.936962E-16
6.470000E+03	3.430253E-15	1.722300E-16
6.480000E+03	3.457335E-15	1.494212E-16
6.490000E+03	3.482538E-15	1.256987E-16
6.500000E+03	3.505611E-15	1.019780E-16
6.510000E+03	3.526270E-15	8.029139E-17
6.520000E+03	3.544385E-15	6.510446E-17
6.530000E+03	3.559712E-15	6.319144E-17
6.540000E+03	3.572214E-15	7.607609E-17
6.550000E+03	3.581880E-15	9.767510E-17
6.560000E+03	3.588734E-15	1.227074E-16
6.570000E+03	3.592828E-15	1.486001E-16
6.580000E+03	3.594142E-15	1.741603E-16
6.590000E+03	3.592670E-15	1.987892E-16
6.600000E+03	3.588336E-15	2.221565E-16
6.610000E+03	3.581053E-15	2.440694E-16
6.620000E+03	3.570766E-15	2.644152E-16
6.630000E+03	3.557354E-15	2.831244E-16
6.640000E+03	3.540798E-15	3.001671E-16
6.650000E+03	3.521077E-15	3.155365E-16
6.660000E+03	3.498217E-15	3.292469E-16
6.670000E+03	3.472296E-15	3.413314E-16
6.680000E+03	3.443452E-15	3.518395E-16
6.690000E+03	3.411879E-15	3.608360E-16
6.700000E+03	3.377828E-15	3.683991E-16
6.710000E+03	3.341601E-15	3.746189E-16
6.720000E+03	3.303584E-15	3.795998E-16
6.730000E+03	3.264121E-15	3.834458E-16
6.740000E+03	3.223658E-15	3.862749E-16
6.750000E+03	3.182583E-15	3.882003E-16
6.760000E+03	3.141329E-15	3.893406E-16
6.770000E+03	3.100324E-15	3.898139E-16
6.780000E+03	3.060051E-15	3.897444E-16
6.790000E+03	3.020800E-15	3.892292E-16
6.800000E+03	2.983004E-15	3.883821E-16
6.810000E+03	2.946995E-15	3.873002E-16
6.820000E+03	2.913027E-15	3.860681E-16
6.830000E+03	2.881350E-15	3.847656E-16
6.840000E+03	2.852233E-15	3.834719E-16
6.850000E+03	2.825731E-15	3.822339E-16
6.860000E+03	2.802054E-15	3.811154E-16
6.870000E+03	2.781195E-15	3.801482E-16
6.880000E+03	2.763204E-15	3.793677E-16
6.890000E+03	2.748019E-15	3.787915E-16
6.900000E+03	2.735604E-15	3.784374E-16
6.910000E+03	2.725848E-15	3.783107E-16
6.920000E+03	2.718575E-15	3.784048E-16
6.930000E+03	2.713674E-15	3.787203E-16
6.940000E+03	2.710877E-15	3.792337E-16
6.950000E+03	2.709991E-15	3.799303E-16
6.960000E+03	2.710740E-15	3.807824E-16
6.970000E+03	2.712935E-15	3.817726E-16
6.980000E+03	2.716248E-15	3.828633E-16
6.990000E+03	2.720449E-15	3.840292E-16
7.000000E+03	2.725314E-15	3.852449E-16
7.010000E+03	2.730527E-15	3.864713E-16
7.020000E+03	2.735886E-15	3.876844E-16
7.030000E+03	2.741177E-15	3.888579E-16
7.040000E+03	2.746170E-15	3.899627E-16
7.050000E+03	2.750764E-15	3.909873E-16
7.060000E+03	2.754784E-15	3.919093E-16
7.070000E+03	2.758114E-15	3.927143E-16
7.080000E+03	2.760702E-15	3.933967E-16
7.090000E+03	2.762422E-15	3.939396E-16
7.100000E+03	2.763274E-15	3.943444E-16
7.110000E+03	2.763285E-15	3.946160E-16
7.120000E+03	2.762401E-15	3.947471E-16
7.130000E+03	2.760724E-15	3.947533E-16
7.140000E+03	2.758305E-15	3.946425E-16
7.150000E+03	2.755139E-15	3.944148E-16
7.160000E+03	2.751369E-15	3.940919E-16
7.170000E+03	2.747045E-15	3.936822E-16
7.180000E+03	2.742291E-15	3.932052E-16
7.190000E+03	2.737163E-15	3.926718E-16
7.200000E+03	2.731757E-15	3.920989E-16
7.210000E+03	2.726201E-15	3.915096E-16
7.220000E+03	2.720591E-15	3.909232E-16
7.230000E+03	2.714983E-15	3.903552E-16
7.240000E+03	2.709503E-15	3.898326E-16
7.250000E+03	2.704202E-15	3.893739E-16
7.260000E+03	2.699201E-15	3.890096E-16
7.270000E+03	2.694580E-15	3.887669E-16
7.280000E+03	2.690380E-15	3.886700E-16
7.290000E+03	2.686711E-15	3.887551E-16
7.300000E+03	2.683642E-15	3.890554E-16
7.310000E+03	2.681239E-15	3.896060E-16
7.320000E+03	2.679566E-15	3.904433E-16
7.330000E+03	2.678646E-15	3.915995E-16
7.340000E+03	2.678570E-15	3.931179E-16
7.350000E+03	2.679427E-15	3.950411E-16
7.360000E+03	2.681232E-15	3.974007E-16
7.370000E+03	2.683998E-15	4.002257E-16
7.380000E+03	2.687877E-15	4.035636E-16
7.390000E+03	2.692841E-15	4.074313E-16
7.400000E+03	2.698933E-15	4.118514E-16
7.410000E+03	2.706263E-15	4.168519E-16
7.420000E+03	2.714871E-15	4.224440E-16
7.430000E+03	2.724755E-15	4.286264E-16
7.440000E+03	2.736024E-15	4.354084E-16
7.450000E+03	2.748596E-15	4.427631E-16
7.460000E+03	2.762574E-15	4.506868E-16
7.470000E+03	2.777904E-15	4.591452E-16
7.480000E+03	2.794643E-15	4.681164E-16
7.490000E+03	2.812726E-15	4.775546E-16
7.500000E+03	2.832198E-15	4.874277E-16
7.510000E+03	2.853018E-15	4.976868E-16
7.520000E+03	2.875215E-15	5.082921E-16
7.530000E+03	2.898732E-15	5.191869E-16
7.540000E+03	2.923541E-15	5.303179E-16
7.550000E+03	2.949563E-15	5.416214E-16
7.560000E+03	2.976828E-15	5.530525E-16
7.570000E+03	3.005196E-15	5.645338E-16
7.580000E+03	3.034631E-15	5.760071E-16
7.590000E+03	3.065007E-15	5.873957E-16
7.600000E+03	3.096263E-15	5.986354E-16
7.610000E+03	3.128288E-15	6.096509E-16
7.620000E+03	3.160909E-15	6.203549E-16
7.630000E+03	3.193983E-15	6.306649E-16
7.640000E+03	3.227399E-15	6.405040E-16
7.650000E+03	3.260897E-15	6.497657E-16
7.660000E+03	3.294383E-15	6.583759E-16
7.670000E+03	3.327662E-15	6.662410E-16
7.680000E+03	3.360436E-15	6.732462E-16
7.690000E+03	3.392577E-15	6.793125E-16
7.700000E+03	3.423766E-15	6.843229E-16
7.710000E+03	3.453861E-15	6.881983E-16
7.720000E+03	3.482577E-15	6.908322E-16
7.730000E+03	3.509717E-15	6.921396E-16
7.740000E+03	3.534939E-15	6.920100E-16
7.750000E+03	3.558096E-15	6.903758E-16
7.760000E+03	3.578901E-15	6.871465E-16
