#wls	flux	fluxerr
1.592848E+03	2.404808E-03	2.854756E-05
1.632669E+03	2.483546E-03	2.934212E-05
1.672491E+03	2.568129E-03	3.019319E-05
1.712312E+03	2.659339E-03	3.110852E-05
1.752133E+03	2.757213E-03	3.208696E-05
1.791954E+03	2.862540E-03	3.313594E-05
1.831775E+03	2.975608E-03	3.425691E-05
1.871597E+03	3.097209E-03	3.545694E-05
1.911418E+03	3.227886E-03	3.673997E-05
1.951239E+03	3.368183E-03	3.810970E-05
1.991060E+03	3.518133E-03	3.956388E-05
2.030881E+03	3.678274E-03	4.110577E-05
2.070703E+03	3.848881E-03	4.273547E-05
2.110524E+03	4.029463E-03	4.444444E-05
2.150345E+03	4.219510E-03	4.622393E-05
2.190166E+03	4.417718E-03	4.805667E-05
2.229987E+03	4.622512E-03	4.992272E-05
2.269809E+03	4.833322E-03	5.181331E-05
2.309630E+03	5.050062E-03	5.372497E-05
2.349451E+03	5.275221E-03	5.568131E-05
2.389272E+03	5.511018E-03	5.770225E-05
2.429093E+03	5.759407E-03	5.980404E-05
2.468915E+03	6.022840E-03	6.200727E-05
2.508736E+03	6.302952E-03	6.432316E-05
2.548557E+03	6.600835E-03	6.675663E-05
2.588378E+03	6.918291E-03	6.931918E-05
2.628199E+03	7.255759E-03	7.200784E-05
2.668021E+03	7.614118E-03	7.482358E-05
2.707842E+03	7.993095E-03	7.775561E-05
2.747663E+03	8.393063E-03	8.079919E-05
2.787484E+03	8.813208E-03	8.393793E-05
2.827305E+03	9.253023E-03	8.715841E-05
2.867127E+03	9.712018E-03	9.044736E-05
2.906948E+03	1.018990E-02	9.379335E-05
2.946769E+03	1.068673E-02	9.718806E-05
2.986590E+03	1.120279E-02	1.006250E-04
2.996546E+03	1.133472E-02	1.014889E-04
3.006501E+03	1.146797E-02	1.023558E-04
3.016456E+03	1.160220E-02	1.032225E-04
3.026411E+03	1.173788E-02	1.040929E-04
3.036367E+03	1.187465E-02	1.049639E-04
3.046322E+03	1.201246E-02	1.058347E-04
3.056277E+03	1.215121E-02	1.067044E-04
3.066233E+03	1.229133E-02	1.075766E-04
3.076188E+03	1.243221E-02	1.084459E-04
3.086143E+03	1.257427E-02	1.093156E-04
3.096099E+03	1.271713E-02	1.101825E-04
3.106054E+03	1.286095E-02	1.110477E-04
3.116009E+03	1.300559E-02	1.119100E-04
3.125964E+03	1.315092E-02	1.127681E-04
3.135920E+03	1.329681E-02	1.136208E-04
3.145875E+03	1.344337E-02	1.144688E-04
3.155830E+03	1.359017E-02	1.153086E-04
3.165786E+03	1.373731E-02	1.161408E-04
3.175741E+03	1.388461E-02	1.169638E-04
3.185696E+03	1.403188E-02	1.177759E-04
3.195652E+03	1.417916E-02	1.185776E-04
3.205607E+03	1.432576E-02	1.193629E-04
3.215562E+03	1.447219E-02	1.201362E-04
3.225517E+03	1.461748E-02	1.208893E-04
3.235473E+03	1.476212E-02	1.216265E-04
3.245428E+03	1.490537E-02	1.223416E-04
3.255383E+03	1.504721E-02	1.230345E-04
3.265339E+03	1.518737E-02	1.237031E-04
3.275294E+03	1.532532E-02	1.243433E-04
3.285249E+03	1.546125E-02	1.249568E-04
3.295205E+03	1.559441E-02	1.255376E-04
3.305160E+03	1.572450E-02	1.260837E-04
3.315115E+03	1.585170E-02	1.265966E-04
3.325070E+03	1.597527E-02	1.270708E-04
3.335026E+03	1.609492E-02	1.275043E-04
3.344981E+03	1.621034E-02	1.278949E-04
3.354936E+03	1.632140E-02	1.282421E-04
3.364892E+03	1.642716E-02	1.285389E-04
3.374847E+03	1.652704E-02	1.287812E-04
3.384802E+03	1.662061E-02	1.289664E-04
3.394758E+03	1.670685E-02	1.290870E-04
3.404713E+03	1.678488E-02	1.291370E-04
3.414668E+03	1.685319E-02	1.291058E-04
3.424623E+03	1.691079E-02	1.289866E-04
3.434579E+03	1.695632E-02	1.287702E-04
3.444534E+03	1.698800E-02	1.284443E-04
3.454489E+03	1.700452E-02	1.280005E-04
3.464445E+03	1.700448E-02	1.274298E-04
3.474400E+03	1.698703E-02	1.267276E-04
3.484355E+03	1.695074E-02	1.258850E-04
3.494311E+03	1.689522E-02	1.249011E-04
3.504266E+03	1.681981E-02	1.237730E-04
3.514221E+03	1.672436E-02	1.225016E-04
3.524176E+03	1.660908E-02	1.210906E-04
3.534132E+03	1.647437E-02	1.195450E-04
3.544087E+03	1.632134E-02	1.178748E-04
3.554042E+03	1.615096E-02	1.160890E-04
3.563998E+03	1.596496E-02	1.142017E-04
3.573953E+03	1.576562E-02	1.122309E-04
3.583908E+03	1.555527E-02	1.101945E-04
3.593864E+03	1.533680E-02	1.081143E-04
3.603819E+03	1.511329E-02	1.060125E-04
3.613774E+03	1.488811E-02	1.039135E-04
3.623729E+03	1.466505E-02	1.018437E-04
3.633685E+03	2.058416E-02	1.422284E-04
3.634949E+03	2.029956E-02	1.401714E-04
3.636213E+03	2.002981E-02	1.382194E-04
3.637478E+03	1.976445E-02	1.363001E-04
3.638742E+03	1.951045E-02	1.344614E-04
3.640006E+03	1.925736E-02	1.326312E-04
3.641271E+03	1.898602E-02	1.306777E-04
3.642535E+03	1.869557E-02	1.285951E-04
3.643799E+03	1.841126E-02	1.265573E-04
3.645064E+03	1.814962E-02	1.246777E-04
3.646328E+03	1.790890E-02	1.229441E-04
3.647592E+03	1.768215E-02	1.213084E-04
3.648857E+03	1.746587E-02	1.197466E-04
3.650121E+03	1.727311E-02	1.183478E-04
3.651385E+03	1.711780E-02	1.172071E-04
3.652650E+03	1.699121E-02	1.162643E-04
3.653914E+03	1.686378E-02	1.153168E-04
3.655178E+03	1.671200E-02	1.142042E-04
3.656443E+03	1.654721E-02	1.130039E-04
3.657707E+03	1.639896E-02	1.119180E-04
3.658971E+03	1.628552E-02	1.110709E-04
3.660236E+03	1.619905E-02	1.104086E-04
3.661500E+03	1.611260E-02	1.097471E-04
3.662764E+03	1.600877E-02	1.089681E-04
3.664029E+03	1.590669E-02	1.082019E-04
3.665293E+03	1.584635E-02	1.077204E-04
3.666557E+03	1.583209E-02	1.075524E-04
3.667821E+03	1.583261E-02	1.074849E-04
3.669086E+03	1.582357E-02	1.073524E-04
3.670350E+03	1.580670E-02	1.071670E-04
3.671614E+03	1.577854E-02	1.069052E-04
3.672879E+03	1.573388E-02	1.065319E-04
3.674143E+03	1.568661E-02	1.061414E-04
3.675407E+03	1.566021E-02	1.058923E-04
3.676672E+03	1.565205E-02	1.057668E-04
3.677936E+03	1.564562E-02	1.056530E-04
3.679200E+03	1.562443E-02	1.054396E-04
3.680465E+03	1.558414E-02	1.050975E-04
3.681729E+03	1.554037E-02	1.047325E-04
3.682993E+03	1.551485E-02	1.044906E-04
3.684258E+03	1.550496E-02	1.043542E-04
3.685522E+03	1.550028E-02	1.042529E-04
3.686786E+03	1.549821E-02	1.041691E-04
3.688051E+03	1.550481E-02	1.041436E-04
3.689315E+03	1.551489E-02	1.041413E-04
3.690579E+03	1.552670E-02	1.041506E-04
3.691844E+03	1.554718E-02	1.042179E-04
3.693108E+03	1.557114E-02	1.043082E-04
3.694372E+03	1.558814E-02	1.043518E-04
3.695637E+03	1.559820E-02	1.043488E-04
3.696901E+03	1.560826E-02	1.043456E-04
3.698165E+03	1.561484E-02	1.043191E-04
3.699430E+03	1.561536E-02	1.042520E-04
3.700694E+03	1.561326E-02	1.041675E-04
3.701958E+03	1.561638E-02	1.041177E-04
3.703223E+03	1.561168E-02	1.040158E-04
3.704487E+03	1.558704E-02	1.037812E-04
3.705751E+03	1.553639E-02	1.033737E-04
3.707016E+03	1.546407E-02	1.028226E-04
3.708280E+03	1.537442E-02	1.021569E-04
3.709544E+03	1.528218E-02	1.014749E-04
3.710808E+03	1.519862E-02	1.008513E-04
3.712073E+03	1.512114E-02	1.002687E-04
3.713337E+03	1.503328E-02	9.961801E-05
3.714601E+03	1.492116E-02	9.880749E-05
3.715866E+03	1.478393E-02	9.783174E-05
3.717130E+03	1.463025E-02	9.674852E-05
3.718394E+03	1.446534E-02	9.559238E-05
3.719659E+03	1.429005E-02	9.436924E-05
3.720923E+03	1.410873E-02	9.310785E-05
3.722187E+03	1.392396E-02	9.182539E-05
3.723452E+03	1.373317E-02	9.050485E-05
3.724716E+03	1.352594E-02	8.907784E-05
3.725980E+03	1.330230E-02	8.754460E-05
3.727245E+03	1.307089E-02	8.596237E-05
3.728509E+03	1.283952E-02	8.438245E-05
3.729773E+03	1.259780E-02	8.273662E-05
3.731038E+03	1.232495E-02	8.088868E-05
3.732302E+03	1.207985E-02	7.922518E-05
3.733566E+03	1.185555E-02	7.770029E-05
3.734831E+03	1.163043E-02	7.617197E-05
3.736095E+03	1.138197E-02	7.449301E-05
3.737359E+03	1.110326E-02	7.261842E-05
3.738624E+03	1.080037E-02	7.058830E-05
3.739888E+03	1.050272E-02	6.859516E-05
3.741152E+03	1.026048E-02	6.696641E-05
3.742417E+03	1.009961E-02	6.587048E-05
3.743681E+03	9.990667E-03	6.511448E-05
3.744945E+03	9.878280E-03	6.433702E-05
3.746210E+03	9.716612E-03	6.323984E-05
3.747474E+03	9.492696E-03	6.173927E-05
3.748738E+03	9.248063E-03	6.010608E-05
3.750002E+03	9.018171E-03	5.857085E-05
3.751267E+03	8.810792E-03	5.718383E-05
3.752531E+03	8.621258E-03	5.591442E-05
3.753795E+03	8.472300E-03	5.490971E-05
3.755060E+03	8.372206E-03	5.422282E-05
3.756314E+03	8.276715E-03	5.356692E-05
3.757578E+03	8.120904E-03	5.252147E-05
3.758843E+03	7.890103E-03	5.099278E-05
3.760107E+03	7.629871E-03	4.927612E-05
3.761371E+03	7.417464E-03	4.787047E-05
3.762636E+03	7.311108E-03	4.715070E-05
3.763900E+03	7.279325E-03	4.691249E-05
3.765164E+03	7.240121E-03	4.662678E-05
3.766429E+03	7.170774E-03	4.614742E-05
3.767693E+03	7.089432E-03	4.559156E-05
3.768957E+03	7.017171E-03	4.509480E-05
3.770222E+03	6.948895E-03	4.462427E-05
3.771486E+03	6.892631E-03	4.423146E-05
3.772750E+03	6.872126E-03	4.406845E-05
3.774015E+03	6.906101E-03	4.425475E-05
3.775279E+03	6.997915E-03	4.481109E-05
3.776543E+03	7.112070E-03	4.550955E-05
3.777808E+03	7.179941E-03	4.591100E-05
3.779072E+03	7.191783E-03	4.595382E-05
3.780336E+03	7.208371E-03	4.602682E-05
3.781601E+03	7.278026E-03	4.643828E-05
3.782865E+03	7.397891E-03	4.716922E-05
3.784129E+03	7.542067E-03	4.805395E-05
3.785394E+03	7.666723E-03	4.881308E-05
3.786658E+03	7.749604E-03	4.930528E-05
3.787922E+03	7.791235E-03	4.953446E-05
3.789187E+03	7.828117E-03	4.973307E-05
3.790451E+03	7.882759E-03	5.004410E-05
3.791715E+03	7.976028E-03	5.059966E-05
3.792980E+03	8.122141E-03	5.148936E-05
3.794244E+03	8.289957E-03	5.251521E-05
3.795508E+03	8.423173E-03	5.332048E-05
3.796772E+03	8.524641E-03	5.392369E-05
3.798037E+03	8.653248E-03	5.469752E-05
3.799301E+03	8.848204E-03	5.588925E-05
3.800565E+03	9.076740E-03	5.729113E-05
3.801830E+03	9.277658E-03	5.851672E-05
3.803094E+03	9.412189E-03	5.932204E-05
3.804358E+03	9.493272E-03	5.978950E-05
3.805623E+03	9.564002E-03	6.019105E-05
3.806887E+03	9.646780E-03	6.066772E-05
3.808151E+03	9.738161E-03	6.119768E-05
3.809416E+03	9.825216E-03	6.169963E-05
3.810680E+03	9.914839E-03	6.221688E-05
3.811944E+03	1.002168E-02	6.284125E-05
3.813209E+03	1.015261E-02	6.361560E-05
3.814473E+03	1.030160E-02	6.450181E-05
3.815737E+03	1.044281E-02	6.533802E-05
3.817002E+03	1.055559E-02	6.599512E-05
3.818266E+03	1.064683E-02	6.651659E-05
3.819530E+03	1.074494E-02	6.708011E-05
3.820795E+03	1.086283E-02	6.776613E-05
3.822059E+03	1.099189E-02	6.852069E-05
3.823323E+03	1.110629E-02	6.918276E-05
3.824588E+03	1.121035E-02	6.977937E-05
3.825852E+03	1.131784E-02	7.039633E-05
3.827116E+03	1.142702E-02	7.102285E-05
3.828381E+03	1.151898E-02	7.154139E-05
3.829645E+03	1.159372E-02	7.195220E-05
3.830909E+03	1.166758E-02	7.235687E-05
3.832174E+03	1.174659E-02	7.279278E-05
3.833438E+03	1.183075E-02	7.325982E-05
3.834702E+03	1.193726E-02	7.386433E-05
3.835967E+03	1.207814E-02	7.468041E-05
3.837231E+03	1.223275E-02	7.558005E-05
3.838495E+03	1.237702E-02	7.641436E-05
3.839759E+03	1.251954E-02	7.723661E-05
3.841024E+03	1.268611E-02	7.820574E-05
3.842288E+03	1.288703E-02	7.938496E-05
3.843552E+03	1.309995E-02	8.063617E-05
3.844817E+03	1.330080E-02	8.181116E-05
3.846081E+03	1.348357E-02	8.287318E-05
3.847345E+03	1.367577E-02	8.399137E-05
3.848610E+03	1.390229E-02	8.531848E-05
3.849874E+03	1.415799E-02	8.682238E-05
3.851138E+03	1.440247E-02	8.825520E-05
3.852403E+03	1.461427E-02	8.948564E-05
3.853667E+03	1.481830E-02	9.066659E-05
3.854931E+03	1.505923E-02	9.207123E-05
3.856196E+03	1.535679E-02	9.381962E-05
3.857460E+03	1.568693E-02	9.576415E-05
3.858724E+03	1.600843E-02	9.765289E-05
3.859989E+03	1.629982E-02	9.935516E-05
3.861253E+03	1.658687E-02	1.010283E-04
3.862517E+03	1.688503E-02	1.027664E-04
3.863782E+03	1.720030E-02	1.046057E-04
3.865046E+03	1.753097E-02	1.065358E-04
3.866310E+03	1.789247E-02	1.086500E-04
3.867575E+03	1.828223E-02	1.109323E-04
3.868839E+03	1.867020E-02	1.132001E-04
3.870103E+03	1.904009E-02	1.153549E-04
3.871368E+03	1.939104E-02	1.173915E-04
3.872632E+03	1.974708E-02	1.194557E-04
3.873896E+03	2.012878E-02	1.216717E-04
3.875161E+03	2.053443E-02	1.240288E-04
3.876425E+03	2.095202E-02	1.264542E-04
3.877689E+03	2.138411E-02	1.289632E-04
3.878953E+03	2.182299E-02	1.315091E-04
3.880218E+03	2.226007E-02	1.340401E-04
3.881482E+03	2.269365E-02	1.365460E-04
3.882746E+03	2.314687E-02	1.391659E-04
3.884011E+03	2.361458E-02	1.418687E-04
3.885275E+03	2.407278E-02	1.445101E-04
3.886539E+03	2.452576E-02	1.471159E-04
3.887804E+03	2.499323E-02	1.498044E-04
3.889068E+03	2.547261E-02	1.525599E-04
3.890332E+03	2.594248E-02	1.552540E-04
3.891597E+03	2.639941E-02	1.578664E-04
3.892861E+03	2.685027E-02	1.604383E-04
3.894125E+03	2.729506E-02	1.629697E-04
3.895390E+03	2.772949E-02	1.654352E-04
3.896654E+03	2.815956E-02	1.678707E-04
3.897918E+03	2.859041E-02	1.703069E-04
3.899183E+03	2.902033E-02	1.727335E-04
3.900447E+03	2.945188E-02	1.751658E-04
3.901711E+03	2.989363E-02	1.776548E-04
3.902976E+03	3.034300E-02	1.801849E-04
3.904240E+03	3.078802E-02	1.826850E-04
3.905504E+03	3.120899E-02	1.850384E-04
3.906769E+03	3.161191E-02	1.872809E-04
3.908033E+03	3.201391E-02	1.895143E-04
3.909297E+03	3.242439E-02	1.917941E-04
3.910562E+03	3.283565E-02	1.940747E-04
3.911826E+03	3.324684E-02	1.963511E-04
3.913090E+03	3.366993E-02	1.986939E-04
3.914355E+03	3.410492E-02	2.011029E-04
3.915619E+03	3.453299E-02	2.034671E-04
3.916883E+03	3.494045E-02	2.057061E-04
3.918148E+03	3.533673E-02	2.078754E-04
3.919412E+03	3.572951E-02	2.100205E-04
3.920676E+03	3.611282E-02	2.121064E-04
3.921940E+03	3.646870E-02	2.140277E-04
3.923205E+03	3.679803E-02	2.157900E-04
3.924469E+03	3.711874E-02	2.174987E-04
3.925733E+03	3.744537E-02	2.192392E-04
3.926998E+03	3.777708E-02	2.210063E-04
3.928262E+03	3.809674E-02	2.226999E-04
3.929526E+03	3.838818E-02	2.242257E-04
3.930791E+03	3.865307E-02	2.255938E-04
3.932055E+03	3.890337E-02	2.268744E-04
3.933319E+03	3.914255E-02	2.280879E-04
3.934584E+03	3.937482E-02	2.292589E-04
3.935848E+03	3.959937E-02	2.303829E-04
3.937112E+03	3.980511E-02	2.313954E-04
3.938377E+03	3.997579E-02	2.322023E-04
3.939641E+03	4.011569E-02	2.328291E-04
3.940905E+03	4.024873E-02	2.334147E-04
3.942170E+03	4.039369E-02	2.340682E-04
3.943434E+03	4.055999E-02	2.348439E-04
3.944698E+03	4.073134E-02	2.356473E-04
3.945963E+03	4.087368E-02	2.362814E-04
3.947227E+03	4.096477E-02	2.366182E-04
3.948491E+03	4.102767E-02	2.367913E-04
3.949756E+03	4.109229E-02	2.369739E-04
3.951020E+03	4.116456E-02	2.371999E-04
3.952284E+03	4.123679E-02	2.374250E-04
3.953549E+03	4.131075E-02	2.376594E-04
3.954813E+03	4.138294E-02	2.378830E-04
3.956077E+03	4.144067E-02	2.380228E-04
3.957342E+03	4.147788E-02	2.380443E-04
3.958606E+03	4.151000E-02	2.380363E-04
3.959870E+03	4.154721E-02	2.380572E-04
3.961135E+03	4.157929E-02	2.380483E-04
3.962399E+03	4.160286E-02	2.379905E-04
3.963663E+03	4.162130E-02	2.379031E-04
3.964927E+03	4.164483E-02	2.378446E-04
3.966192E+03	4.165302E-02	2.376985E-04
3.967456E+03	4.162883E-02	2.373675E-04
3.968720E+03	4.158079E-02	2.369009E-04
3.969985E+03	4.154039E-02	2.364784E-04
3.971249E+03	4.151961E-02	2.361677E-04
3.972513E+03	4.150224E-02	2.358766E-04
3.973778E+03	4.146953E-02	2.354986E-04
3.975042E+03	4.143431E-02	2.351067E-04
3.976306E+03	4.141521E-02	2.348064E-04
3.977571E+03	4.140807E-02	2.345742E-04
3.978835E+03	4.137878E-02	2.342165E-04
3.980099E+03	4.130269E-02	2.335946E-04
3.981364E+03	4.119762E-02	2.328095E-04
3.982628E+03	4.109518E-02	2.320403E-04
3.983892E+03	4.101485E-02	2.313968E-04
3.985157E+03	4.094645E-02	2.308213E-04
3.986421E+03	4.087040E-02	2.302033E-04
3.987685E+03	4.077477E-02	2.294759E-04
3.988950E+03	4.066048E-02	2.286444E-04
3.990214E+03	4.054191E-02	2.277899E-04
3.991478E+03	4.042848E-02	2.269654E-04
3.992743E+03	4.031336E-02	2.261325E-04
3.994007E+03	4.018721E-02	2.252389E-04
3.995271E+03	4.005005E-02	2.242847E-04
3.996536E+03	3.991543E-02	2.233461E-04
3.997800E+03	3.979359E-02	2.224802E-04
3.999064E+03	3.966839E-02	2.215966E-04
4.000319E+03	3.951262E-02	2.205450E-04
4.001583E+03	3.932708E-02	2.193275E-04
4.002847E+03	3.913307E-02	2.180644E-04
4.004112E+03	3.894934E-02	2.168603E-04
4.005376E+03	3.878513E-02	2.157667E-04
4.006640E+03	3.863881E-02	2.147739E-04
4.007905E+03	3.849508E-02	2.137969E-04
4.009169E+03	3.833436E-02	2.127270E-04
4.010433E+03	3.814053E-02	2.114750E-04
4.011697E+03	3.792297E-02	2.100933E-04
4.012962E+03	3.770035E-02	2.086857E-04
4.014226E+03	3.747862E-02	2.072850E-04
4.015490E+03	3.724333E-02	2.058115E-04
4.016755E+03	3.698686E-02	2.042233E-04
4.018019E+03	3.673213E-02	2.026470E-04
4.019283E+03	3.650206E-02	2.012090E-04
4.020548E+03	3.628901E-02	1.998669E-04
4.021812E+03	3.607430E-02	1.985177E-04
4.023076E+03	3.585454E-02	1.971426E-04
4.024341E+03	3.562632E-02	1.957232E-04
4.025605E+03	3.538203E-02	1.942177E-04
4.026869E+03	3.512759E-02	1.926588E-04
4.028134E+03	3.486726E-02	1.910700E-04
4.029398E+03	3.460273E-02	1.894606E-04
4.030662E+03	3.433826E-02	1.878539E-04
4.031927E+03	3.408994E-02	1.863381E-04
4.033191E+03	3.386202E-02	1.849359E-04
4.034455E+03	3.364347E-02	1.835870E-04
4.035720E+03	3.342072E-02	1.822173E-04
4.036984E+03	3.318444E-02	1.807759E-04
4.038248E+03	3.292870E-02	1.792308E-04
4.039513E+03	3.265013E-02	1.775639E-04
4.040777E+03	3.234956E-02	1.757800E-04
4.042041E+03	3.203802E-02	1.739395E-04
4.043306E+03	3.173079E-02	1.721251E-04
4.044570E+03	3.144479E-02	1.704287E-04
4.045834E+03	3.118002E-02	1.688499E-04
4.047099E+03	3.091446E-02	1.672693E-04
4.048363E+03	3.062945E-02	1.655861E-04
4.049627E+03	3.033604E-02	1.638600E-04
4.050891E+03	3.005452E-02	1.622009E-04
4.052156E+03	2.979509E-02	1.606635E-04
4.053420E+03	2.954924E-02	1.592017E-04
4.054684E+03	2.929836E-02	1.577151E-04
4.055949E+03	2.902975E-02	1.561355E-04
4.057213E+03	2.874848E-02	1.544903E-04
4.058477E+03	2.847827E-02	1.529072E-04
4.059742E+03	2.821996E-02	1.513904E-04
4.061006E+03	2.795323E-02	1.498308E-04
4.062270E+03	2.766794E-02	1.481743E-04
4.063535E+03	2.737761E-02	1.464935E-04
4.064799E+03	2.710003E-02	1.448836E-04
4.066063E+03	2.683774E-02	1.433579E-04
4.067328E+03	2.658987E-02	1.419116E-04
4.068592E+03	2.635473E-02	1.405355E-04
4.069856E+03	2.612302E-02	1.391798E-04
4.071121E+03	2.588120E-02	1.377725E-04
4.072385E+03	2.563520E-02	1.363452E-04
4.073649E+03	2.540278E-02	1.349923E-04
4.074914E+03	2.518307E-02	1.337091E-04
4.076178E+03	2.496426E-02	1.324327E-04
4.077442E+03	2.474971E-02	1.311809E-04
4.078707E+03	2.455210E-02	1.300208E-04
4.079971E+03	2.436467E-02	1.289164E-04
4.081235E+03	2.417221E-02	1.277871E-04
4.082500E+03	2.397555E-02	1.266375E-04
4.083764E+03	2.378907E-02	1.255434E-04
4.085028E+03	2.361276E-02	1.245047E-04
4.086293E+03	2.344240E-02	1.234989E-04
4.087557E+03	2.327714E-02	1.225216E-04
4.088821E+03	2.311275E-02	1.215504E-04
4.090086E+03	2.294839E-02	1.205809E-04
4.091350E+03	2.278828E-02	1.196352E-04
4.092614E+03	2.264425E-02	1.187754E-04
4.093878E+03	2.252641E-02	1.180541E-04
4.095143E+03	2.242464E-02	1.174181E-04
4.096407E+03	2.232204E-02	1.167787E-04
4.097671E+03	2.220763E-02	1.160786E-04
4.098936E+03	2.209241E-02	1.153753E-04
4.100200E+03	2.198312E-02	1.147040E-04
4.101464E+03	2.188396E-02	1.140865E-04
4.102729E+03	2.180170E-02	1.135580E-04
4.103993E+03	2.175152E-02	1.131972E-04
4.105257E+03	2.171990E-02	1.129334E-04
4.106522E+03	2.167647E-02	1.126086E-04
4.107786E+03	2.160944E-02	1.121617E-04
4.109050E+03	2.154158E-02	1.117111E-04
4.110315E+03	2.149396E-02	1.113661E-04
4.111579E+03	2.145816E-02	1.110827E-04
4.112843E+03	2.141140E-02	1.107429E-04
4.114108E+03	2.135706E-02	1.103645E-04
4.115372E+03	2.130864E-02	1.100171E-04
4.116636E+03	2.127876E-02	1.097658E-04
4.117901E+03	2.126153E-02	1.095800E-04
4.119165E+03	2.124177E-02	1.093814E-04
4.120429E+03	2.120769E-02	1.091093E-04
4.121694E+03	2.116434E-02	1.087900E-04
4.122958E+03	2.112859E-02	1.085100E-04
4.124222E+03	2.110548E-02	1.082953E-04
4.125487E+03	2.108910E-02	1.081153E-04
4.126751E+03	2.107779E-02	1.079614E-04
4.128015E+03	2.107236E-02	1.078378E-04
4.129280E+03	2.107031E-02	1.077315E-04
4.130544E+03	2.106741E-02	1.076210E-04
4.131808E+03	2.106956E-02	1.075362E-04
4.133073E+03	2.108013E-02	1.074944E-04
4.134337E+03	2.109238E-02	1.074611E-04
4.135601E+03	2.110546E-02	1.074320E-04
4.136865E+03	2.112107E-02	1.074156E-04
4.138130E+03	2.113751E-02	1.074034E-04
4.139394E+03	2.115395E-02	1.073910E-04
4.140658E+03	2.117711E-02	1.074126E-04
4.141923E+03	2.120700E-02	1.074680E-04
4.143187E+03	2.123772E-02	1.075275E-04
4.144451E+03	2.126507E-02	1.075697E-04
4.145716E+03	2.128148E-02	1.075563E-04
4.146980E+03	2.128527E-02	1.074792E-04
4.148244E+03	2.129326E-02	1.074232E-04
4.149509E+03	2.131555E-02	1.074392E-04
4.150773E+03	2.135127E-02	1.075228E-04
4.152037E+03	2.138531E-02	1.075975E-04
4.153302E+03	2.141934E-02	1.076720E-04
