#wls	flux	fluxerr
1.592848E+03	4.068750E-05	1.637646E-05
1.632669E+03	4.189262E-05	1.674618E-05
1.672491E+03	4.313859E-05	1.712351E-05
1.712312E+03	4.443464E-05	1.751153E-05
1.752133E+03	4.577479E-05	1.790730E-05
1.791954E+03	4.716056E-05	1.831080E-05
1.831775E+03	4.860209E-05	1.872531E-05
1.871597E+03	5.008413E-05	1.914427E-05
1.911418E+03	5.162575E-05	1.957430E-05
1.951239E+03	5.322955E-05	2.001557E-05
1.991060E+03	5.487900E-05	2.046108E-05
2.030881E+03	5.659500E-05	2.091784E-05
2.070703E+03	5.837035E-05	2.138228E-05
2.110524E+03	6.021765E-05	2.185808E-05
2.150345E+03	6.212938E-05	2.234152E-05
2.190166E+03	6.410792E-05	2.283245E-05
2.229987E+03	6.615583E-05	2.333075E-05
2.269809E+03	6.828763E-05	2.384041E-05
2.309630E+03	7.050717E-05	2.436150E-05
2.349451E+03	7.279351E-05	2.488553E-05
2.389272E+03	7.517458E-05	2.542082E-05
2.429093E+03	7.764157E-05	2.596294E-05
2.468915E+03	8.021179E-05	2.651622E-05
2.508736E+03	8.287615E-05	2.707605E-05
2.548557E+03	8.563867E-05	2.764217E-05
2.588378E+03	8.851870E-05	2.821910E-05
2.628199E+03	9.150661E-05	2.880191E-05
2.668021E+03	9.460721E-05	2.939024E-05
2.707842E+03	9.784209E-05	2.998878E-05
2.747663E+03	1.012011E-04	3.059225E-05
2.787484E+03	1.047076E-04	3.120541E-05
2.827305E+03	1.083512E-04	3.182271E-05
2.867127E+03	1.121381E-04	3.244356E-05
2.906948E+03	1.160750E-04	3.306734E-05
2.946769E+03	1.201890E-04	3.369893E-05
2.986590E+03	1.244892E-04	3.433778E-05
2.996546E+03	1.255809E-04	3.449481E-05
3.006501E+03	1.266835E-04	3.465186E-05
3.016456E+03	1.278181E-04	3.481466E-05
3.026411E+03	1.289429E-04	3.497172E-05
3.036367E+03	1.300790E-04	3.512875E-05
3.046322E+03	1.312481E-04	3.529154E-05
3.056277E+03	1.324072E-04	3.544847E-05
3.066233E+03	1.336000E-04	3.561118E-05
3.076188E+03	1.347827E-04	3.576795E-05
3.086143E+03	1.359996E-04	3.593050E-05
3.096099E+03	1.372289E-04	3.609295E-05
3.106054E+03	1.384481E-04	3.624933E-05
3.116009E+03	1.397024E-04	3.641150E-05
3.125964E+03	1.409465E-04	3.656752E-05
3.135920E+03	1.422263E-04	3.672932E-05
3.145875E+03	1.435193E-04	3.689091E-05
3.155830E+03	1.448018E-04	3.704621E-05
3.165786E+03	1.461211E-04	3.720729E-05
3.175741E+03	1.474540E-04	3.736809E-05
3.185696E+03	1.487762E-04	3.752246E-05
3.195652E+03	1.501363E-04	3.768259E-05
3.205607E+03	1.515103E-04	3.784236E-05
3.215562E+03	1.528983E-04	3.800174E-05
3.225517E+03	1.542755E-04	3.815449E-05
3.235473E+03	1.556920E-04	3.831298E-05
3.245428E+03	1.571229E-04	3.847098E-05
3.255383E+03	1.585685E-04	3.862846E-05
3.265339E+03	1.600289E-04	3.878539E-05
3.275294E+03	1.615042E-04	3.894175E-05
3.285249E+03	1.629946E-04	3.909748E-05
3.295205E+03	1.644736E-04	3.924622E-05
3.305160E+03	1.659943E-04	3.940059E-05
3.315115E+03	1.675306E-04	3.955423E-05
3.325070E+03	1.690825E-04	3.970710E-05
3.335026E+03	1.706502E-04	3.985916E-05
3.344981E+03	1.722337E-04	4.001038E-05
3.354936E+03	1.738334E-04	4.016070E-05
3.364892E+03	1.754493E-04	4.031008E-05
3.374847E+03	1.770815E-04	4.045849E-05
3.384802E+03	1.787301E-04	4.060586E-05
3.394758E+03	1.803954E-04	4.075217E-05
3.404713E+03	1.820774E-04	4.089734E-05
3.414668E+03	1.837762E-04	4.104134E-05
3.424623E+03	1.855217E-04	4.119071E-05
3.434579E+03	1.872549E-04	4.133222E-05
3.444534E+03	1.890053E-04	4.147240E-05
3.454489E+03	1.907731E-04	4.161120E-05
3.464445E+03	1.925583E-04	4.174855E-05
3.474400E+03	1.943611E-04	4.188440E-05
3.484355E+03	1.961816E-04	4.201868E-05
3.494311E+03	1.980199E-04	4.215134E-05
3.504266E+03	1.999078E-04	4.228904E-05
3.514221E+03	2.017822E-04	4.241829E-05
3.524176E+03	2.036748E-04	4.254572E-05
3.534132E+03	2.055854E-04	4.267126E-05
3.544087E+03	2.075143E-04	4.279485E-05
3.554042E+03	2.094947E-04	4.292322E-05
3.563998E+03	2.114607E-04	4.304272E-05
3.573953E+03	2.134451E-04	4.316005E-05
3.583908E+03	2.154480E-04	4.327514E-05
3.593864E+03	2.175038E-04	4.339476E-05
3.603819E+03	2.195443E-04	4.350514E-05
3.613774E+03	2.216034E-04	4.361306E-05
3.623729E+03	2.237164E-04	4.372531E-05
3.633685E+03	2.258133E-04	4.382804E-05
3.643640E+03	2.279289E-04	4.392806E-05
3.653595E+03	2.300633E-04	4.402527E-05
3.663551E+03	2.322528E-04	4.412650E-05
3.673506E+03	2.344250E-04	4.421784E-05
3.683461E+03	2.366160E-04	4.430612E-05
3.693417E+03	2.388631E-04	4.439817E-05
3.703372E+03	2.410917E-04	4.448002E-05
3.713327E+03	2.433391E-04	4.455853E-05
3.723282E+03	2.456433E-04	4.464054E-05
3.733238E+03	2.479280E-04	4.471206E-05
3.743193E+03	2.502312E-04	4.477994E-05
3.753148E+03	2.525920E-04	4.485105E-05
3.763104E+03	2.549320E-04	4.491134E-05
3.773059E+03	2.572902E-04	4.496767E-05
3.783014E+03	2.597067E-04	4.502695E-05
3.792970E+03	2.621011E-04	4.507509E-05
3.802925E+03	2.645131E-04	4.511896E-05
3.812880E+03	2.669840E-04	4.516547E-05
3.822835E+03	2.694312E-04	4.520049E-05
3.832791E+03	2.718955E-04	4.523094E-05
3.842746E+03	2.744192E-04	4.526369E-05
3.852701E+03	2.769174E-04	4.528464E-05
3.862657E+03	2.794321E-04	4.530066E-05
3.872612E+03	2.820064E-04	4.531866E-05
3.882567E+03	2.845535E-04	4.532453E-05
3.892523E+03	2.871160E-04	4.532515E-05
3.902478E+03	2.897385E-04	4.532739E-05
3.912433E+03	2.923316E-04	4.531718E-05
3.922388E+03	2.949392E-04	4.530138E-05
3.932344E+03	2.976067E-04	4.528684E-05
3.942299E+03	3.002426E-04	4.525955E-05
3.952254E+03	3.028918E-04	4.522634E-05
3.962210E+03	3.056007E-04	4.519402E-05
3.972165E+03	3.082757E-04	4.514865E-05
3.982120E+03	3.109626E-04	4.509703E-05
3.992076E+03	3.137089E-04	4.504596E-05
4.002031E+03	3.164185E-04	4.498155E-05
4.011986E+03	3.191386E-04	4.491058E-05
4.021941E+03	3.218684E-04	4.483297E-05
4.031897E+03	3.246568E-04	4.475541E-05
4.041852E+03	3.274048E-04	4.466419E-05
4.051807E+03	3.301608E-04	4.456603E-05
4.061763E+03	3.329240E-04	4.446083E-05
4.071718E+03	3.357447E-04	4.435526E-05
4.081673E+03	3.385208E-04	4.423573E-05
4.091629E+03	3.413021E-04	4.410892E-05
4.101584E+03	3.440877E-04	4.397476E-05
4.111539E+03	3.468770E-04	4.383317E-05
4.121494E+03	3.497218E-04	4.369068E-05
4.131450E+03	3.525162E-04	4.353402E-05
4.141405E+03	3.553117E-04	4.336973E-05
4.151360E+03	3.581074E-04	4.319779E-05
4.161316E+03	3.609024E-04	4.301813E-05
4.171271E+03	3.636959E-04	4.283072E-05
4.181226E+03	3.664868E-04	4.263553E-05
4.191182E+03	3.693296E-04	4.243891E-05
4.201137E+03	3.721129E-04	4.222806E-05
4.211092E+03	3.748906E-04	4.200937E-05
4.221047E+03	3.776617E-04	4.178284E-05
4.231003E+03	3.804252E-04	4.154849E-05
4.240958E+03	3.831799E-04	4.130632E-05
4.250913E+03	3.859249E-04	4.105636E-05
4.260869E+03	3.886589E-04	4.079866E-05
4.270824E+03	3.913809E-04	4.053325E-05
4.280779E+03	3.940895E-04	4.026019E-05
4.290735E+03	3.967838E-04	3.997956E-05
4.300690E+03	3.994625E-04	3.969143E-05
4.310645E+03	4.020645E-04	3.939004E-05
4.320601E+03	4.047078E-04	3.908725E-05
4.330556E+03	4.073323E-04	3.877733E-05
4.340511E+03	4.099358E-04	3.846032E-05
4.350466E+03	4.125178E-04	3.813646E-05
4.360422E+03	4.150764E-04	3.780584E-05
4.370377E+03	4.175490E-04	3.746315E-05
4.380332E+03	4.200576E-04	3.711972E-05
4.390288E+03	4.225389E-04	3.677013E-05
4.400243E+03	4.249926E-04	3.641468E-05
4.410198E+03	4.273530E-04	3.604822E-05
4.420154E+03	4.297458E-04	3.568179E-05
4.430109E+03	4.321062E-04	3.531025E-05
4.440064E+03	4.343691E-04	3.492878E-05
4.450019E+03	4.366611E-04	3.454807E-05
4.459975E+03	4.389169E-04	3.416326E-05
4.469930E+03	4.410703E-04	3.376975E-05
4.479885E+03	4.432496E-04	3.337792E-05
4.489841E+03	4.453238E-04	3.297837E-05
4.499796E+03	4.474218E-04	3.258123E-05
4.509751E+03	4.494113E-04	3.217738E-05
4.519707E+03	4.514228E-04	3.177681E-05
4.529662E+03	4.533225E-04	3.137062E-05
4.539617E+03	4.552425E-04	3.096867E-05
4.549572E+03	4.570480E-04	3.056235E-05
4.559528E+03	4.588042E-04	3.015686E-05
4.569483E+03	4.605778E-04	2.975720E-05
4.579438E+03	4.622327E-04	2.935522E-05
4.589394E+03	4.638352E-04	2.895603E-05
4.599349E+03	4.654523E-04	2.856448E-05
4.609304E+03	4.669464E-04	2.817287E-05
4.619260E+03	4.683853E-04	2.778622E-05
4.629215E+03	4.697673E-04	2.740527E-05
4.639170E+03	4.710912E-04	2.703077E-05
4.649125E+03	4.724260E-04	2.666747E-05
4.659081E+03	4.736321E-04	2.630832E-05
4.669036E+03	4.747777E-04	2.595810E-05
4.678991E+03	4.758621E-04	2.561764E-05
4.688947E+03	4.768844E-04	2.528779E-05
4.698902E+03	4.778439E-04	2.496940E-05
4.708857E+03	4.787395E-04	2.466327E-05
4.718813E+03	4.795708E-04	2.437023E-05
4.728768E+03	4.803371E-04	2.409110E-05
4.738723E+03	4.809678E-04	2.382318E-05
4.748678E+03	4.816020E-04	2.357416E-05
4.758634E+03	4.821691E-04	2.334125E-05
4.768589E+03	4.826688E-04	2.312509E-05
4.778544E+03	4.831005E-04	2.292627E-05
4.788500E+03	4.833943E-04	2.274193E-05
4.798455E+03	4.836898E-04	2.257842E-05
4.808410E+03	4.839171E-04	2.243191E-05
4.818366E+03	4.840068E-04	2.229864E-05
4.828321E+03	4.840992E-04	2.218445E-05
4.838276E+03	4.841244E-04	2.208540E-05
4.848231E+03	4.840136E-04	2.199760E-05
4.858187E+03	4.839068E-04	2.192665E-05
4.868142E+03	4.836647E-04	2.186537E-05
4.878097E+03	4.834278E-04	2.181926E-05
4.888053E+03	4.830573E-04	2.178116E-05
4.898008E+03	4.826929E-04	2.175646E-05
4.907963E+03	4.821965E-04	2.173803E-05
4.917919E+03	4.816385E-04	2.172813E-05
4.927874E+03	4.810885E-04	2.172897E-05
4.937829E+03	4.804092E-04	2.173349E-05
4.947784E+03	4.796714E-04	2.174396E-05
4.957740E+03	4.788750E-04	2.175954E-05
4.967695E+03	4.780216E-04	2.177945E-05
4.977650E+03	4.771801E-04	2.180603E-05
4.987606E+03	4.762154E-04	2.183234E-05
4.997561E+03	4.751967E-04	2.186078E-05
5.007516E+03	4.741250E-04	2.189068E-05
5.017472E+03	4.730016E-04	2.192144E-05
5.027427E+03	4.718277E-04	2.195245E-05
5.037382E+03	4.706042E-04	2.198317E-05
5.047337E+03	4.693329E-04	2.201311E-05
5.057293E+03	4.680145E-04	2.204178E-05
5.067248E+03	4.666508E-04	2.206877E-05
5.077203E+03	4.651768E-04	2.209054E-05
5.087159E+03	4.637260E-04	2.211301E-05
5.097114E+03	4.622337E-04	2.213274E-05
5.107069E+03	4.607013E-04	2.214944E-05
5.117025E+03	4.590647E-04	2.215971E-05
5.126980E+03	4.574564E-04	2.216965E-05
5.136935E+03	4.558117E-04	2.217590E-05
5.146890E+03	4.540681E-04	2.217520E-05
5.156846E+03	4.523566E-04	2.217372E-05
5.166801E+03	4.505487E-04	2.216503E-05
5.176756E+03	4.487749E-04	2.215538E-05
5.186712E+03	4.469088E-04	2.213846E-05
5.196667E+03	4.450792E-04	2.212053E-05
5.206622E+03	4.431607E-04	2.209531E-05
5.216578E+03	4.412810E-04	2.206910E-05
5.226533E+03	4.393156E-04	2.203566E-05
5.236488E+03	4.373294E-04	2.199823E-05
5.246443E+03	4.353852E-04	2.195999E-05
5.256399E+03	4.333609E-04	2.191481E-05
5.266354E+03	4.313198E-04	2.186591E-05
5.276309E+03	4.292633E-04	2.181343E-05
5.286265E+03	4.271932E-04	2.175752E-05
5.296220E+03	4.251103E-04	2.169832E-05
5.306175E+03	4.230760E-04	2.163904E-05
5.316131E+03	4.209719E-04	2.157375E-05
5.326086E+03	4.188598E-04	2.150570E-05
5.336041E+03	4.167403E-04	2.143505E-05
5.345996E+03	4.146150E-04	2.136201E-05
5.355952E+03	4.124854E-04	2.128677E-05
5.365907E+03	4.102946E-04	2.120654E-05
5.375862E+03	4.081605E-04	2.112755E-05
5.385818E+03	4.060254E-04	2.104695E-05
5.395773E+03	4.038910E-04	2.096499E-05
5.405728E+03	4.017588E-04	2.088187E-05
5.415684E+03	3.996293E-04	2.079778E-05
5.425639E+03	3.974480E-04	2.071001E-05
5.435594E+03	3.953288E-04	2.062462E-05
5.445549E+03	3.932159E-04	2.053864E-05
5.455505E+03	3.910564E-04	2.044909E-05
5.465460E+03	3.889623E-04	2.036165E-05
5.475415E+03	3.868255E-04	2.027048E-05
5.485371E+03	3.847568E-04	2.018119E-05
5.495326E+03	3.826490E-04	2.008799E-05
5.505281E+03	3.806117E-04	1.999647E-05
5.515237E+03	3.785394E-04	1.990093E-05
5.525192E+03	3.765401E-04	1.980689E-05
5.535147E+03	3.745088E-04	1.970869E-05
5.545102E+03	3.725007E-04	1.960908E-05
5.555058E+03	3.705690E-04	1.951074E-05
5.565013E+03	3.686107E-04	1.940812E-05
5.574968E+03	3.666796E-04	1.930393E-05
5.584924E+03	3.648281E-04	1.920082E-05
5.594879E+03	3.629549E-04	1.909336E-05
5.604834E+03	3.611123E-04	1.898420E-05
5.614790E+03	3.593021E-04	1.887335E-05
5.624745E+03	3.575256E-04	1.876078E-05
5.634700E+03	3.557834E-04	1.864646E-05
5.644655E+03	3.540767E-04	1.853037E-05
5.654611E+03	3.524073E-04	1.841254E-05
5.664566E+03	3.507755E-04	1.829292E-05
5.674521E+03	3.491826E-04	1.817152E-05
5.684477E+03	3.476301E-04	1.804838E-05
5.694432E+03	3.461185E-04	1.792346E-05
5.704387E+03	3.446492E-04	1.779680E-05
5.714343E+03	3.432229E-04	1.766839E-05
5.724298E+03	3.418410E-04	1.753827E-05
5.734253E+03	3.405041E-04	1.740645E-05
5.744209E+03	3.392133E-04	1.727294E-05
5.754164E+03	3.379223E-04	1.713538E-05
5.764119E+03	3.367264E-04	1.699859E-05
5.774074E+03	3.355798E-04	1.686022E-05
5.784030E+03	3.344363E-04	1.671794E-05
5.793985E+03	3.333904E-04	1.657647E-05
5.803940E+03	3.323961E-04	1.643350E-05
5.813896E+03	3.314082E-04	1.628680E-05
5.823851E+03	3.305202E-04	1.614097E-05
5.833806E+03	3.296406E-04	1.599153E-05
5.843762E+03	3.288625E-04	1.584301E-05
5.853717E+03	3.280946E-04	1.569101E-05
5.863672E+03	3.274303E-04	1.554001E-05
5.873627E+03	3.267779E-04	1.538566E-05
5.883583E+03	3.262307E-04	1.523238E-05
5.893538E+03	3.256978E-04	1.507593E-05
5.903493E+03	3.252713E-04	1.492061E-05
5.913449E+03	3.248611E-04	1.476230E-05
5.923404E+03	3.245137E-04	1.460318E-05
5.933359E+03	3.242759E-04	1.444538E-05
5.943315E+03	3.240575E-04	1.428490E-05
5.953270E+03	3.239045E-04	1.412387E-05
5.963225E+03	3.238186E-04	1.396241E-05
5.973180E+03	3.238460E-04	1.380256E-05
5.983136E+03	3.238967E-04	1.364054E-05
5.993091E+03	3.240175E-04	1.347845E-05
6.003046E+03	3.242088E-04	1.331642E-05
6.013002E+03	3.244728E-04	1.315464E-05
6.022957E+03	3.248097E-04	1.299325E-05
6.032912E+03	3.252209E-04	1.283245E-05
6.042868E+03	3.257532E-04	1.267422E-05
6.052823E+03	3.263165E-04	1.251522E-05
6.062778E+03	3.269580E-04	1.235751E-05
6.072733E+03	3.276784E-04	1.220134E-05
6.082689E+03	3.284791E-04	1.204703E-05
6.092644E+03	3.293151E-04	1.189323E-05
6.102599E+03	3.302802E-04	1.174367E-05
6.112555E+03	3.313296E-04	1.159706E-05
6.122510E+03	3.324645E-04	1.145384E-05
6.132465E+03	3.336864E-04	1.131448E-05
6.142421E+03	3.349966E-04	1.117950E-05
6.152376E+03	3.363964E-04	1.104945E-05
6.162331E+03	3.378873E-04	1.092495E-05
6.172286E+03	3.394234E-04	1.080517E-05
6.182242E+03	3.411004E-04	1.069381E-05
6.192197E+03	3.428729E-04	1.059013E-05
6.202152E+03	3.447422E-04	1.049493E-05
6.212108E+03	3.466611E-04	1.040760E-05
6.222063E+03	3.487276E-04	1.033196E-05
6.232018E+03	3.508948E-04	1.026747E-05
6.241974E+03	3.531143E-04	1.021365E-05
6.251929E+03	3.554847E-04	1.017433E-05
6.261884E+03	3.579067E-04	1.014762E-05
6.271839E+03	3.604776E-04	1.013714E-05
6.281795E+03	3.631444E-04	1.014165E-05
6.291750E+03	3.658533E-04	1.015963E-05
6.301705E+03	3.687025E-04	1.019377E-05
6.311661E+03	3.715854E-04	1.024103E-05
6.321616E+03	3.746022E-04	1.030407E-05
6.331571E+03	3.776445E-04	1.037978E-05
6.341527E+03	3.808140E-04	1.047081E-05
6.351482E+03	3.839995E-04	1.057395E-05
6.361437E+03	3.872504E-04	1.069038E-05
6.371392E+03	3.906161E-04	1.082129E-05
6.381348E+03	3.939840E-04	1.096341E-05
6.391303E+03	3.974586E-04	1.111947E-05
6.401258E+03	4.009243E-04	1.128609E-05
6.411214E+03	4.044310E-04	1.146453E-05
6.421169E+03	4.080309E-04	1.165614E-05
6.431124E+03	4.116044E-04	1.185741E-05
6.441080E+03	4.152031E-04	1.206973E-05
6.451035E+03	4.188208E-04	1.229285E-05
6.460990E+03	4.225107E-04	1.252830E-05
6.470945E+03	4.261495E-04	1.277244E-05
6.480901E+03	4.297892E-04	1.302678E-05
6.490856E+03	4.334240E-04	1.329117E-05
6.500811E+03	4.371088E-04	1.356737E-05
6.510767E+03	4.407149E-04	1.385145E-05
6.520722E+03	4.442969E-04	1.414518E-05
6.530677E+03	4.478484E-04	1.444842E-05
6.540633E+03	4.513639E-04	1.476111E-05
6.550588E+03	4.548381E-04	1.508317E-05
6.560543E+03	4.582671E-04	1.541458E-05
6.570498E+03	4.616471E-04	1.575532E-05
6.580454E+03	4.649765E-04	1.610517E-05
6.590409E+03	4.683179E-04	1.646576E-05
6.600364E+03	4.715393E-04	1.683185E-05
6.610320E+03	4.747038E-04	1.720495E-05
6.620275E+03	4.778098E-04	1.758436E-05
6.630230E+03	4.808559E-04	1.796937E-05
6.640186E+03	4.837721E-04	1.835666E-05
6.650141E+03	4.866924E-04	1.875064E-05
6.660096E+03	4.895483E-04	1.914806E-05
6.670051E+03	4.923376E-04	1.954822E-05
6.680007E+03	4.950597E-04	1.995044E-05
6.689962E+03	4.977129E-04	2.035402E-05
6.699917E+03	5.002959E-04	2.075828E-05
6.709873E+03	5.028083E-04	2.116260E-05
6.719828E+03	5.052479E-04	2.156629E-05
6.729783E+03	5.075429E-04	2.196563E-05
6.739739E+03	5.098347E-04	2.236614E-05
6.749694E+03	5.120510E-04	2.276416E-05
6.759649E+03	5.141917E-04	2.315912E-05
6.769604E+03	5.162558E-04	2.355043E-05
6.779560E+03	5.181694E-04	2.393416E-05
6.789515E+03	5.200774E-04	2.431645E-05
6.799470E+03	5.219071E-04	2.469347E-05
6.809426E+03	5.236575E-04	2.506467E-05
6.819381E+03	5.252546E-04	2.542601E-05
6.829336E+03	5.268455E-04	2.578411E-05
6.839292E+03	5.283562E-04	2.613496E-05
6.849247E+03	5.297116E-04	2.647437E-05
6.859202E+03	5.310609E-04	2.680935E-05
6.869157E+03	5.323298E-04	2.713580E-05
6.879113E+03	5.334423E-04	2.744943E-05
6.889068E+03	5.345491E-04	2.775757E-05
6.899023E+03	5.354999E-04	2.805208E-05
6.908979E+03	5.364452E-04	2.834045E-05
6.918934E+03	5.372344E-04	2.861443E-05
6.928889E+03	5.380195E-04	2.888175E-05
6.938845E+03	5.387244E-04	2.913807E-05
6.948800E+03	5.392733E-04	2.937897E-05
6.958755E+03	5.398191E-04	2.961247E-05
6.968710E+03	5.402096E-04	2.982995E-05
6.978666E+03	5.405985E-04	3.003964E-05
6.988621E+03	5.408329E-04	3.023281E-05
6.998576E+03	5.409899E-04	3.041350E-05
7.008532E+03	5.411467E-04	3.058585E-05
7.018487E+03	5.411509E-04	3.074108E-05
7.028442E+03	5.411565E-04	3.088770E-05
7.038398E+03	5.410110E-04	3.101687E-05
7.048353E+03	5.407912E-04	3.113279E-05
7.058308E+03	5.405751E-04	3.123982E-05
7.068263E+03	5.402104E-04	3.132902E-05
7.078219E+03	5.397742E-04	3.140474E-05
7.088174E+03	5.393440E-04	3.147136E-05
7.098129E+03	5.387675E-04	3.151994E-05
7.108085E+03	5.381228E-04	3.155491E-05
7.118040E+03	5.374867E-04	3.158073E-05
7.127995E+03	5.367072E-04	3.158841E-05
7.137951E+03	5.358624E-04	3.158250E-05
7.147906E+03	5.349531E-04	3.156299E-05
7.157861E+03	5.340561E-04	3.153441E-05
7.167817E+03	5.330203E-04	3.148783E-05
7.177772E+03	5.319232E-04	3.142782E-05
7.187727E+03	5.307663E-04	3.135448E-05
7.197682E+03	5.295500E-04	3.126786E-05
7.207638E+03	5.282753E-04	3.116807E-05
7.217593E+03	5.270187E-04	3.105966E-05
7.227548E+03	5.256312E-04	3.093390E-05
7.237504E+03	5.241893E-04	3.079537E-05
7.247459E+03	5.226939E-04	3.064422E-05
7.257414E+03	5.211457E-04	3.048058E-05
7.267370E+03	5.195470E-04	3.030468E-05
7.277325E+03	5.178976E-04	3.011663E-05
7.287280E+03	5.161997E-04	2.991669E-05
7.297235E+03	5.144543E-04	2.970506E-05
7.307191E+03	5.126622E-04	2.948192E-05
7.317146E+03	5.108247E-04	2.924752E-05
7.327101E+03	5.089430E-04	2.900208E-05
7.337057E+03	5.070184E-04	2.874588E-05
7.347012E+03	5.050516E-04	2.847913E-05
7.356967E+03	5.030444E-04	2.820215E-05
7.366923E+03	5.009975E-04	2.791520E-05
7.376878E+03	4.989124E-04	2.761856E-05
7.386833E+03	4.967900E-04	2.731255E-05
7.396788E+03	4.945608E-04	2.699361E-05
7.406744E+03	4.923675E-04	2.666984E-05
7.416699E+03	4.901406E-04	2.633766E-05
7.426654E+03	4.878804E-04	2.599740E-05
7.436610E+03	4.855890E-04	2.564946E-05
7.446565E+03	4.832669E-04	2.529419E-05
7.456520E+03	4.808467E-04	2.492842E-05
7.466476E+03	4.784671E-04	2.455972E-05
7.476431E+03	4.760603E-04	2.418491E-05
7.486386E+03	4.736271E-04	2.380440E-05
7.496341E+03	4.711011E-04	2.341529E-05
7.506297E+03	4.686192E-04	2.302484E-05
7.516252E+03	4.661135E-04	2.263007E-05
7.526207E+03	4.635199E-04	2.222837E-05
7.536163E+03	4.609716E-04	2.182665E-05
7.546118E+03	4.584032E-04	2.142223E-05
7.556073E+03	4.557502E-04	2.101267E-05
7.566029E+03	4.531449E-04	2.060468E-05
7.575984E+03	4.504574E-04	2.019291E-05
7.585939E+03	4.478189E-04	1.978390E-05
7.595894E+03	4.451653E-04	1.937541E-05
7.605850E+03	4.424330E-04	1.896541E-05
7.615805E+03	4.397515E-04	1.856023E-05
7.625760E+03	4.369947E-04	1.815531E-05
7.635716E+03	4.342889E-04	1.775677E-05
7.645671E+03	4.315101E-04	1.736039E-05
7.655626E+03	4.287838E-04	1.697221E-05
7.665582E+03	4.259874E-04	1.658831E-05
7.675537E+03	4.231825E-04	1.621225E-05
7.685492E+03	4.204320E-04	1.584751E-05
7.695447E+03	4.176140E-04	1.549063E-05
7.705403E+03	4.148508E-04	1.514743E-05
7.715358E+03	4.120230E-04	1.481480E-05
7.725313E+03	4.091912E-04	1.449634E-05
