#wls	flux	fluxerr
1.587302E+03	1.659480E-03	1.424983E-05
1.626984E+03	1.699976E-03	1.459757E-05
1.666667E+03	1.743329E-03	1.496984E-05
1.706349E+03	1.789669E-03	1.536776E-05
1.746032E+03	1.839304E-03	1.579396E-05
1.785714E+03	1.892350E-03	1.624947E-05
1.825397E+03	1.949100E-03	1.673677E-05
1.865079E+03	2.009839E-03	1.725834E-05
1.904762E+03	2.074662E-03	1.781497E-05
1.944444E+03	2.143835E-03	1.840895E-05
1.984127E+03	2.217615E-03	1.904249E-05
2.023810E+03	2.296247E-03	1.971770E-05
2.063492E+03	2.379790E-03	2.043507E-05
2.103175E+03	2.468467E-03	2.119654E-05
2.142857E+03	2.562143E-03	2.200093E-05
2.182540E+03	2.660677E-03	2.284703E-05
2.222222E+03	2.763231E-03	2.372765E-05
2.261905E+03	2.868972E-03	2.463564E-05
2.301587E+03	2.978964E-03	2.558013E-05
2.341270E+03	3.094918E-03	2.657582E-05
2.380952E+03	3.218165E-03	2.763414E-05
2.420635E+03	3.349657E-03	2.876325E-05
2.460317E+03	3.490141E-03	2.996957E-05
2.500000E+03	3.640496E-03	3.126065E-05
2.539683E+03	3.801230E-03	3.264087E-05
2.579365E+03	3.973145E-03	3.411709E-05
2.619048E+03	4.156662E-03	3.569293E-05
2.658730E+03	4.351840E-03	3.736891E-05
2.698413E+03	4.559010E-03	3.914786E-05
2.738095E+03	4.777973E-03	4.102808E-05
2.777778E+03	5.008312E-03	4.300598E-05
2.817460E+03	5.249242E-03	4.507483E-05
2.857143E+03	5.499917E-03	4.722735E-05
2.896825E+03	5.760357E-03	4.946373E-05
2.936508E+03	6.032168E-03	5.179775E-05
2.976190E+03	6.317427E-03	5.424724E-05
2.986111E+03	6.391034E-03	5.487930E-05
2.996032E+03	6.465871E-03	5.552192E-05
3.005952E+03	6.541622E-03	5.617239E-05
3.015873E+03	6.618421E-03	5.683186E-05
3.025794E+03	6.696554E-03	5.750278E-05
3.035714E+03	6.775709E-03	5.818248E-05
3.045635E+03	6.856175E-03	5.887343E-05
3.055556E+03	6.937943E-03	5.957556E-05
3.065476E+03	7.021009E-03	6.028885E-05
3.075397E+03	7.105378E-03	6.101332E-05
3.085317E+03	7.191350E-03	6.175154E-05
3.095238E+03	7.278793E-03	6.250242E-05
3.105159E+03	7.367881E-03	6.326741E-05
3.115079E+03	7.458655E-03	6.404688E-05
3.125000E+03	7.551171E-03	6.484130E-05
3.134921E+03	7.645651E-03	6.565259E-05
3.144841E+03	7.742347E-03	6.648292E-05
3.154762E+03	7.841111E-03	6.733099E-05
3.164683E+03	7.942559E-03	6.820212E-05
3.174603E+03	8.046793E-03	6.909717E-05
3.184524E+03	8.154274E-03	7.002010E-05
3.194444E+03	8.265417E-03	7.097447E-05
3.204365E+03	8.380620E-03	7.196371E-05
3.214286E+03	8.501014E-03	7.299753E-05
3.224206E+03	8.627080E-03	7.408004E-05
3.234127E+03	8.760420E-03	7.522502E-05
3.244048E+03	8.902542E-03	7.644541E-05
3.253968E+03	9.055078E-03	7.775523E-05
3.263889E+03	9.220875E-03	7.917891E-05
3.273810E+03	9.402637E-03	8.073969E-05
3.283730E+03	9.604149E-03	8.247006E-05
3.293651E+03	9.829712E-03	8.440694E-05
3.299095E+03	6.397057E-03	5.493101E-05
3.301721E+03	6.711538E-03	5.763144E-05
3.304347E+03	6.875782E-03	5.904179E-05
3.306974E+03	6.988740E-03	6.001174E-05
3.309600E+03	7.098474E-03	6.095402E-05
3.312226E+03	7.214954E-03	6.195423E-05
3.314853E+03	7.486259E-03	6.428390E-05
3.317479E+03	7.768849E-03	6.671048E-05
3.320105E+03	7.982818E-03	6.854781E-05
3.322732E+03	8.263865E-03	7.096114E-05
3.325358E+03	8.537863E-03	7.331394E-05
3.327984E+03	8.762787E-03	7.524535E-05
3.330611E+03	8.830321E-03	7.582526E-05
3.333237E+03	8.983455E-03	7.714020E-05
3.335863E+03	9.457877E-03	8.121403E-05
3.338490E+03	9.921419E-03	8.519443E-05
3.341116E+03	1.031994E-02	8.861651E-05
3.343742E+03	1.067099E-02	9.163093E-05
3.346369E+03	1.088324E-02	9.345353E-05
3.348995E+03	1.112090E-02	9.549427E-05
3.351621E+03	1.138176E-02	9.773426E-05
3.354248E+03	1.162922E-02	9.985915E-05
3.356874E+03	1.204683E-02	1.034452E-04
3.359500E+03	1.251226E-02	1.074418E-04
3.362127E+03	1.286680E-02	1.104861E-04
3.364753E+03	1.310315E-02	1.125157E-04
3.367380E+03	1.326331E-02	1.138910E-04
3.370006E+03	1.341645E-02	1.152060E-04
3.372632E+03	1.358228E-02	1.166299E-04
3.375259E+03	1.373313E-02	1.179253E-04
3.377885E+03	1.398288E-02	1.200698E-04
3.380511E+03	1.431993E-02	1.229641E-04
3.383138E+03	1.454409E-02	1.248889E-04
3.385764E+03	1.468238E-02	1.260765E-04
3.388390E+03	1.479641E-02	1.270555E-04
3.391017E+03	1.480539E-02	1.271327E-04
3.393643E+03	1.477069E-02	1.268347E-04
3.396269E+03	1.481438E-02	1.272099E-04
3.398896E+03	1.494338E-02	1.283176E-04
3.401522E+03	1.509137E-02	1.295884E-04
3.404148E+03	1.522385E-02	1.307259E-04
3.406775E+03	1.534457E-02	1.317625E-04
3.409401E+03	1.541607E-02	1.323765E-04
3.412027E+03	1.546631E-02	1.328080E-04
3.414654E+03	1.553420E-02	1.333909E-04
3.417280E+03	1.554536E-02	1.334867E-04
3.419906E+03	1.551389E-02	1.332165E-04
3.422533E+03	1.547371E-02	1.328715E-04
3.425159E+03	1.539866E-02	1.322270E-04
3.427785E+03	1.535947E-02	1.318905E-04
3.430412E+03	1.544331E-02	1.326104E-04
3.433038E+03	1.560216E-02	1.339745E-04
3.435664E+03	1.566213E-02	1.344895E-04
3.438291E+03	1.557856E-02	1.337718E-04
3.440917E+03	1.553202E-02	1.333722E-04
3.443543E+03	1.562066E-02	1.341333E-04
3.446170E+03	1.573164E-02	1.350863E-04
3.448796E+03	1.580398E-02	1.357075E-04
3.451422E+03	1.587965E-02	1.363573E-04
3.454049E+03	1.598931E-02	1.372989E-04
3.456675E+03	1.605186E-02	1.378360E-04
3.459302E+03	1.604597E-02	1.377854E-04
3.461928E+03	1.606361E-02	1.379369E-04
3.464554E+03	1.608062E-02	1.380830E-04
3.467181E+03	1.600119E-02	1.374009E-04
3.469807E+03	1.592078E-02	1.367104E-04
3.472433E+03	1.594430E-02	1.369124E-04
3.475060E+03	1.602846E-02	1.376351E-04
3.477686E+03	1.607032E-02	1.379945E-04
3.480312E+03	1.611255E-02	1.383571E-04
3.482938E+03	1.615554E-02	1.387263E-04
3.485564E+03	1.613652E-02	1.385630E-04
3.488190E+03	1.607705E-02	1.380523E-04
3.490817E+03	1.603277E-02	1.376721E-04
3.493443E+03	1.598949E-02	1.373005E-04
3.496069E+03	1.594483E-02	1.369169E-04
3.498696E+03	1.597159E-02	1.371467E-04
3.501322E+03	1.600798E-02	1.374592E-04
3.503948E+03	1.602307E-02	1.375888E-04
3.506575E+03	1.604307E-02	1.377605E-04
3.509201E+03	1.604156E-02	1.377475E-04
3.511827E+03	1.596180E-02	1.370627E-04
3.514454E+03	1.586353E-02	1.362189E-04
3.517080E+03	1.576648E-02	1.353855E-04
3.519706E+03	1.566236E-02	1.344914E-04
3.522333E+03	1.556062E-02	1.336178E-04
3.524959E+03	1.546463E-02	1.327935E-04
3.527585E+03	1.532318E-02	1.315789E-04
3.530212E+03	1.511444E-02	1.297865E-04
3.532838E+03	1.488805E-02	1.278425E-04
3.535464E+03	1.465740E-02	1.258619E-04
3.538091E+03	1.442959E-02	1.239057E-04
3.540717E+03	1.423862E-02	1.222659E-04
3.543343E+03	1.407643E-02	1.208732E-04
3.545970E+03	1.390189E-02	1.193744E-04
3.548596E+03	1.372270E-02	1.178357E-04
3.551222E+03	1.354375E-02	1.162991E-04
3.553849E+03	1.334992E-02	1.146347E-04
3.556475E+03	1.316953E-02	1.130857E-04
3.559101E+03	1.303633E-02	1.119419E-04
3.561728E+03	1.289218E-02	1.107041E-04
3.564354E+03	1.268934E-02	1.089623E-04
3.566980E+03	1.249816E-02	1.073207E-04
3.569607E+03	1.233039E-02	1.058801E-04
3.572233E+03	1.213226E-02	1.041787E-04
3.574859E+03	1.197678E-02	1.028437E-04
3.577486E+03	1.189101E-02	1.021072E-04
3.580112E+03	1.176917E-02	1.010609E-04
3.582738E+03	1.160578E-02	9.965787E-05
3.585365E+03	1.146558E-02	9.845401E-05
3.587991E+03	1.137876E-02	9.770851E-05
3.590617E+03	1.131961E-02	9.720059E-05
3.593244E+03	1.124773E-02	9.658338E-05
3.595870E+03	1.115295E-02	9.576947E-05
3.598497E+03	1.106877E-02	9.504665E-05
3.601123E+03	1.101009E-02	9.454273E-05
3.603749E+03	1.093594E-02	9.390606E-05
3.606376E+03	1.083382E-02	9.302913E-05
3.609002E+03	1.072918E-02	9.213060E-05
3.611628E+03	1.058445E-02	9.088779E-05
3.614255E+03	1.040923E-02	8.938321E-05
3.616881E+03	1.028064E-02	8.827906E-05
3.619507E+03	1.014780E-02	8.713830E-05
3.622133E+03	9.956508E-03	8.549573E-05
3.624760E+03	9.726763E-03	8.352292E-05
3.627386E+03	9.480674E-03	8.140978E-05
3.630012E+03	9.229591E-03	7.925375E-05
3.632639E+03	8.990524E-03	7.720089E-05
3.635265E+03	8.756428E-03	7.519073E-05
3.637892E+03	8.532383E-03	7.326687E-05
3.640518E+03	8.285369E-03	7.114579E-05
3.643144E+03	8.035908E-03	6.900369E-05
3.645771E+03	7.801575E-03	6.699149E-05
3.648397E+03	7.551518E-03	6.484427E-05
3.651023E+03	7.299798E-03	6.268277E-05
3.653650E+03	7.058711E-03	6.061257E-05
3.656276E+03	6.794499E-03	5.834381E-05
3.658902E+03	6.527461E-03	5.605078E-05
3.661529E+03	6.308503E-03	5.417060E-05
3.664155E+03	6.126871E-03	5.261094E-05
3.666781E+03	5.934392E-03	5.095814E-05
3.669408E+03	5.725030E-03	4.916036E-05
3.672034E+03	5.541277E-03	4.758249E-05
3.674660E+03	5.397145E-03	4.634484E-05
3.677287E+03	5.283846E-03	4.537195E-05
3.679913E+03	5.187533E-03	4.454492E-05
3.682539E+03	5.058934E-03	4.344065E-05
3.685166E+03	4.897876E-03	4.205766E-05
3.687792E+03	4.758290E-03	4.085904E-05
3.690418E+03	4.674606E-03	4.014046E-05
3.693045E+03	4.628696E-03	3.974623E-05
3.695671E+03	4.599724E-03	3.949746E-05
3.698297E+03	4.583015E-03	3.935397E-05
3.700924E+03	4.583223E-03	3.935576E-05
3.703550E+03	4.624446E-03	3.970974E-05
3.706176E+03	4.708402E-03	4.043067E-05
3.708803E+03	4.778721E-03	4.103449E-05
3.711429E+03	4.827055E-03	4.144953E-05
3.714055E+03	4.881970E-03	4.192107E-05
3.716682E+03	4.928315E-03	4.231904E-05
3.719308E+03	4.955223E-03	4.255009E-05
3.721934E+03	4.974547E-03	4.271603E-05
3.724561E+03	4.974067E-03	4.271190E-05
3.727187E+03	4.977851E-03	4.274440E-05
3.729812E+03	5.010534E-03	4.302505E-05
3.732439E+03	5.039321E-03	4.327224E-05
3.735065E+03	5.065186E-03	4.349434E-05
3.737691E+03	5.107125E-03	4.385446E-05
3.740318E+03	5.185091E-03	4.452395E-05
3.742944E+03	5.300610E-03	4.551591E-05
3.745570E+03	5.439130E-03	4.670537E-05
3.748197E+03	5.568483E-03	4.781611E-05
3.750823E+03	5.674347E-03	4.872515E-05
3.753449E+03	5.769901E-03	4.954566E-05
3.756076E+03	5.866957E-03	5.037908E-05
3.758702E+03	5.970162E-03	5.126529E-05
3.761328E+03	6.079121E-03	5.220092E-05
3.763955E+03	6.191897E-03	5.316931E-05
3.766581E+03	6.318737E-03	5.425847E-05
3.769208E+03	6.465239E-03	5.551647E-05
3.771834E+03	6.621723E-03	5.686019E-05
3.774460E+03	6.770209E-03	5.813523E-05
3.777087E+03	6.922298E-03	5.944120E-05
3.779713E+03	7.105028E-03	6.101030E-05
3.782339E+03	7.300612E-03	6.268976E-05
3.784966E+03	7.486452E-03	6.428555E-05
3.787592E+03	7.678958E-03	6.593859E-05
3.790218E+03	7.933133E-03	6.812116E-05
3.792845E+03	8.235619E-03	7.071859E-05
3.795471E+03	8.551660E-03	7.343240E-05
3.798097E+03	8.876424E-03	7.622113E-05
3.800724E+03	9.238058E-03	7.932645E-05
3.803350E+03	9.640777E-03	8.278456E-05
3.805976E+03	1.007703E-02	8.653067E-05
3.808603E+03	1.055085E-02	9.059931E-05
3.811229E+03	1.104526E-02	9.484470E-05
3.813855E+03	1.153442E-02	9.904510E-05
3.816482E+03	1.203124E-02	1.033113E-04
3.819108E+03	1.254978E-02	1.077639E-04
3.821734E+03	1.309291E-02	1.124277E-04
3.824361E+03	1.364750E-02	1.171900E-04
3.826987E+03	1.420089E-02	1.219419E-04
3.829613E+03	1.475111E-02	1.266666E-04
3.832240E+03	1.532165E-02	1.315658E-04
3.834866E+03	1.592229E-02	1.367234E-04
3.837492E+03	1.652169E-02	1.418704E-04
3.840119E+03	1.709312E-02	1.467772E-04
3.842745E+03	1.765238E-02	1.515795E-04
3.845371E+03	1.823498E-02	1.565822E-04
3.847998E+03	1.882517E-02	1.616502E-04
3.850624E+03	1.940049E-02	1.665904E-04
3.853250E+03	1.996018E-02	1.713964E-04
3.855877E+03	2.049849E-02	1.760188E-04
3.858503E+03	2.103461E-02	1.806225E-04
3.861130E+03	2.157430E-02	1.852568E-04
3.863756E+03	2.210223E-02	1.897901E-04
3.866382E+03	2.259539E-02	1.940248E-04
3.869009E+03	2.305382E-02	1.979613E-04
3.871635E+03	2.346986E-02	2.015337E-04
3.874261E+03	2.385313E-02	2.048248E-04
3.876888E+03	2.420364E-02	2.078346E-04
3.879514E+03	2.451951E-02	2.105470E-04
3.882140E+03	2.483139E-02	2.132251E-04
3.884767E+03	2.514886E-02	2.159512E-04
3.887393E+03	2.545659E-02	2.185936E-04
3.890019E+03	2.573356E-02	2.209719E-04
3.892646E+03	2.596640E-02	2.229714E-04
3.895272E+03	2.617044E-02	2.247234E-04
3.897898E+03	2.638966E-02	2.266058E-04
3.900525E+03	2.662597E-02	2.286350E-04
3.903151E+03	2.685642E-02	2.306139E-04
3.905777E+03	2.706955E-02	2.324440E-04
3.908404E+03	2.726730E-02	2.341421E-04
3.911030E+03	2.743820E-02	2.356096E-04
3.913656E+03	2.759757E-02	2.369781E-04
3.916283E+03	2.774922E-02	2.382802E-04
3.918909E+03	2.786261E-02	2.392540E-04
3.921535E+03	2.793208E-02	2.398505E-04
3.924162E+03	2.798626E-02	2.403157E-04
3.926788E+03	2.803086E-02	2.406987E-04
3.929414E+03	2.802778E-02	2.406722E-04
3.932041E+03	2.799230E-02	2.403675E-04
3.934667E+03	2.796254E-02	2.401120E-04
3.937293E+03	2.794231E-02	2.399383E-04
3.939920E+03	2.790305E-02	2.396011E-04
3.942546E+03	2.784095E-02	2.390679E-04
3.945172E+03	2.778458E-02	2.385839E-04
3.947799E+03	2.775866E-02	2.383613E-04
3.950425E+03	2.773846E-02	2.381878E-04
3.953051E+03	2.768403E-02	2.377205E-04
3.955678E+03	2.759920E-02	2.369920E-04
3.958304E+03	2.750109E-02	2.361496E-04
3.960930E+03	2.738783E-02	2.351770E-04
3.963557E+03	2.727460E-02	2.342047E-04
3.966183E+03	2.715194E-02	2.331514E-04
3.968809E+03	2.701413E-02	2.319681E-04
3.971436E+03	2.688208E-02	2.308342E-04
3.974062E+03	2.676337E-02	2.298148E-04
3.976688E+03	2.661624E-02	2.285515E-04
3.979314E+03	2.644643E-02	2.270933E-04
3.981940E+03	2.628238E-02	2.256846E-04
3.984566E+03	2.609185E-02	2.240486E-04
3.987193E+03	2.587679E-02	2.222019E-04
3.989819E+03	2.567886E-02	2.205023E-04
3.992445E+03	2.544883E-02	2.185270E-04
3.995072E+03	2.518671E-02	2.162762E-04
3.997698E+03	2.492471E-02	2.140265E-04
4.000324E+03	2.467231E-02	2.118591E-04
4.002951E+03	2.444084E-02	2.098715E-04
4.005577E+03	2.423219E-02	2.080798E-04
4.008203E+03	2.406147E-02	2.066138E-04
4.010830E+03	2.390785E-02	2.052948E-04
4.013456E+03	2.372972E-02	2.037652E-04
4.016082E+03	2.354412E-02	2.021714E-04
4.018709E+03	2.335671E-02	2.005621E-04
4.021335E+03	2.316183E-02	1.988887E-04
4.023961E+03	2.295005E-02	1.970702E-04
4.026588E+03	2.271760E-02	1.950741E-04
4.029214E+03	2.248337E-02	1.930629E-04
4.031840E+03	2.226059E-02	1.911499E-04
4.034467E+03	2.203603E-02	1.892215E-04
4.037093E+03	2.180780E-02	1.872617E-04
4.039720E+03	2.158533E-02	1.853514E-04
4.042346E+03	2.138372E-02	1.836202E-04
4.044972E+03	2.121236E-02	1.821488E-04
4.047599E+03	2.107312E-02	1.809531E-04
4.050225E+03	2.094148E-02	1.798228E-04
4.052851E+03	2.080614E-02	1.786606E-04
4.055478E+03	2.068593E-02	1.776283E-04
4.058104E+03	2.058836E-02	1.767905E-04
4.060730E+03	2.050401E-02	1.760662E-04
4.063357E+03	2.041970E-02	1.753422E-04
4.065983E+03	2.033355E-02	1.746025E-04
4.068609E+03	2.025307E-02	1.739114E-04
4.071236E+03	2.018768E-02	1.733499E-04
4.073862E+03	2.012232E-02	1.727887E-04
4.076488E+03	2.004195E-02	1.720986E-04
4.079115E+03	1.997289E-02	1.715056E-04
4.081741E+03	1.991888E-02	1.710418E-04
4.084367E+03	1.985551E-02	1.704977E-04
4.086994E+03	1.980157E-02	1.700344E-04
4.089620E+03	1.975326E-02	1.696196E-04
4.092246E+03	1.970498E-02	1.692050E-04
4.094873E+03	1.966423E-02	1.688551E-04
4.097499E+03	1.964037E-02	1.686502E-04
4.100125E+03	1.960527E-02	1.683488E-04
4.102752E+03	1.957580E-02	1.680958E-04
4.105378E+03	1.956321E-02	1.679876E-04
4.108004E+03	1.956187E-02	1.679761E-04
4.110631E+03	1.957362E-02	1.680771E-04
4.113257E+03	1.958538E-02	1.681780E-04
4.115883E+03	1.961022E-02	1.683913E-04
4.118510E+03	1.966498E-02	1.688616E-04
4.121136E+03	1.971597E-02	1.692994E-04
4.123762E+03	1.974636E-02	1.695603E-04
4.126389E+03	1.979356E-02	1.699657E-04
4.129015E+03	1.987064E-02	1.706275E-04
4.131641E+03	1.992151E-02	1.710643E-04
4.134268E+03	1.994619E-02	1.712763E-04
4.136894E+03	1.995779E-02	1.713759E-04
4.139520E+03	1.993764E-02	1.712028E-04
4.142147E+03	1.991561E-02	1.710137E-04
4.144773E+03	1.990293E-02	1.709048E-04
4.147399E+03	1.988466E-02	1.707479E-04
4.150026E+03	1.987199E-02	1.706391E-04
4.152652E+03	1.987052E-02	1.706265E-04
4.155278E+03	1.988955E-02	1.707899E-04
4.157905E+03	1.990297E-02	1.709051E-04
4.160531E+03	1.988657E-02	1.707644E-04
4.163157E+03	1.986460E-02	1.705756E-04
4.165784E+03	1.984448E-02	1.704029E-04
4.168410E+03	1.980576E-02	1.700704E-04
4.171036E+03	1.972796E-02	1.694024E-04
4.173663E+03	1.962788E-02	1.685430E-04
4.176289E+03	1.953900E-02	1.677798E-04
4.178916E+03	1.946691E-02	1.671607E-04
4.181542E+03	1.940787E-02	1.666538E-04
4.184168E+03	1.933771E-02	1.660513E-04
4.186795E+03	1.925457E-02	1.653374E-04
4.189421E+03	1.916219E-02	1.645441E-04
4.192047E+03	1.907913E-02	1.638309E-04
4.194674E+03	1.900913E-02	1.632298E-04
4.197300E+03	1.894472E-02	1.626767E-04
4.199926E+03	1.889148E-02	1.622195E-04
4.202553E+03	1.884199E-02	1.617946E-04
4.205179E+03	1.879807E-02	1.614174E-04
4.207805E+03	1.874491E-02	1.609610E-04
4.210432E+03	1.868992E-02	1.604888E-04
4.213058E+03	1.866647E-02	1.602874E-04
4.215684E+03	1.866157E-02	1.602453E-04
4.218311E+03	1.865667E-02	1.602032E-04
4.220937E+03	1.865917E-02	1.602247E-04
4.223562E+03	1.867278E-02	1.603416E-04
4.226189E+03	1.870674E-02	1.606332E-04
4.228815E+03	1.874625E-02	1.609725E-04
4.231441E+03	1.877647E-02	1.612320E-04
4.234068E+03	1.881409E-02	1.615550E-04
4.236694E+03	1.886462E-02	1.619889E-04
4.239320E+03	1.890774E-02	1.623592E-04
4.241947E+03	1.895267E-02	1.627450E-04
4.244573E+03	1.899574E-02	1.631149E-04
4.247199E+03	1.901846E-02	1.633100E-04
4.249826E+03	1.904486E-02	1.635366E-04
4.252452E+03	1.907864E-02	1.638267E-04
4.255078E+03	1.910686E-02	1.640690E-04
4.257705E+03	1.911661E-02	1.641527E-04
4.260331E+03	1.910052E-02	1.640146E-04
4.262957E+03	1.907706E-02	1.638131E-04
4.265584E+03	1.903887E-02	1.634852E-04
4.268210E+03	1.898226E-02	1.629991E-04
4.270836E+03	1.890541E-02	1.623392E-04
4.273463E+03	1.881754E-02	1.615847E-04
4.276089E+03	1.871314E-02	1.606882E-04
4.278715E+03	1.858117E-02	1.595550E-04
4.281342E+03	1.842534E-02	1.582169E-04
4.283968E+03	1.825633E-02	1.567656E-04
4.286594E+03	1.806755E-02	1.551445E-04
4.289221E+03	1.785991E-02	1.533616E-04
4.291847E+03	1.765550E-02	1.516063E-04
4.294473E+03	1.745875E-02	1.499168E-04
4.297100E+03	1.725934E-02	1.482045E-04
4.299726E+03	1.705580E-02	1.464568E-04
4.302352E+03	1.684743E-02	1.446675E-04
4.304979E+03	1.663088E-02	1.428080E-04
4.307605E+03	1.640710E-02	1.408864E-04
4.310232E+03	1.618180E-02	1.389517E-04
4.312858E+03	1.595459E-02	1.370008E-04
4.315484E+03	1.572035E-02	1.349893E-04
4.318111E+03	1.547908E-02	1.329175E-04
4.320737E+03	1.525589E-02	1.310011E-04
4.323363E+03	1.505392E-02	1.292668E-04
4.325990E+03	1.486433E-02	1.276387E-04
4.328616E+03	1.468785E-02	1.261233E-04
4.331242E+03	1.451110E-02	1.246056E-04
4.333869E+03	1.434469E-02	1.231766E-04
4.336495E+03	1.418131E-02	1.217737E-04
4.339121E+03	1.403375E-02	1.205066E-04
4.341748E+03	1.390127E-02	1.193691E-04
4.344374E+03	1.378642E-02	1.183829E-04
4.347000E+03	1.369250E-02	1.175763E-04
4.349627E+03	1.360319E-02	1.168094E-04
4.352253E+03	1.351904E-02	1.160869E-04
4.354879E+03	1.344116E-02	1.154181E-04
4.357506E+03	1.337282E-02	1.148313E-04
4.360132E+03	1.332699E-02	1.144377E-04
4.362758E+03	1.329524E-02	1.141651E-04
4.365385E+03	1.326954E-02	1.139444E-04
4.368011E+03	1.325261E-02	1.137990E-04
4.370637E+03	1.324737E-02	1.137541E-04
4.373264E+03	1.326037E-02	1.138657E-04
4.375890E+03	1.328396E-02	1.140682E-04
4.378516E+03	1.332704E-02	1.144381E-04
4.381143E+03	1.340363E-02	1.150959E-04
4.383769E+03	1.349952E-02	1.159193E-04
4.386395E+03	1.360319E-02	1.168094E-04
4.389022E+03	1.371756E-02	1.177915E-04
4.391648E+03	1.385262E-02	1.189513E-04
4.394274E+03	1.402622E-02	1.204420E-04
4.396901E+03	1.424141E-02	1.222898E-04
4.399527E+03	1.447560E-02	1.243008E-04
4.402153E+03	1.472223E-02	1.264185E-04
4.404780E+03	1.498455E-02	1.286711E-04
4.407406E+03	1.527656E-02	1.311785E-04
4.410032E+03	1.559132E-02	1.338814E-04
4.412659E+03	1.590666E-02	1.365892E-04
4.415285E+03	1.622057E-02	1.392847E-04
4.417912E+03	1.652996E-02	1.419414E-04
4.420538E+03	1.683573E-02	1.445670E-04
4.423164E+03	1.713119E-02	1.471041E-04
4.425791E+03	1.742615E-02	1.496369E-04
4.428417E+03	1.771985E-02	1.521589E-04
4.431043E+03	1.801614E-02	1.547031E-04
4.433670E+03	1.833095E-02	1.574063E-04
4.436296E+03	1.863998E-02	1.600600E-04
4.438922E+03	1.894525E-02	1.626812E-04
4.441549E+03	1.926304E-02	1.654101E-04
4.444175E+03	1.958248E-02	1.681531E-04
4.446801E+03	1.989633E-02	1.708481E-04
4.449428E+03	2.020097E-02	1.734640E-04
4.452054E+03	2.050545E-02	1.760786E-04
4.454680E+03	2.081883E-02	1.787696E-04
4.457307E+03	2.112663E-02	1.814126E-04
4.459933E+03	2.142523E-02	1.839767E-04
4.462559E+03	2.171645E-02	1.864773E-04
