#wls	flux	fluxerr
1.587302E+03	4.264517E-03	1.079648E-05
1.626984E+03	4.302359E-03	1.089229E-05
1.666667E+03	4.342841E-03	1.099477E-05
1.706349E+03	4.386641E-03	1.110566E-05
1.746032E+03	4.433807E-03	1.122507E-05
1.785714E+03	4.485033E-03	1.135476E-05
1.825397E+03	4.540392E-03	1.149491E-05
1.865079E+03	4.601874E-03	1.165057E-05
1.904762E+03	4.668946E-03	1.182037E-05
1.944444E+03	4.743004E-03	1.200787E-05
1.984127E+03	4.825469E-03	1.221664E-05
2.023810E+03	4.917791E-03	1.245037E-05
2.063492E+03	5.020192E-03	1.270962E-05
2.103175E+03	5.135483E-03	1.300150E-05
2.142857E+03	5.265268E-03	1.333008E-05
2.182540E+03	5.410585E-03	1.369798E-05
2.222222E+03	5.573199E-03	1.410967E-05
2.261905E+03	5.755626E-03	1.457152E-05
2.301587E+03	5.959238E-03	1.508701E-05
2.341270E+03	6.185562E-03	1.565999E-05
2.380952E+03	6.437608E-03	1.629810E-05
2.420635E+03	6.716028E-03	1.700297E-05
2.460317E+03	7.024338E-03	1.778352E-05
2.500000E+03	7.363102E-03	1.864117E-05
2.539683E+03	7.737205E-03	1.958828E-05
2.579365E+03	8.148012E-03	2.062832E-05
2.619048E+03	8.600739E-03	2.177449E-05
2.658730E+03	9.099230E-03	2.303652E-05
2.698413E+03	9.648732E-03	2.442770E-05
2.738095E+03	1.025678E-02	2.596708E-05
2.777778E+03	1.092843E-02	2.766750E-05
2.817460E+03	1.167345E-02	2.955369E-05
2.857143E+03	1.250014E-02	3.164662E-05
2.896825E+03	1.342049E-02	3.397667E-05
2.936508E+03	1.444995E-02	3.658295E-05
2.976190E+03	1.560848E-02	3.951601E-05
2.986111E+03	1.592160E-02	4.030871E-05
2.996032E+03	1.624387E-02	4.112460E-05
3.005952E+03	1.657638E-02	4.196644E-05
3.015873E+03	1.692029E-02	4.283710E-05
3.025794E+03	1.727592E-02	4.373745E-05
3.035714E+03	1.764275E-02	4.466616E-05
3.045635E+03	1.802195E-02	4.562618E-05
3.055556E+03	1.841387E-02	4.661840E-05
3.065476E+03	1.881884E-02	4.764367E-05
3.075397E+03	1.923806E-02	4.870501E-05
3.085317E+03	1.967099E-02	4.980105E-05
3.095238E+03	2.011973E-02	5.093714E-05
3.105159E+03	2.058280E-02	5.210947E-05
3.115079E+03	2.106319E-02	5.332567E-05
3.125000E+03	2.155843E-02	5.457948E-05
3.134921E+03	2.207146E-02	5.587832E-05
3.144841E+03	2.260153E-02	5.722029E-05
3.154762E+03	2.314961E-02	5.860786E-05
3.164683E+03	2.371473E-02	6.003860E-05
3.174603E+03	2.429764E-02	6.151433E-05
3.184524E+03	2.489891E-02	6.303659E-05
3.194444E+03	2.551697E-02	6.460132E-05
3.204365E+03	2.615187E-02	6.620869E-05
3.214286E+03	2.680329E-02	6.785790E-05
3.224206E+03	2.746947E-02	6.954447E-05
3.234127E+03	2.814696E-02	7.125966E-05
3.244048E+03	2.883473E-02	7.300089E-05
3.253968E+03	2.952897E-02	7.475849E-05
3.263889E+03	3.022438E-02	7.651908E-05
3.273810E+03	3.091931E-02	7.827843E-05
3.283730E+03	3.161222E-02	8.003266E-05
3.293651E+03	3.230599E-02	8.178909E-05
3.303571E+03	3.300408E-02	8.355644E-05
3.313492E+03	3.371210E-02	8.534894E-05
3.323413E+03	3.443882E-02	8.718876E-05
3.333333E+03	3.518575E-02	8.907977E-05
3.343254E+03	3.595394E-02	9.102460E-05
3.353175E+03	3.673767E-02	9.300876E-05
3.363095E+03	3.752452E-02	9.500084E-05
3.373016E+03	3.829224E-02	9.694448E-05
3.382937E+03	3.900486E-02	9.874862E-05
3.392857E+03	3.962389E-02	1.003158E-04
3.402778E+03	4.010786E-02	1.015411E-04
3.412698E+03	4.042083E-02	1.023334E-04
3.422619E+03	4.054257E-02	1.026416E-04
3.432540E+03	4.047687E-02	1.024753E-04
3.442460E+03	4.024645E-02	1.018919E-04
3.452381E+03	3.989848E-02	1.010110E-04
3.462302E+03	3.949938E-02	1.000006E-04
3.472222E+03	3.913491E-02	9.907786E-05
3.482143E+03	3.889077E-02	9.845976E-05
3.492063E+03	3.883769E-02	9.832539E-05
3.501984E+03	3.903799E-02	9.883250E-05
3.511905E+03	3.952858E-02	1.000745E-04
3.521825E+03	4.032525E-02	1.020915E-04
3.531746E+03	4.142847E-02	1.048845E-04
3.541667E+03	4.276309E-02	1.082633E-04
3.551587E+03	4.419783E-02	1.118957E-04
3.561508E+03	4.556435E-02	1.153553E-04
3.571429E+03	4.668500E-02	1.181924E-04
3.581349E+03	4.756059E-02	1.204092E-04
3.591270E+03	4.830521E-02	1.222943E-04
3.601190E+03	4.905021E-02	1.241804E-04
3.611111E+03	4.991168E-02	1.263614E-04
3.621032E+03	5.096218E-02	1.290210E-04
3.630952E+03	5.220894E-02	1.321774E-04
3.640873E+03	5.352906E-02	1.355195E-04
3.650794E+03	5.460719E-02	1.382490E-04
3.660714E+03	5.501176E-02	1.392733E-04
3.670635E+03	5.432712E-02	1.375400E-04
3.680556E+03	5.227724E-02	1.323503E-04
3.690476E+03	4.885990E-02	1.236986E-04
3.700397E+03	4.439283E-02	1.123893E-04
3.710317E+03	3.943091E-02	9.982724E-05
3.720238E+03	3.457057E-02	8.752233E-05
3.730159E+03	3.027833E-02	7.665566E-05
3.739257E+03	2.672863E-02	6.766887E-05
3.743466E+03	2.612259E-02	6.613457E-05
3.747676E+03	2.543476E-02	6.439319E-05
3.751885E+03	2.415109E-02	6.114332E-05
3.756094E+03	2.272181E-02	5.752481E-05
3.760304E+03	2.211762E-02	5.599519E-05
3.764514E+03	2.239130E-02	5.668805E-05
3.768723E+03	2.263168E-02	5.729663E-05
3.772933E+03	2.270422E-02	5.748028E-05
3.777142E+03	2.318455E-02	5.869632E-05
3.781351E+03	2.365357E-02	5.988374E-05
3.785561E+03	2.454117E-02	6.213088E-05
3.789771E+03	2.603014E-02	6.590052E-05
3.793980E+03	2.572895E-02	6.513798E-05
3.798189E+03	2.572735E-02	6.513394E-05
3.802399E+03	2.658710E-02	6.731056E-05
3.806608E+03	2.887611E-02	7.310566E-05
3.810818E+03	3.078538E-02	7.793935E-05
3.815028E+03	3.293827E-02	8.338984E-05
3.819237E+03	3.455299E-02	8.747780E-05
3.823446E+03	3.694624E-02	9.353681E-05
3.827656E+03	3.931640E-02	9.953733E-05
3.831866E+03	4.202655E-02	1.063986E-04
3.836075E+03	4.510064E-02	1.141813E-04
3.840285E+03	4.855384E-02	1.229238E-04
3.844494E+03	5.219672E-02	1.321464E-04
3.848703E+03	5.550581E-02	1.405241E-04
3.852913E+03	5.908802E-02	1.495931E-04
3.857123E+03	6.252113E-02	1.582848E-04
3.861332E+03	6.564261E-02	1.661874E-04
3.865542E+03	6.861959E-02	1.737242E-04
3.869751E+03	7.210443E-02	1.825468E-04
3.873960E+03	7.536995E-02	1.908141E-04
3.878171E+03	7.771379E-02	1.967480E-04
3.882380E+03	8.023394E-02	2.031283E-04
3.886589E+03	8.354461E-02	2.115099E-04
3.890799E+03	8.687960E-02	2.199531E-04
3.895008E+03	8.933975E-02	2.261815E-04
3.899218E+03	9.176977E-02	2.323335E-04
3.903428E+03	9.399653E-02	2.379710E-04
3.907637E+03	9.591059E-02	2.428169E-04
3.911846E+03	9.786710E-02	2.477702E-04
3.916056E+03	9.912575E-02	2.509567E-04
3.920265E+03	9.985789E-02	2.528102E-04
3.924475E+03	1.003660E-01	2.540967E-04
3.928685E+03	1.010595E-01	2.558524E-04
3.932894E+03	1.015335E-01	2.570525E-04
3.937103E+03	1.017226E-01	2.575312E-04
3.941312E+03	1.022065E-01	2.587561E-04
3.945522E+03	1.023662E-01	2.591606E-04
3.949732E+03	1.027419E-01	2.601116E-04
3.953941E+03	1.029532E-01	2.606466E-04
3.958151E+03	1.033693E-01	2.617001E-04
3.962360E+03	1.037870E-01	2.627577E-04
3.966569E+03	1.043112E-01	2.640846E-04
3.970780E+03	1.046514E-01	2.649460E-04
3.974989E+03	1.053466E-01	2.667061E-04
3.979198E+03	1.052475E-01	2.664551E-04
3.983408E+03	1.055645E-01	2.672576E-04
3.987617E+03	1.057676E-01	2.677719E-04
3.991827E+03	1.057112E-01	2.676290E-04
3.996037E+03	1.054912E-01	2.670720E-04
4.000246E+03	1.047530E-01	2.652032E-04
4.004455E+03	1.039345E-01	2.631311E-04
4.008665E+03	1.027770E-01	2.602006E-04
4.012874E+03	1.012091E-01	2.562310E-04
4.017084E+03	9.903763E-02	2.507336E-04
4.021294E+03	9.691089E-02	2.453493E-04
4.025503E+03	9.494181E-02	2.403642E-04
4.029712E+03	9.306508E-02	2.356129E-04
4.033922E+03	9.115254E-02	2.307709E-04
4.038132E+03	8.894383E-02	2.251791E-04
4.042341E+03	8.723759E-02	2.208594E-04
4.046551E+03	8.568632E-02	2.169321E-04
4.050760E+03	8.447629E-02	2.138686E-04
4.054969E+03	8.375882E-02	2.120522E-04
4.059180E+03	8.276226E-02	2.095292E-04
4.063389E+03	8.172513E-02	2.069035E-04
4.067598E+03	8.084442E-02	2.046738E-04
4.071808E+03	7.997718E-02	2.024782E-04
4.076017E+03	7.915800E-02	2.004043E-04
4.080226E+03	7.857276E-02	1.989227E-04
4.084437E+03	7.793378E-02	1.973050E-04
4.088646E+03	7.698404E-02	1.949005E-04
4.092855E+03	7.614284E-02	1.927708E-04
4.097064E+03	7.550075E-02	1.911453E-04
4.101274E+03	7.510718E-02	1.901489E-04
4.105484E+03	7.452179E-02	1.886668E-04
4.109693E+03	7.410274E-02	1.876059E-04
4.113903E+03	7.376150E-02	1.867420E-04
4.118112E+03	7.319201E-02	1.853002E-04
4.122321E+03	7.226746E-02	1.829595E-04
4.126531E+03	7.183654E-02	1.818686E-04
4.130741E+03	7.138217E-02	1.807183E-04
4.134950E+03	7.076671E-02	1.791601E-04
4.139160E+03	7.006347E-02	1.773797E-04
4.143369E+03	6.954340E-02	1.760630E-04
4.147579E+03	6.928577E-02	1.754108E-04
4.151789E+03	6.916142E-02	1.750960E-04
4.155998E+03	6.904139E-02	1.747921E-04
4.160207E+03	6.893424E-02	1.745208E-04
4.164417E+03	6.900300E-02	1.746949E-04
4.168626E+03	6.869851E-02	1.739240E-04
4.172836E+03	6.894078E-02	1.745374E-04
4.177046E+03	6.932421E-02	1.755081E-04
4.181255E+03	6.971153E-02	1.764887E-04
4.185464E+03	7.027189E-02	1.779074E-04
4.189674E+03	7.056209E-02	1.786421E-04
4.193884E+03	7.090763E-02	1.795169E-04
4.198093E+03	7.116944E-02	1.801797E-04
4.202303E+03	7.147588E-02	1.809555E-04
4.206512E+03	7.145088E-02	1.808922E-04
4.210721E+03	7.128492E-02	1.804720E-04
4.214931E+03	7.084154E-02	1.793495E-04
4.219141E+03	7.053508E-02	1.785737E-04
4.223350E+03	7.033338E-02	1.780630E-04
4.227560E+03	6.999965E-02	1.772181E-04
4.231769E+03	6.926763E-02	1.753649E-04
4.235978E+03	6.883874E-02	1.742791E-04
4.240188E+03	6.837402E-02	1.731025E-04
4.244398E+03	6.823751E-02	1.727569E-04
4.248607E+03	6.857774E-02	1.736183E-04
4.252816E+03	6.880077E-02	1.741829E-04
4.257026E+03	6.888121E-02	1.743866E-04
4.261235E+03	6.920603E-02	1.752089E-04
4.265445E+03	6.966448E-02	1.763696E-04
4.269655E+03	6.977650E-02	1.766532E-04
4.273864E+03	6.999252E-02	1.772001E-04
4.278073E+03	7.044398E-02	1.783430E-04
4.282283E+03	7.093759E-02	1.795927E-04
4.286493E+03	7.130794E-02	1.805303E-04
4.290702E+03	7.161031E-02	1.812958E-04
4.294912E+03	7.193165E-02	1.821094E-04
4.299121E+03	7.203265E-02	1.823651E-04
4.303330E+03	7.168286E-02	1.814795E-04
4.307541E+03	7.109019E-02	1.799791E-04
4.311750E+03	7.045797E-02	1.783784E-04
4.315959E+03	6.959808E-02	1.762015E-04
4.320169E+03	6.872424E-02	1.739892E-04
4.324378E+03	6.795690E-02	1.720465E-04
4.328587E+03	6.724106E-02	1.702342E-04
4.332798E+03	6.618186E-02	1.675526E-04
4.337007E+03	6.514900E-02	1.649377E-04
4.341216E+03	6.401166E-02	1.620583E-04
4.345426E+03	6.276573E-02	1.589040E-04
4.349635E+03	6.141762E-02	1.554910E-04
4.353845E+03	6.013387E-02	1.522409E-04
4.358055E+03	5.890807E-02	1.491376E-04
4.362264E+03	5.780752E-02	1.463513E-04
4.366473E+03	5.668471E-02	1.435087E-04
4.370683E+03	5.547228E-02	1.404392E-04
4.374892E+03	5.433230E-02	1.375531E-04
4.379102E+03	5.349391E-02	1.354305E-04
4.383312E+03	5.283486E-02	1.337620E-04
4.387521E+03	5.256722E-02	1.330844E-04
4.391730E+03	5.248678E-02	1.328808E-04
4.395939E+03	5.219009E-02	1.321297E-04
4.400150E+03	5.230934E-02	1.324316E-04
4.404359E+03	5.256495E-02	1.330787E-04
4.408568E+03	5.288543E-02	1.338901E-04
4.412778E+03	5.318261E-02	1.346424E-04
4.416987E+03	5.398490E-02	1.366736E-04
4.421196E+03	5.518278E-02	1.397063E-04
4.425407E+03	5.647202E-02	1.429702E-04
4.429616E+03	5.784203E-02	1.464387E-04
4.433825E+03	5.937227E-02	1.503128E-04
4.438035E+03	6.116308E-02	1.548466E-04
4.442244E+03	6.311160E-02	1.597796E-04
4.446454E+03	6.504402E-02	1.646720E-04
4.450664E+03	6.706283E-02	1.697830E-04
4.454873E+03	6.897765E-02	1.746307E-04
4.459082E+03	7.069872E-02	1.789880E-04
4.463292E+03	7.268580E-02	1.840186E-04
4.467502E+03	7.473391E-02	1.892038E-04
4.471711E+03	7.663630E-02	1.940201E-04
4.475921E+03	7.836177E-02	1.983885E-04
4.480130E+03	7.989382E-02	2.022672E-04
4.484339E+03	8.152455E-02	2.063957E-04
4.488550E+03	8.300785E-02	2.101510E-04
4.492759E+03	8.453556E-02	2.140187E-04
4.496968E+03	8.608051E-02	2.179300E-04
4.501178E+03	8.744901E-02	2.213947E-04
4.505387E+03	8.872655E-02	2.246290E-04
4.509596E+03	8.978422E-02	2.273067E-04
4.513807E+03	9.101948E-02	2.304340E-04
4.518016E+03	9.228030E-02	2.336260E-04
4.522225E+03	9.363107E-02	2.370458E-04
4.526435E+03	9.505706E-02	2.406560E-04
4.530644E+03	9.636509E-02	2.439675E-04
4.534853E+03	9.748465E-02	2.468019E-04
4.539063E+03	9.869396E-02	2.498635E-04
4.543273E+03	9.993894E-02	2.530154E-04
4.547482E+03	1.007967E-01	2.551870E-04
4.551691E+03	1.017359E-01	2.575647E-04
4.555902E+03	1.023484E-01	2.591154E-04
4.560111E+03	1.029845E-01	2.607259E-04
4.564320E+03	1.034227E-01	2.618354E-04
4.568530E+03	1.036096E-01	2.623084E-04
4.572739E+03	1.035392E-01	2.621301E-04
4.576948E+03	1.031024E-01	2.610243E-04
4.581159E+03	1.028614E-01	2.604141E-04
4.585368E+03	1.026012E-01	2.597554E-04
4.589577E+03	1.022125E-01	2.587715E-04
4.593787E+03	1.018028E-01	2.577343E-04
4.597996E+03	1.013576E-01	2.566072E-04
4.602206E+03	1.008565E-01	2.553383E-04
4.606416E+03	1.004084E-01	2.542040E-04
4.610625E+03	9.992703E-02	2.529853E-04
4.614834E+03	9.928281E-02	2.513543E-04
4.619044E+03	9.853974E-02	2.494731E-04
4.623253E+03	9.781504E-02	2.476384E-04
4.627463E+03	9.732628E-02	2.464009E-04
4.631673E+03	9.673249E-02	2.448977E-04
4.635882E+03	9.599490E-02	2.430303E-04
4.640091E+03	9.522648E-02	2.410849E-04
4.644301E+03	9.438428E-02	2.389527E-04
4.648511E+03	9.339682E-02	2.364527E-04
4.652720E+03	9.225620E-02	2.335650E-04
4.656930E+03	9.119370E-02	2.308751E-04
4.661139E+03	9.000084E-02	2.278551E-04
4.665348E+03	8.885752E-02	2.249606E-04
4.669558E+03	8.779832E-02	2.222790E-04
4.673768E+03	8.656841E-02	2.191653E-04
4.677977E+03	8.545937E-02	2.163575E-04
4.682187E+03	8.459314E-02	2.141645E-04
4.686396E+03	8.373330E-02	2.119876E-04
4.690605E+03	8.287582E-02	2.098167E-04
4.694815E+03	8.212430E-02	2.079141E-04
4.699025E+03	8.124926E-02	2.056988E-04
4.703234E+03	8.044363E-02	2.036591E-04
4.707443E+03	7.944596E-02	2.011333E-04
4.711653E+03	7.824461E-02	1.980919E-04
4.715863E+03	7.675518E-02	1.943211E-04
4.720072E+03	7.499662E-02	1.898689E-04
4.724282E+03	7.339365E-02	1.858107E-04
4.728491E+03	7.168369E-02	1.814816E-04
4.732700E+03	6.980055E-02	1.767141E-04
4.736910E+03	6.788572E-02	1.718663E-04
4.741120E+03	6.587494E-02	1.667756E-04
4.745329E+03	6.385096E-02	1.616515E-04
4.749539E+03	6.191230E-02	1.567434E-04
4.753748E+03	6.004073E-02	1.520051E-04
4.757957E+03	5.823814E-02	1.474415E-04
4.762168E+03	5.666864E-02	1.434680E-04
4.766377E+03	5.551979E-02	1.405595E-04
4.770586E+03	5.469447E-02	1.384700E-04
4.774796E+03	5.422579E-02	1.372834E-04
4.779005E+03	5.406683E-02	1.368810E-04
4.783214E+03	5.414099E-02	1.370687E-04
4.787425E+03	5.453524E-02	1.380669E-04
4.791634E+03	5.495812E-02	1.391375E-04
4.795843E+03	5.543340E-02	1.403408E-04
4.800053E+03	5.575836E-02	1.411635E-04
4.804262E+03	5.599889E-02	1.417724E-04
4.808472E+03	5.622661E-02	1.423489E-04
4.812682E+03	5.634649E-02	1.426524E-04
4.816891E+03	5.612153E-02	1.420829E-04
4.821100E+03	5.587878E-02	1.414683E-04
4.825310E+03	5.550582E-02	1.405241E-04
4.829519E+03	5.497150E-02	1.391714E-04
4.833729E+03	5.436302E-02	1.376309E-04
4.837938E+03	5.388135E-02	1.364114E-04
4.842148E+03	5.342192E-02	1.352483E-04
4.846357E+03	5.289630E-02	1.339176E-04
4.850566E+03	5.252249E-02	1.329712E-04
4.854777E+03	5.239013E-02	1.326361E-04
4.858986E+03	5.239669E-02	1.326527E-04
4.863195E+03	5.251239E-02	1.329456E-04
4.867405E+03	5.313342E-02	1.345179E-04
4.871614E+03	5.397713E-02	1.366539E-04
4.875824E+03	5.493364E-02	1.390755E-04
4.880034E+03	5.614277E-02	1.421366E-04
4.884243E+03	5.760171E-02	1.458303E-04
4.888452E+03	5.932321E-02	1.501886E-04
4.892662E+03	6.116471E-02	1.548507E-04
4.896872E+03	6.297847E-02	1.594426E-04
4.901081E+03	6.478198E-02	1.640086E-04
4.905291E+03	6.652690E-02	1.684262E-04
4.909500E+03	6.818831E-02	1.726323E-04
4.913709E+03	6.988412E-02	1.769256E-04
4.917919E+03	7.164316E-02	1.813790E-04
4.922129E+03	7.330343E-02	1.855823E-04
4.926338E+03	7.462104E-02	1.889181E-04
4.930548E+03	7.565672E-02	1.915401E-04
4.934757E+03	7.622531E-02	1.929796E-04
4.938966E+03	7.634185E-02	1.932747E-04
4.943176E+03	7.609213E-02	1.926425E-04
4.947386E+03	7.553671E-02	1.912363E-04
4.951595E+03	7.459840E-02	1.888608E-04
4.955805E+03	7.349977E-02	1.860794E-04
4.960014E+03	7.202048E-02	1.823342E-04
4.964224E+03	7.035593E-02	1.781201E-04
4.968434E+03	6.830157E-02	1.729191E-04
4.972643E+03	6.616637E-02	1.675134E-04
4.976852E+03	6.404732E-02	1.621486E-04
4.981062E+03	6.193114E-02	1.567911E-04
4.985271E+03	6.005810E-02	1.520491E-04
4.989481E+03	5.815718E-02	1.472365E-04
4.993690E+03	5.658515E-02	1.432566E-04
4.997900E+03	5.542000E-02	1.403068E-04
5.002109E+03	5.437605E-02	1.376639E-04
5.006318E+03	5.362960E-02	1.357741E-04
5.010529E+03	5.333168E-02	1.350198E-04
5.014738E+03	5.325938E-02	1.348368E-04
5.018947E+03	5.345869E-02	1.353414E-04
5.023157E+03	5.396791E-02	1.366306E-04
5.027366E+03	5.472989E-02	1.385597E-04
5.031575E+03	5.557007E-02	1.406867E-04
5.035786E+03	5.654410E-02	1.431527E-04
5.039995E+03	5.762917E-02	1.458998E-04
5.044204E+03	5.872443E-02	1.486726E-04
5.048414E+03	5.981870E-02	1.514430E-04
5.052623E+03	6.090455E-02	1.541921E-04
5.056833E+03	6.202093E-02	1.570184E-04
5.061043E+03	6.307151E-02	1.596781E-04
5.065252E+03	6.395487E-02	1.619145E-04
5.069461E+03	6.472885E-02	1.638741E-04
5.073671E+03	6.541599E-02	1.656137E-04
5.077880E+03	6.595032E-02	1.669664E-04
5.082090E+03	6.627724E-02	1.677941E-04
5.086300E+03	6.663815E-02	1.687078E-04
5.090509E+03	6.689901E-02	1.693682E-04
5.094718E+03	6.695575E-02	1.695119E-04
5.098928E+03	6.710927E-02	1.699005E-04
5.103138E+03	6.710148E-02	1.698808E-04
5.107347E+03	6.692390E-02	1.694312E-04
5.111557E+03	6.660813E-02	1.686318E-04
5.115766E+03	6.642240E-02	1.681616E-04
5.119975E+03	6.624437E-02	1.677109E-04
5.124185E+03	6.611219E-02	1.673762E-04
5.128395E+03	6.615086E-02	1.674741E-04
5.132604E+03	6.607711E-02	1.672874E-04
5.136813E+03	6.615015E-02	1.674723E-04
5.141023E+03	6.629175E-02	1.678308E-04
5.145232E+03	6.632652E-02	1.679189E-04
5.149442E+03	6.645324E-02	1.682397E-04
5.153652E+03	6.669138E-02	1.688426E-04
5.157861E+03	6.706756E-02	1.697949E-04
5.162070E+03	6.754892E-02	1.710136E-04
5.166280E+03	6.806155E-02	1.723114E-04
5.170490E+03	6.856231E-02	1.735792E-04
5.174699E+03	6.910499E-02	1.749531E-04
5.178909E+03	6.980569E-02	1.767271E-04
5.183118E+03	7.060670E-02	1.787550E-04
5.187327E+03	7.133821E-02	1.806070E-04
5.191537E+03	7.214661E-02	1.826536E-04
5.195747E+03	7.299783E-02	1.848086E-04
5.199956E+03	7.370157E-02	1.865903E-04
5.204166E+03	7.423171E-02	1.879324E-04
5.208375E+03	7.469352E-02	1.891016E-04
5.212584E+03	7.531580E-02	1.906770E-04
5.216795E+03	7.578126E-02	1.918554E-04
5.221004E+03	7.610113E-02	1.926652E-04
5.225213E+03	7.650011E-02	1.936753E-04
5.229423E+03	7.690390E-02	1.946976E-04
5.233632E+03	7.737592E-02	1.958926E-04
5.237841E+03	7.778402E-02	1.969258E-04
5.242052E+03	7.814602E-02	1.978423E-04
5.246261E+03	7.850425E-02	1.987492E-04
5.250470E+03	7.861851E-02	1.990385E-04
5.254680E+03	7.865427E-02	1.991290E-04
5.258889E+03	7.861883E-02	1.990393E-04
5.263099E+03	7.858410E-02	1.989514E-04
5.267309E+03	7.862697E-02	1.990599E-04
5.271518E+03	7.870009E-02	1.992450E-04
5.275727E+03	7.854380E-02	1.988493E-04
5.279937E+03	7.835377E-02	1.983683E-04
5.284147E+03	7.808145E-02	1.976788E-04
5.288356E+03	7.773407E-02	1.967994E-04
5.292565E+03	7.740560E-02	1.959678E-04
5.296775E+03	7.700063E-02	1.949425E-04
5.300984E+03	7.659044E-02	1.939040E-04
5.305194E+03	7.609718E-02	1.926552E-04
5.309404E+03	7.557644E-02	1.913369E-04
5.313613E+03	7.507839E-02	1.900760E-04
5.317822E+03	7.464270E-02	1.889729E-04
5.322032E+03	7.420025E-02	1.878528E-04
5.326241E+03	7.375794E-02	1.867330E-04
5.330451E+03	7.342769E-02	1.858969E-04
5.334661E+03	7.322645E-02	1.853874E-04
5.338870E+03	7.309890E-02	1.850645E-04
5.343079E+03	7.286981E-02	1.844845E-04
5.347289E+03	7.251026E-02	1.835742E-04
5.351498E+03	7.231715E-02	1.830853E-04
5.355708E+03	7.207431E-02	1.824705E-04
5.359918E+03	7.154396E-02	1.811279E-04
5.364127E+03	7.103633E-02	1.798427E-04
5.368336E+03	7.070866E-02	1.790131E-04
5.372546E+03	7.042052E-02	1.782836E-04
5.376756E+03	7.038865E-02	1.782030E-04
5.380965E+03	7.054610E-02	1.786016E-04
5.385175E+03	7.061635E-02	1.787794E-04
5.389384E+03	7.075298E-02	1.791253E-04
5.393593E+03	7.084352E-02	1.793546E-04
5.397804E+03	7.097834E-02	1.796959E-04
5.402013E+03	7.112512E-02	1.800675E-04
5.406222E+03	7.134171E-02	1.806158E-04
5.410432E+03	7.159240E-02	1.812505E-04
5.414641E+03	7.178032E-02	1.817262E-04
5.418851E+03	7.180874E-02	1.817982E-04
