#wls	flux	fluxerr
1.587302E+03	9.297465E-04	4.359965E-06
1.626984E+03	9.321823E-04	4.371387E-06
1.666667E+03	9.350946E-04	4.385044E-06
1.706349E+03	9.388822E-04	4.402806E-06
1.746032E+03	9.432220E-04	4.423157E-06
1.785714E+03	9.483410E-04	4.447162E-06
1.825397E+03	9.542909E-04	4.475063E-06
1.865079E+03	9.615011E-04	4.508875E-06
1.904762E+03	9.694830E-04	4.546305E-06
1.944444E+03	9.788719E-04	4.590334E-06
1.984127E+03	9.895703E-04	4.640503E-06
2.023810E+03	1.001678E-03	4.697283E-06
2.063492E+03	1.015503E-03	4.762111E-06
2.103175E+03	1.030984E-03	4.834709E-06
2.142857E+03	1.048663E-03	4.917615E-06
2.182540E+03	1.068525E-03	5.010751E-06
2.222222E+03	1.090769E-03	5.115063E-06
2.261905E+03	1.115830E-03	5.232588E-06
2.301587E+03	1.143983E-03	5.364608E-06
2.341270E+03	1.175540E-03	5.512590E-06
2.380952E+03	1.211075E-03	5.679227E-06
2.420635E+03	1.250794E-03	5.865489E-06
2.460317E+03	1.295619E-03	6.075690E-06
2.500000E+03	1.346124E-03	6.312530E-06
2.539683E+03	1.402729E-03	6.577974E-06
2.579365E+03	1.466648E-03	6.877718E-06
2.619048E+03	1.538751E-03	7.215836E-06
2.658730E+03	1.620272E-03	7.598120E-06
2.698413E+03	1.712597E-03	8.031074E-06
2.738095E+03	1.816981E-03	8.520573E-06
2.777778E+03	1.935063E-03	9.074306E-06
2.817460E+03	2.069179E-03	9.703230E-06
2.857143E+03	2.220538E-03	1.041301E-05
2.896825E+03	2.391464E-03	1.121456E-05
2.936508E+03	2.583412E-03	1.211468E-05
2.976190E+03	2.797956E-03	1.312077E-05
2.986111E+03	2.855052E-03	1.338851E-05
2.996032E+03	2.913796E-03	1.366399E-05
3.005952E+03	2.973790E-03	1.394532E-05
3.015873E+03	3.034989E-03	1.423231E-05
3.025794E+03	3.097737E-03	1.452656E-05
3.035714E+03	3.161989E-03	1.482787E-05
3.045635E+03	3.227688E-03	1.513596E-05
3.055556E+03	3.294362E-03	1.544862E-05
3.065476E+03	3.361917E-03	1.576541E-05
3.075397E+03	3.431078E-03	1.608973E-05
3.085317E+03	3.500912E-03	1.641721E-05
3.095238E+03	3.571711E-03	1.674922E-05
3.105159E+03	3.643770E-03	1.708714E-05
3.115079E+03	3.716084E-03	1.742624E-05
3.125000E+03	3.788909E-03	1.776775E-05
3.134921E+03	3.862064E-03	1.811081E-05
3.144841E+03	3.935793E-03	1.845655E-05
3.154762E+03	4.009443E-03	1.880192E-05
3.164683E+03	4.082776E-03	1.914582E-05
3.174603E+03	4.155546E-03	1.948706E-05
3.184524E+03	4.227943E-03	1.982656E-05
3.194444E+03	4.299695E-03	2.016303E-05
3.204365E+03	4.370048E-03	2.049295E-05
3.214286E+03	4.438694E-03	2.081486E-05
3.224206E+03	4.506250E-03	2.113166E-05
3.234127E+03	4.571457E-03	2.143744E-05
3.244048E+03	4.634447E-03	2.173283E-05
3.253968E+03	4.694885E-03	2.201624E-05
3.263889E+03	4.752899E-03	2.228830E-05
3.273810E+03	4.807202E-03	2.254295E-05
3.283730E+03	4.858395E-03	2.278301E-05
3.293651E+03	4.905657E-03	2.300464E-05
3.303571E+03	4.949096E-03	2.320835E-05
3.313492E+03	4.987847E-03	2.339006E-05
3.323413E+03	5.021461E-03	2.354769E-05
3.333333E+03	5.050346E-03	2.368315E-05
3.343254E+03	5.072977E-03	2.378927E-05
3.353175E+03	5.089554E-03	2.386701E-05
3.363095E+03	5.098344E-03	2.390823E-05
3.373016E+03	5.099298E-03	2.391270E-05
3.382937E+03	5.090936E-03	2.387349E-05
3.392857E+03	5.072290E-03	2.378605E-05
3.402778E+03	5.043083E-03	2.364909E-05
3.412698E+03	5.002683E-03	2.345964E-05
3.422619E+03	4.952402E-03	2.322384E-05
3.432540E+03	4.892887E-03	2.294476E-05
3.442460E+03	4.827038E-03	2.263596E-05
3.452381E+03	4.758511E-03	2.231461E-05
3.462302E+03	4.690650E-03	2.199639E-05
3.472222E+03	4.627302E-03	2.169932E-05
3.482143E+03	4.572458E-03	2.144213E-05
3.492063E+03	4.529248E-03	2.123950E-05
3.501984E+03	4.499787E-03	2.110135E-05
3.511905E+03	4.486366E-03	2.103841E-05
3.521825E+03	4.489413E-03	2.105270E-05
3.531746E+03	4.508698E-03	2.114313E-05
3.541667E+03	4.543031E-03	2.130414E-05
3.551587E+03	4.590999E-03	2.152908E-05
3.561508E+03	4.649270E-03	2.180234E-05
3.571429E+03	4.715245E-03	2.211172E-05
3.581349E+03	4.788009E-03	2.245294E-05
3.591270E+03	4.867423E-03	2.282535E-05
3.601190E+03	4.951846E-03	2.322124E-05
3.611111E+03	5.040337E-03	2.363621E-05
3.621032E+03	5.129480E-03	2.405424E-05
3.630952E+03	5.215783E-03	2.445895E-05
3.640873E+03	5.292906E-03	2.482061E-05
3.650794E+03	5.353948E-03	2.510686E-05
3.660714E+03	5.390156E-03	2.527665E-05
3.670635E+03	5.393803E-03	2.529375E-05
3.680556E+03	5.358942E-03	2.513028E-05
3.690476E+03	5.283581E-03	2.477688E-05
3.700397E+03	5.171191E-03	2.424984E-05
3.710317E+03	5.032198E-03	2.359804E-05
3.720238E+03	4.879295E-03	2.288102E-05
3.730159E+03	4.727581E-03	2.216957E-05
3.740079E+03	4.589960E-03	2.152420E-05
3.750000E+03	4.478219E-03	2.100021E-05
3.759921E+03	4.402250E-03	2.064396E-05
3.769841E+03	4.370069E-03	2.049305E-05
3.779762E+03	4.389103E-03	2.058230E-05
3.789683E+03	4.466821E-03	2.094676E-05
3.799603E+03	4.610772E-03	2.162180E-05
3.809524E+03	4.828688E-03	2.264370E-05
3.819444E+03	5.127449E-03	2.404471E-05
3.823909E+03	3.912927E-03	1.834932E-05
3.825367E+03	3.939101E-03	1.847206E-05
3.826825E+03	3.966364E-03	1.859991E-05
3.828284E+03	4.072880E-03	1.909941E-05
3.829742E+03	4.072399E-03	1.909715E-05
3.831200E+03	4.097308E-03	1.921396E-05
3.832659E+03	4.189686E-03	1.964715E-05
3.834117E+03	4.253049E-03	1.994429E-05
3.835575E+03	4.356134E-03	2.042770E-05
3.837034E+03	4.475364E-03	2.098682E-05
3.838492E+03	4.542544E-03	2.130185E-05
3.839950E+03	4.554588E-03	2.135833E-05
3.841409E+03	4.596016E-03	2.155261E-05
3.842867E+03	4.702925E-03	2.205394E-05
3.844325E+03	4.811290E-03	2.256211E-05
3.845784E+03	4.892449E-03	2.294270E-05
3.847242E+03	4.963817E-03	2.327737E-05
3.848700E+03	5.003081E-03	2.346150E-05
3.850159E+03	5.056314E-03	2.371113E-05
3.851617E+03	5.137847E-03	2.409347E-05
3.853075E+03	5.172582E-03	2.425636E-05
3.854534E+03	5.237249E-03	2.455961E-05
3.855992E+03	5.304642E-03	2.487564E-05
3.857450E+03	5.360063E-03	2.513553E-05
3.858909E+03	5.436169E-03	2.549243E-05
3.860367E+03	5.553641E-03	2.604330E-05
3.861825E+03	5.696155E-03	2.671161E-05
3.863284E+03	5.808919E-03	2.724040E-05
3.864742E+03	5.876694E-03	2.755823E-05
3.866200E+03	5.979307E-03	2.803942E-05
3.867659E+03	6.117303E-03	2.868654E-05
3.869117E+03	6.242605E-03	2.927413E-05
3.870575E+03	6.368093E-03	2.986260E-05
3.872034E+03	6.481974E-03	3.039664E-05
3.873492E+03	6.639225E-03	3.113405E-05
3.874950E+03	6.763277E-03	3.171578E-05
3.876409E+03	6.864108E-03	3.218862E-05
3.877867E+03	6.987444E-03	3.276699E-05
3.879325E+03	7.114052E-03	3.336071E-05
3.880784E+03	7.288389E-03	3.417825E-05
3.882242E+03	7.458924E-03	3.497795E-05
3.883700E+03	7.570849E-03	3.550282E-05
3.885159E+03	7.680784E-03	3.601834E-05
3.886617E+03	7.814133E-03	3.664368E-05
3.888075E+03	7.953115E-03	3.729542E-05
3.889534E+03	8.053991E-03	3.776847E-05
3.890992E+03	8.163764E-03	3.828324E-05
3.892450E+03	8.283161E-03	3.884314E-05
3.893909E+03	8.411276E-03	3.944392E-05
3.895367E+03	8.529958E-03	4.000047E-05
3.896825E+03	8.586934E-03	4.026765E-05
3.898284E+03	8.654077E-03	4.058252E-05
3.899742E+03	8.742824E-03	4.099869E-05
3.901200E+03	8.859891E-03	4.154766E-05
3.902659E+03	8.981865E-03	4.211965E-05
3.904117E+03	9.063365E-03	4.250184E-05
3.905575E+03	9.132526E-03	4.282616E-05
3.907034E+03	9.237815E-03	4.331990E-05
3.908492E+03	9.389036E-03	4.402904E-05
3.909950E+03	9.502686E-03	4.456199E-05
3.911409E+03	9.566237E-03	4.486001E-05
3.912867E+03	9.649580E-03	4.525084E-05
3.914325E+03	9.746724E-03	4.570638E-05
3.915784E+03	9.857670E-03	4.622666E-05
3.917242E+03	9.949379E-03	4.665672E-05
3.918700E+03	1.001949E-02	4.698548E-05
3.920159E+03	1.009250E-02	4.732788E-05
3.921617E+03	1.020401E-02	4.785081E-05
3.923075E+03	1.029665E-02	4.828521E-05
3.924534E+03	1.037168E-02	4.863704E-05
3.925992E+03	1.044979E-02	4.900336E-05
3.927450E+03	1.051793E-02	4.932288E-05
3.928909E+03	1.058080E-02	4.961772E-05
3.930367E+03	1.064168E-02	4.990321E-05
3.931825E+03	1.066570E-02	5.001584E-05
3.933284E+03	1.067701E-02	5.006888E-05
3.934742E+03	1.072355E-02	5.028714E-05
3.936200E+03	1.074031E-02	5.036574E-05
3.937659E+03	1.075181E-02	5.041965E-05
3.939117E+03	1.080744E-02	5.068053E-05
3.940575E+03	1.085363E-02	5.089714E-05
3.942034E+03	1.083045E-02	5.078840E-05
3.943492E+03	1.084595E-02	5.086109E-05
3.944950E+03	1.089287E-02	5.108113E-05
3.946409E+03	1.087568E-02	5.100053E-05
3.947867E+03	1.080454E-02	5.066694E-05
3.949325E+03	1.076283E-02	5.047134E-05
3.950784E+03	1.075145E-02	5.041798E-05
3.952242E+03	1.074353E-02	5.038081E-05
3.953700E+03	1.075032E-02	5.041265E-05
3.955159E+03	1.073694E-02	5.034993E-05
3.956617E+03	1.069723E-02	5.016369E-05
3.958075E+03	1.067005E-02	5.003623E-05
3.959534E+03	1.063160E-02	4.985595E-05
3.960992E+03	1.061151E-02	4.976171E-05
3.962450E+03	1.059668E-02	4.969218E-05
3.963909E+03	1.056732E-02	4.955450E-05
3.965367E+03	1.056957E-02	4.956506E-05
3.966825E+03	1.061198E-02	4.976393E-05
3.968284E+03	1.062132E-02	4.980774E-05
3.969742E+03	1.059596E-02	4.968880E-05
3.971200E+03	1.057877E-02	4.960821E-05
3.972659E+03	1.058957E-02	4.965885E-05
3.974117E+03	1.059420E-02	4.968053E-05
3.975575E+03	1.061481E-02	4.977720E-05
3.977034E+03	1.065487E-02	4.996506E-05
3.978492E+03	1.067367E-02	5.005324E-05
3.979950E+03	1.069738E-02	5.016442E-05
3.981409E+03	1.075963E-02	5.045630E-05
3.982867E+03	1.078971E-02	5.059735E-05
3.984325E+03	1.077126E-02	5.051085E-05
3.985784E+03	1.075736E-02	5.044565E-05
3.987242E+03	1.076163E-02	5.046570E-05
3.988700E+03	1.076990E-02	5.050450E-05
3.990159E+03	1.082108E-02	5.074447E-05
3.991617E+03	1.087534E-02	5.099894E-05
3.993075E+03	1.089908E-02	5.111023E-05
3.994534E+03	1.091936E-02	5.120533E-05
3.995992E+03	1.095436E-02	5.136950E-05
3.997450E+03	1.100155E-02	5.159079E-05
3.998909E+03	1.105075E-02	5.182148E-05
4.000367E+03	1.110794E-02	5.208970E-05
4.001825E+03	1.112169E-02	5.215418E-05
4.003284E+03	1.113108E-02	5.219821E-05
4.004742E+03	1.121574E-02	5.259522E-05
4.006200E+03	1.128186E-02	5.290529E-05
4.007659E+03	1.135708E-02	5.325801E-05
4.009117E+03	1.146685E-02	5.377277E-05
4.010575E+03	1.155681E-02	5.419462E-05
4.012034E+03	1.165477E-02	5.465402E-05
4.013492E+03	1.171710E-02	5.494630E-05
4.014950E+03	1.178235E-02	5.525226E-05
4.016409E+03	1.187506E-02	5.568702E-05
4.017867E+03	1.196778E-02	5.612182E-05
4.019325E+03	1.204612E-02	5.648921E-05
4.020784E+03	1.215158E-02	5.698376E-05
4.022242E+03	1.221395E-02	5.727624E-05
4.023700E+03	1.227268E-02	5.755165E-05
4.025159E+03	1.234760E-02	5.790294E-05
4.026617E+03	1.242162E-02	5.825005E-05
4.028075E+03	1.245108E-02	5.838821E-05
4.029534E+03	1.249801E-02	5.860829E-05
4.030992E+03	1.250346E-02	5.863386E-05
4.032450E+03	1.248982E-02	5.856988E-05
4.033909E+03	1.248709E-02	5.855706E-05
4.035367E+03	1.247599E-02	5.850503E-05
4.036825E+03	1.247126E-02	5.848286E-05
4.038284E+03	1.245544E-02	5.840865E-05
4.039742E+03	1.246982E-02	5.847609E-05
4.041200E+03	1.249129E-02	5.857678E-05
4.042659E+03	1.248094E-02	5.852823E-05
4.044117E+03	1.245274E-02	5.839598E-05
4.045575E+03	1.240289E-02	5.816222E-05
4.047034E+03	1.236888E-02	5.800275E-05
4.048492E+03	1.234141E-02	5.787392E-05
4.049950E+03	1.230702E-02	5.771267E-05
4.051409E+03	1.226755E-02	5.752757E-05
4.052867E+03	1.222899E-02	5.734673E-05
4.054325E+03	1.219678E-02	5.719570E-05
4.055784E+03	1.217368E-02	5.708737E-05
4.057242E+03	1.215021E-02	5.697733E-05
4.058700E+03	1.210419E-02	5.676150E-05
4.060159E+03	1.205014E-02	5.650804E-05
4.061617E+03	1.200501E-02	5.629640E-05
4.063075E+03	1.195643E-02	5.606860E-05
4.064534E+03	1.189909E-02	5.579973E-05
4.065992E+03	1.182666E-02	5.546004E-05
4.067450E+03	1.177880E-02	5.523561E-05
4.068909E+03	1.172711E-02	5.499321E-05
4.070367E+03	1.167887E-02	5.476703E-05
4.071825E+03	1.161954E-02	5.448877E-05
4.073284E+03	1.157075E-02	5.426001E-05
4.074742E+03	1.155201E-02	5.417212E-05
4.076200E+03	1.145534E-02	5.371879E-05
4.077659E+03	1.134992E-02	5.322445E-05
4.079117E+03	1.125998E-02	5.280267E-05
4.080575E+03	1.117932E-02	5.242441E-05
4.082034E+03	1.112233E-02	5.215715E-05
4.083492E+03	1.103528E-02	5.174897E-05
4.084950E+03	1.092128E-02	5.121437E-05
4.086409E+03	1.080855E-02	5.068573E-05
4.087867E+03	1.068161E-02	5.009044E-05
4.089325E+03	1.055848E-02	4.951305E-05
4.090784E+03	1.043498E-02	4.893392E-05
4.092242E+03	1.032295E-02	4.840857E-05
4.093700E+03	1.019689E-02	4.781741E-05
4.095159E+03	1.004860E-02	4.712201E-05
4.096617E+03	9.926167E-03	4.654787E-05
4.098075E+03	9.835425E-03	4.612234E-05
4.099534E+03	9.730831E-03	4.563186E-05
4.100992E+03	9.610199E-03	4.506616E-05
4.102450E+03	9.484642E-03	4.447737E-05
4.103909E+03	9.360716E-03	4.389624E-05
4.105367E+03	9.236783E-03	4.331506E-05
4.106825E+03	9.128876E-03	4.280904E-05
4.108284E+03	9.021692E-03	4.230641E-05
4.109742E+03	8.920150E-03	4.183024E-05
4.111200E+03	8.818056E-03	4.135148E-05
4.112659E+03	8.741104E-03	4.099062E-05
4.114117E+03	8.701325E-03	4.080408E-05
4.115575E+03	8.647328E-03	4.055087E-05
4.117034E+03	8.578932E-03	4.023013E-05
4.118492E+03	8.496133E-03	3.984185E-05
4.119950E+03	8.399657E-03	3.938944E-05
4.121409E+03	8.321769E-03	3.902419E-05
4.122867E+03	8.258458E-03	3.872730E-05
4.124325E+03	8.184389E-03	3.837996E-05
4.125784E+03	8.158442E-03	3.825828E-05
4.127242E+03	8.102961E-03	3.799810E-05
4.128700E+03	8.036720E-03	3.768747E-05
4.130159E+03	7.991077E-03	3.747344E-05
4.131617E+03	7.917536E-03	3.712857E-05
4.133075E+03	7.843627E-03	3.678198E-05
4.134534E+03	7.800709E-03	3.658072E-05
4.135992E+03	7.753596E-03	3.635979E-05
4.137450E+03	7.710857E-03	3.615937E-05
4.138909E+03	7.714070E-03	3.617443E-05
4.140367E+03	7.694123E-03	3.608090E-05
4.141825E+03	7.646638E-03	3.585822E-05
4.143284E+03	7.618483E-03	3.572619E-05
4.144742E+03	7.578472E-03	3.553856E-05
4.146200E+03	7.533168E-03	3.532611E-05
4.147659E+03	7.484944E-03	3.509997E-05
4.149117E+03	7.463531E-03	3.499956E-05
4.150575E+03	7.459265E-03	3.497955E-05
4.152034E+03	7.467950E-03	3.502028E-05
4.153492E+03	7.472259E-03	3.504049E-05
4.154950E+03	7.436434E-03	3.487249E-05
4.156409E+03	7.464463E-03	3.500393E-05
4.157867E+03	7.474978E-03	3.505324E-05
4.159325E+03	7.449917E-03	3.493571E-05
4.160784E+03	7.470471E-03	3.503210E-05
4.162242E+03	7.504896E-03	3.519353E-05
4.163700E+03	7.523084E-03	3.527882E-05
4.165159E+03	7.512623E-03	3.522977E-05
4.166617E+03	7.504170E-03	3.519013E-05
4.168075E+03	7.486958E-03	3.510942E-05
4.169534E+03	7.474856E-03	3.505266E-05
4.170992E+03	7.457096E-03	3.496938E-05
4.172450E+03	7.461785E-03	3.499137E-05
4.173909E+03	7.453517E-03	3.495260E-05
4.175367E+03	7.477558E-03	3.506533E-05
4.176825E+03	7.488094E-03	3.511474E-05
4.178284E+03	7.475812E-03	3.505715E-05
4.179742E+03	7.432313E-03	3.485316E-05
4.181200E+03	7.413458E-03	3.476475E-05
4.182659E+03	7.379265E-03	3.460440E-05
4.184117E+03	7.342150E-03	3.443035E-05
4.185575E+03	7.299007E-03	3.422804E-05
4.187034E+03	7.257139E-03	3.403170E-05
4.188492E+03	7.263113E-03	3.405972E-05
4.189950E+03	7.238043E-03	3.394215E-05
4.191409E+03	7.191787E-03	3.372524E-05
4.192867E+03	7.184065E-03	3.368902E-05
4.194325E+03	7.176159E-03	3.365195E-05
4.195784E+03	7.145789E-03	3.350953E-05
4.197242E+03	7.123088E-03	3.340308E-05
4.198700E+03	7.100021E-03	3.329491E-05
4.200159E+03	7.081337E-03	3.320729E-05
4.201617E+03	7.079643E-03	3.319935E-05
4.203075E+03	7.058766E-03	3.310145E-05
4.204534E+03	7.070044E-03	3.315433E-05
4.205992E+03	7.052090E-03	3.307014E-05
4.207450E+03	7.042907E-03	3.302708E-05
4.208909E+03	7.053822E-03	3.307826E-05
4.210367E+03	7.039889E-03	3.301293E-05
4.211825E+03	7.036738E-03	3.299815E-05
4.213284E+03	7.035779E-03	3.299365E-05
4.214742E+03	7.064612E-03	3.312886E-05
4.216200E+03	7.090158E-03	3.324866E-05
4.217659E+03	7.108032E-03	3.333247E-05
4.219117E+03	7.138884E-03	3.347715E-05
4.220575E+03	7.184365E-03	3.369043E-05
4.222034E+03	7.228023E-03	3.389516E-05
4.223492E+03	7.251028E-03	3.400304E-05
4.224950E+03	7.233270E-03	3.391977E-05
4.226409E+03	7.255366E-03	3.402338E-05
4.227867E+03	7.286241E-03	3.416817E-05
4.229325E+03	7.331565E-03	3.438071E-05
4.230784E+03	7.373969E-03	3.457956E-05
4.232242E+03	7.387303E-03	3.464209E-05
4.233700E+03	7.405577E-03	3.472779E-05
4.235159E+03	7.422209E-03	3.480578E-05
4.236617E+03	7.445793E-03	3.491637E-05
4.238075E+03	7.495169E-03	3.514792E-05
4.239534E+03	7.534124E-03	3.533060E-05
4.240992E+03	7.556622E-03	3.543610E-05
4.242450E+03	7.575649E-03	3.552532E-05
4.243909E+03	7.618826E-03	3.572780E-05
4.245367E+03	7.655970E-03	3.590198E-05
4.246825E+03	7.647932E-03	3.586429E-05
4.248284E+03	7.629465E-03	3.577769E-05
4.249742E+03	7.629296E-03	3.577689E-05
4.251200E+03	7.654925E-03	3.589708E-05
4.252659E+03	7.690624E-03	3.606449E-05
4.254117E+03	7.722117E-03	3.621217E-05
4.255575E+03	7.756361E-03	3.637275E-05
4.257034E+03	7.757850E-03	3.637974E-05
4.258492E+03	7.767393E-03	3.642449E-05
4.259950E+03	7.783895E-03	3.650187E-05
4.261409E+03	7.793260E-03	3.654579E-05
4.262867E+03	7.805922E-03	3.660517E-05
4.264325E+03	7.816573E-03	3.665512E-05
4.265784E+03	7.823748E-03	3.668876E-05
4.267242E+03	7.819758E-03	3.667005E-05
4.268700E+03	7.801305E-03	3.658352E-05
4.270159E+03	7.772964E-03	3.645061E-05
4.271617E+03	7.771172E-03	3.644221E-05
4.273075E+03	7.775789E-03	3.646386E-05
4.274534E+03	7.781141E-03	3.648896E-05
4.275992E+03	7.744557E-03	3.631740E-05
4.277450E+03	7.735259E-03	3.627380E-05
4.278909E+03	7.734204E-03	3.626885E-05
4.280367E+03	7.726189E-03	3.623127E-05
4.281825E+03	7.728981E-03	3.624436E-05
4.283284E+03	7.729029E-03	3.624458E-05
4.284742E+03	7.714787E-03	3.617780E-05
4.286200E+03	7.703477E-03	3.612476E-05
4.287659E+03	7.679343E-03	3.601159E-05
4.289117E+03	7.642930E-03	3.584083E-05
4.290575E+03	7.640231E-03	3.582817E-05
4.292034E+03	7.645228E-03	3.585161E-05
4.293492E+03	7.633185E-03	3.579513E-05
4.294950E+03	7.648448E-03	3.586671E-05
4.296409E+03	7.667746E-03	3.595720E-05
4.297867E+03	7.678432E-03	3.600732E-05
4.299325E+03	7.689855E-03	3.606088E-05
4.300784E+03	7.696514E-03	3.609211E-05
4.302242E+03	7.719124E-03	3.619814E-05
4.303700E+03	7.761537E-03	3.639703E-05
4.305159E+03	7.815688E-03	3.665096E-05
4.306617E+03	7.843446E-03	3.678113E-05
4.308075E+03	7.859840E-03	3.685801E-05
4.309534E+03	7.884856E-03	3.697532E-05
4.310992E+03	7.906941E-03	3.707889E-05
4.312450E+03	7.905008E-03	3.706982E-05
4.313909E+03	7.923799E-03	3.715794E-05
4.315367E+03	7.972673E-03	3.738713E-05
4.316825E+03	8.016418E-03	3.759227E-05
4.318284E+03	8.063470E-03	3.781292E-05
4.319742E+03	8.107228E-03	3.801811E-05
4.321200E+03	8.119623E-03	3.807624E-05
4.322659E+03	8.138441E-03	3.816448E-05
4.324117E+03	8.189921E-03	3.840590E-05
4.325575E+03	8.225812E-03	3.857420E-05
4.327034E+03	8.231617E-03	3.860143E-05
4.328492E+03	8.249169E-03	3.868373E-05
4.329950E+03	8.292781E-03	3.888825E-05
4.331409E+03	8.311993E-03	3.897834E-05
4.332867E+03	8.329372E-03	3.905984E-05
4.334325E+03	8.356484E-03	3.918698E-05
4.335784E+03	8.385803E-03	3.932447E-05
4.337242E+03	8.412924E-03	3.945165E-05
4.338700E+03	8.421141E-03	3.949018E-05
4.340159E+03	8.441845E-03	3.958727E-05
4.341617E+03	8.477057E-03	3.975239E-05
4.343075E+03	8.505848E-03	3.988741E-05
4.344534E+03	8.519037E-03	3.994926E-05
4.345992E+03	8.535902E-03	4.002834E-05
4.347450E+03	8.553505E-03	4.011089E-05
4.348909E+03	8.569643E-03	4.018657E-05
4.350367E+03	8.581375E-03	4.024158E-05
4.351825E+03	8.576029E-03	4.021651E-05
4.353284E+03	8.581155E-03	4.024055E-05
4.354742E+03	8.584261E-03	4.025512E-05
4.356200E+03	8.622092E-03	4.043252E-05
4.357659E+03	8.622632E-03	4.043505E-05
4.359117E+03	8.612150E-03	4.038590E-05
4.360575E+03	8.620044E-03	4.042292E-05
4.362034E+03	8.612503E-03	4.038756E-05
4.363492E+03	8.617093E-03	4.040908E-05
4.364950E+03	8.618744E-03	4.041682E-05
4.366409E+03	8.618743E-03	4.041682E-05
4.367867E+03	8.602753E-03	4.034183E-05
4.369325E+03	8.609740E-03	4.037460E-05
4.370784E+03	8.618199E-03	4.041427E-05
4.372242E+03	8.600739E-03	4.033239E-05
4.373700E+03	8.561952E-03	4.015050E-05
4.375159E+03	8.544122E-03	4.006689E-05
4.376617E+03	8.534198E-03	4.002035E-05
4.378075E+03	8.533469E-03	4.001693E-05
4.379534E+03	8.529983E-03	4.000058E-05
4.380992E+03	8.526130E-03	3.998252E-05
4.382450E+03	8.520072E-03	3.995411E-05
4.383909E+03	8.500035E-03	3.986015E-05
4.385367E+03	8.484412E-03	3.978688E-05
4.386825E+03	8.469525E-03	3.971707E-05
4.388284E+03	8.449117E-03	3.962137E-05
4.389742E+03	8.414173E-03	3.945750E-05
4.391200E+03	8.367818E-03	3.924013E-05
4.392659E+03	8.322932E-03	3.902964E-05
