#wls	flux	fluxerr
1.587302E+03	5.825188E-04	2.006864E-05
1.626984E+03	5.880063E-04	2.017124E-05
1.666667E+03	5.939977E-04	2.028750E-05
1.706349E+03	6.006283E-04	2.042169E-05
1.746032E+03	6.077240E-04	2.056754E-05
1.785714E+03	6.155319E-04	2.073304E-05
1.825397E+03	6.239889E-04	2.091563E-05
1.865079E+03	6.332482E-04	2.111999E-05
1.904762E+03	6.432539E-04	2.134373E-05
1.944444E+03	6.542806E-04	2.159540E-05
1.984127E+03	6.662846E-04	2.187289E-05
2.023810E+03	6.793364E-04	2.217781E-05
2.063492E+03	6.935131E-04	2.251192E-05
2.103175E+03	7.091292E-04	2.288458E-05
2.142857E+03	7.261701E-04	2.329428E-05
2.182540E+03	7.447417E-04	2.374336E-05
2.222222E+03	7.649598E-04	2.423436E-05
2.261905E+03	7.871942E-04	2.477767E-05
2.301587E+03	8.114680E-04	2.537249E-05
2.341270E+03	8.379332E-04	2.602197E-05
2.380952E+03	8.670102E-04	2.673735E-05
2.420635E+03	8.987528E-04	2.751822E-05
2.460317E+03	9.333463E-04	2.836807E-05
2.500000E+03	9.713968E-04	2.930285E-05
2.539683E+03	1.012840E-03	3.031779E-05
2.579365E+03	1.058015E-03	3.142017E-05
2.619048E+03	1.107417E-03	3.262132E-05
2.658730E+03	1.161084E-03	3.391878E-05
2.698413E+03	1.219320E-03	3.531760E-05
2.738095E+03	1.282393E-03	3.682146E-05
2.777778E+03	1.350688E-03	3.843691E-05
2.817460E+03	1.423840E-03	4.014891E-05
2.857143E+03	1.502395E-03	4.196818E-05
2.896825E+03	1.585923E-03	4.387775E-05
2.936508E+03	1.674188E-03	4.586630E-05
2.976190E+03	1.766999E-03	4.792392E-05
2.986111E+03	1.790898E-03	4.844821E-05
2.996032E+03	1.815012E-03	4.897461E-05
3.005952E+03	1.839329E-03	4.950268E-05
3.015873E+03	1.863833E-03	5.003200E-05
3.025794E+03	1.888710E-03	5.056749E-05
3.035714E+03	1.913549E-03	5.109805E-05
3.045635E+03	1.938732E-03	5.163389E-05
3.055556E+03	1.964045E-03	5.216920E-05
3.065476E+03	1.989678E-03	5.270899E-05
3.075397E+03	2.015413E-03	5.324742E-05
3.085317E+03	2.041233E-03	5.378401E-05
3.095238E+03	2.067125E-03	5.431839E-05
3.105159E+03	2.093281E-03	5.485552E-05
3.115079E+03	2.119480E-03	5.538964E-05
3.125000E+03	2.145920E-03	5.592581E-05
3.134921E+03	2.172376E-03	5.645818E-05
3.144841E+03	2.198841E-03	5.698649E-05
3.154762E+03	2.225512E-03	5.751588E-05
3.164683E+03	2.252383E-03	5.804610E-05
3.174603E+03	2.279234E-03	5.857144E-05
3.184524E+03	2.306057E-03	5.909172E-05
3.194444E+03	2.333279E-03	5.961781E-05
3.204365E+03	2.360252E-03	6.013311E-05
3.214286E+03	2.387618E-03	6.065402E-05
3.224206E+03	2.414954E-03	6.116965E-05
3.234127E+03	2.442473E-03	6.168544E-05
3.244048E+03	2.470185E-03	6.220157E-05
3.253968E+03	2.497877E-03	6.271266E-05
3.263889E+03	2.525779E-03	6.322441E-05
3.273810E+03	2.553900E-03	6.373705E-05
3.283730E+03	2.582255E-03	6.425086E-05
3.293651E+03	2.610857E-03	6.476612E-05
3.303571E+03	2.639505E-03	6.527778E-05
3.313492E+03	2.668657E-03	6.579711E-05
3.323413E+03	2.697891E-03	6.631364E-05
3.333333E+03	2.727672E-03	6.683875E-05
3.343254E+03	2.757586E-03	6.736215E-05
3.353175E+03	2.788104E-03	6.789531E-05
3.363095E+03	2.819046E-03	6.843371E-05
3.373016E+03	2.850238E-03	6.897302E-05
3.382937E+03	2.882187E-03	6.952543E-05
3.392857E+03	2.914751E-03	7.008733E-05
3.402778E+03	2.948259E-03	7.066646E-05
3.412698E+03	2.982622E-03	7.126049E-05
3.422619E+03	3.017789E-03	7.186800E-05
3.432540E+03	3.054635E-03	7.250955E-05
3.442460E+03	3.092741E-03	7.317486E-05
3.452381E+03	3.132847E-03	7.388107E-05
3.462302E+03	3.175284E-03	7.463549E-05
3.472222E+03	3.220194E-03	7.544091E-05
3.482143E+03	3.267962E-03	7.630574E-05
3.492063E+03	3.319213E-03	7.724384E-05
3.501984E+03	3.374115E-03	7.825831E-05
3.511905E+03	3.433265E-03	7.936205E-05
3.521825E+03	3.496989E-03	8.056164E-05
3.531746E+03	3.565316E-03	8.185659E-05
3.541667E+03	3.638637E-03	8.325483E-05
3.551587E+03	3.716981E-03	8.475579E-05
3.561508E+03	3.800151E-03	8.635382E-05
3.571429E+03	3.887331E-03	8.802931E-05
3.581349E+03	3.977644E-03	8.976153E-05
3.591270E+03	4.069503E-03	9.151404E-05
3.601190E+03	4.161043E-03	9.324465E-05
3.611111E+03	4.250284E-03	9.490926E-05
3.621032E+03	4.335011E-03	9.645912E-05
3.630952E+03	4.413895E-03	9.786583E-05
3.640873E+03	4.485040E-03	9.908892E-05
3.650794E+03	4.546821E-03	1.000944E-04
3.660714E+03	4.598735E-03	1.008734E-04
3.670635E+03	4.639890E-03	1.014089E-04
3.680556E+03	4.670105E-03	1.016994E-04
3.690476E+03	4.689696E-03	1.017543E-04
3.700397E+03	4.699524E-03	1.015949E-04
3.710317E+03	4.701274E-03	1.012596E-04
3.720238E+03	4.696457E-03	1.007829E-04
3.730159E+03	4.688144E-03	1.002319E-04
3.740079E+03	4.679131E-03	9.966704E-05
3.750000E+03	4.673049E-03	9.916555E-05
3.759921E+03	4.673226E-03	9.879707E-05
3.769841E+03	4.683040E-03	9.863125E-05
3.779762E+03	4.706733E-03	9.875476E-05
3.789683E+03	4.746997E-03	9.922055E-05
3.799603E+03	4.807487E-03	1.001008E-04
3.809524E+03	4.890924E-03	1.014470E-04
3.819444E+03	5.000187E-03	1.033131E-04
3.829365E+03	5.137293E-03	1.057344E-04
3.839286E+03	5.303947E-03	1.087392E-04
3.849206E+03	5.501343E-03	1.123447E-04
3.859127E+03	5.729180E-03	1.165374E-04
3.869048E+03	5.986149E-03	1.212833E-04
3.878968E+03	6.269478E-03	1.265194E-04
3.888889E+03	6.575073E-03	1.321570E-04
3.898810E+03	6.896686E-03	1.380655E-04
3.908730E+03	7.227238E-03	1.441000E-04
3.918651E+03	7.557681E-03	1.500785E-04
3.928571E+03	7.879546E-03	1.558334E-04
3.938492E+03	8.183312E-03	1.611793E-04
3.948413E+03	8.460151E-03	1.659473E-04
3.958333E+03	8.702374E-03	1.699937E-04
3.968254E+03	8.902346E-03	1.731784E-04
3.978175E+03	9.055118E-03	1.754156E-04
3.988095E+03	9.155840E-03	1.766234E-04
3.998016E+03	9.202300E-03	1.767719E-04
4.007937E+03	9.194001E-03	1.758648E-04
4.017857E+03	9.131209E-03	1.739206E-04
4.027778E+03	9.017096E-03	1.710127E-04
4.037698E+03	8.856006E-03	1.672357E-04
4.047619E+03	8.654877E-03	1.627317E-04
4.057540E+03	8.420663E-03	1.576406E-04
4.067460E+03	8.161860E-03	1.521289E-04
4.077381E+03	7.887626E-03	1.463728E-04
4.087302E+03	7.606479E-03	1.405334E-04
4.097222E+03	7.326776E-03	1.347661E-04
4.107143E+03	7.056147E-03	1.292105E-04
4.117063E+03	6.801550E-03	1.239911E-04
4.126984E+03	6.568275E-03	1.192001E-04
4.136905E+03	6.361237E-03	1.149211E-04
4.146825E+03	6.184036E-03	1.112124E-04
4.156746E+03	6.039239E-03	1.081127E-04
4.166667E+03	5.928352E-03	1.056407E-04
4.176587E+03	5.852345E-03	1.038056E-04
4.186508E+03	5.811729E-03	1.026076E-04
4.196429E+03	5.806072E-03	1.020304E-04
4.206349E+03	5.834521E-03	1.020506E-04
4.216270E+03	5.895408E-03	1.026308E-04
4.226190E+03	5.986928E-03	1.037316E-04
4.236111E+03	6.105960E-03	1.052917E-04
4.246032E+03	6.249138E-03	1.072466E-04
4.255952E+03	6.412744E-03	1.095269E-04
4.265873E+03	6.592234E-03	1.120502E-04
4.275794E+03	6.782732E-03	1.147303E-04
4.285714E+03	6.978378E-03	1.174658E-04
4.295635E+03	7.172637E-03	1.201459E-04
4.305556E+03	7.356530E-03	1.226216E-04
4.315476E+03	7.519605E-03	1.247218E-04
4.325397E+03	7.649923E-03	1.262550E-04
4.335317E+03	7.734183E-03	1.270106E-04
4.345238E+03	7.760236E-03	1.268016E-04
4.355159E+03	7.721507E-03	1.255356E-04
4.365079E+03	7.623170E-03	1.233120E-04
4.375000E+03	7.481891E-03	1.204139E-04
4.384921E+03	7.317795E-03	1.171742E-04
4.394841E+03	7.150634E-03	1.139129E-04
4.404762E+03	6.997402E-03	1.109002E-04
4.414683E+03	6.872331E-03	1.083571E-04
4.424603E+03	6.787477E-03	1.064656E-04
4.434524E+03	6.751903E-03	1.053572E-04
4.444444E+03	6.773183E-03	1.051376E-04
4.454365E+03	6.856790E-03	1.058771E-04
4.464286E+03	7.006741E-03	1.076223E-04
4.474206E+03	7.224492E-03	1.103792E-04
4.484127E+03	7.509618E-03	1.141247E-04
4.494048E+03	7.858273E-03	1.187843E-04
4.503968E+03	8.263628E-03	1.242398E-04
4.513889E+03	8.715431E-03	1.303240E-04
4.523810E+03	9.200993E-03	1.368369E-04
4.533730E+03	9.704314E-03	1.435335E-04
4.543651E+03	1.020918E-02	1.501710E-04
4.553571E+03	1.069723E-02	1.564804E-04
4.563492E+03	1.115079E-02	1.622085E-04
4.573413E+03	1.155167E-02	1.671009E-04
4.583333E+03	1.188182E-02	1.709103E-04
4.593254E+03	1.212577E-02	1.734329E-04
4.603175E+03	1.227044E-02	1.745037E-04
4.613095E+03	1.230814E-02	1.740381E-04
4.623016E+03	1.223791E-02	1.720488E-04
4.632937E+03	1.206740E-02	1.686690E-04
4.642857E+03	1.181039E-02	1.641148E-04
4.652778E+03	1.148547E-02	1.586639E-04
4.662698E+03	1.111419E-02	1.526291E-04
4.672619E+03	1.071727E-02	1.463046E-04
4.682540E+03	1.031449E-02	1.399650E-04
4.692460E+03	9.922495E-03	1.338364E-04
4.702381E+03	9.554314E-03	1.280909E-04
4.712302E+03	9.219010E-03	1.228434E-04
4.722222E+03	8.921663E-03	1.181533E-04
4.732143E+03	8.664619E-03	1.140420E-04
4.742063E+03	8.446979E-03	1.104882E-04
4.751984E+03	8.266727E-03	1.074559E-04
4.761905E+03	8.121102E-03	1.049003E-04
4.771825E+03	8.007742E-03	1.027828E-04
4.781746E+03	7.924945E-03	1.010738E-04
4.791667E+03	7.871935E-03	9.975604E-05
4.801587E+03	7.847148E-03	9.880256E-05
4.811508E+03	7.848139E-03	9.817598E-05
4.821429E+03	7.871018E-03	9.782174E-05
4.831349E+03	7.911288E-03	9.767906E-05
4.841270E+03	7.964004E-03	9.768313E-05
4.851190E+03	8.025614E-03	9.778778E-05
4.861111E+03	8.097109E-03	9.800294E-05
4.871032E+03	8.184213E-03	9.839517E-05
4.880952E+03	8.297316E-03	9.908491E-05
4.890873E+03	8.449207E-03	1.002178E-04
4.900794E+03	8.651430E-03	1.019205E-04
4.910714E+03	8.910837E-03	1.042615E-04
4.920635E+03	9.224268E-03	1.071905E-04
4.930556E+03	9.575432E-03	1.105069E-04
4.940476E+03	9.933603E-03	1.138500E-04
4.950397E+03	1.025642E-02	1.167365E-04
4.960317E+03	1.049691E-02	1.186443E-04
4.970238E+03	1.061293E-02	1.191206E-04
4.980159E+03	1.057872E-02	1.179076E-04
4.990079E+03	1.039257E-02	1.150224E-04
5.000000E+03	1.007681E-02	1.107458E-04
5.009921E+03	9.671918E-03	1.055495E-04
5.019841E+03	9.226143E-03	9.997693E-05
5.029762E+03	8.787301E-03	9.455162E-05
5.039683E+03	8.396886E-03	8.971493E-05
5.049603E+03	8.085959E-03	8.578508E-05
5.059524E+03	7.874158E-03	8.295077E-05
5.069444E+03	7.770545E-03	8.128454E-05
5.079365E+03	7.774263E-03	8.075358E-05
5.089286E+03	7.876230E-03	8.124092E-05
5.099206E+03	8.061596E-03	8.257361E-05
5.109127E+03	8.310444E-03	8.453184E-05
5.119048E+03	8.600545E-03	8.687849E-05
5.128968E+03	8.908113E-03	8.936736E-05
5.138889E+03	9.212261E-03	9.178794E-05
5.148810E+03	9.496389E-03	9.397796E-05
5.158730E+03	9.750901E-03	9.584843E-05
5.168651E+03	9.973158E-03	9.738080E-05
5.178571E+03	1.016680E-02	9.861792E-05
5.188492E+03	1.033933E-02	9.963892E-05
5.198413E+03	1.049928E-02	1.005305E-04
5.208333E+03	1.065419E-02	1.013680E-04
5.218254E+03	1.080979E-02	1.022078E-04
5.228175E+03	1.096958E-02	1.030839E-04
5.238095E+03	1.113446E-02	1.040053E-04
5.248016E+03	1.130417E-02	1.049701E-04
5.257937E+03	1.147696E-02	1.059629E-04
5.267857E+03	1.165049E-02	1.069632E-04
5.277778E+03	1.182166E-02	1.079442E-04
5.287698E+03	1.198567E-02	1.088644E-04
5.297619E+03	1.213616E-02	1.096689E-04
5.307540E+03	1.226367E-02	1.102763E-04
5.317460E+03	1.235627E-02	1.105842E-04
5.327381E+03	1.239923E-02	1.104673E-04
5.337302E+03	1.237773E-02	1.098013E-04
5.347222E+03	1.227929E-02	1.084839E-04
5.357143E+03	1.209911E-02	1.064813E-04
5.367063E+03	1.184453E-02	1.038659E-04
5.376984E+03	1.153650E-02	1.008267E-04
5.386905E+03	1.120849E-02	9.765861E-05
5.396825E+03	1.090137E-02	9.471663E-05
5.406746E+03	1.065902E-02	9.237786E-05
5.416667E+03	1.052363E-02	9.100162E-05
5.426587E+03	1.053215E-02	9.090010E-05
5.436508E+03	1.071440E-02	9.232387E-05
5.446429E+03	1.108944E-02	9.543155E-05
5.456349E+03	1.165149E-02	1.001708E-04
5.466270E+03	1.235759E-02	1.061727E-04
5.476190E+03	1.313178E-02	1.127883E-04
5.486111E+03	1.387984E-02	1.192136E-04
5.496032E+03	1.450586E-02	1.246299E-04
5.505952E+03	1.493246E-02	1.283754E-04
5.515873E+03	1.512075E-02	1.301146E-04
5.525794E+03	1.507815E-02	1.299066E-04
5.535714E+03	1.485134E-02	1.281456E-04
5.545635E+03	1.450783E-02	1.254054E-04
5.555556E+03	1.411610E-02	1.222705E-04
5.565476E+03	1.373172E-02	1.192170E-04
5.575397E+03	1.338713E-02	1.165242E-04
5.585317E+03	1.309101E-02	1.142675E-04
5.595238E+03	1.282880E-02	1.123201E-04
5.605159E+03	1.256963E-02	1.104112E-04
5.615079E+03	1.227206E-02	1.081733E-04
5.625000E+03	1.189505E-02	1.052372E-04
5.634921E+03	1.140945E-02	1.013334E-04
5.644841E+03	1.080686E-02	9.637230E-05
5.654762E+03	1.010408E-02	9.048799E-05
5.664683E+03	9.339992E-03	8.401435E-05
5.674603E+03	8.565580E-03	7.740065E-05
5.684524E+03	7.832348E-03	7.110900E-05
5.694444E+03	7.181842E-03	6.551991E-05
5.704365E+03	6.642071E-03	6.089783E-05
5.714286E+03	6.227858E-03	5.739188E-05
5.724206E+03	5.944126E-03	5.506326E-05
5.734127E+03	5.789952E-03	5.392081E-05
5.744048E+03	5.761350E-03	5.394549E-05
5.753968E+03	5.853118E-03	5.510692E-05
5.763889E+03	6.059023E-03	5.736473E-05
5.773810E+03	6.371522E-03	6.066545E-05
5.783730E+03	6.779716E-03	6.492246E-05
5.793651E+03	7.268845E-03	7.001013E-05
5.803571E+03	7.818796E-03	7.574800E-05
5.813492E+03	8.405680E-03	8.191460E-05
5.823413E+03	9.003420E-03	8.826165E-05
5.833333E+03	9.585729E-03	9.453275E-05
5.843254E+03	1.012973E-02	1.004990E-04
5.853175E+03	1.061677E-02	1.059682E-04
5.863095E+03	1.103505E-02	1.108120E-04
5.873016E+03	1.137830E-02	1.149549E-04
5.882937E+03	1.164543E-02	1.183721E-04
5.892857E+03	1.183823E-02	1.210681E-04
5.902778E+03	1.195901E-02	1.230523E-04
5.912698E+03	1.200908E-02	1.243249E-04
5.922619E+03	1.198913E-02	1.248791E-04
5.932540E+03	1.189990E-02	1.247091E-04
5.942460E+03	1.174417E-02	1.238305E-04
5.952381E+03	1.152848E-02	1.222994E-04
5.962302E+03	1.126232E-02	1.202050E-04
5.972222E+03	1.095857E-02	1.176752E-04
5.982143E+03	1.063095E-02	1.148507E-04
5.992063E+03	1.029347E-02	1.118785E-04
6.001984E+03	9.957685E-03	1.088824E-04
6.011905E+03	9.633872E-03	1.059756E-04
6.021825E+03	9.330103E-03	1.032495E-04
6.031746E+03	9.053354E-03	1.007852E-04
6.041667E+03	8.809617E-03	9.865511E-05
6.051587E+03	8.604079E-03	9.692390E-05
6.061508E+03	8.441451E-03	9.565236E-05
6.071429E+03	8.325614E-03	9.489314E-05
6.081349E+03	8.261034E-03	9.470661E-05
6.091270E+03	8.252127E-03	9.515382E-05
6.101190E+03	8.304269E-03	9.630813E-05
6.111111E+03	8.424721E-03	9.826635E-05
6.121032E+03	8.621817E-03	1.011398E-04
6.130952E+03	8.904939E-03	1.050545E-04
6.140873E+03	9.283200E-03	1.101355E-04
6.150794E+03	9.762918E-03	1.164773E-04
6.160714E+03	1.034629E-02	1.241263E-04
6.170635E+03	1.102827E-02	1.330422E-04
6.180556E+03	1.179349E-02	1.430581E-04
6.190476E+03	1.261620E-02	1.538762E-04
6.200397E+03	1.345746E-02	1.650300E-04
6.210317E+03	1.426930E-02	1.759314E-04
6.220238E+03	1.500179E-02	1.859550E-04
6.230159E+03	1.561297E-02	1.945619E-04
6.240079E+03	1.607489E-02	2.013774E-04
6.250000E+03	1.637315E-02	2.061901E-04
6.259921E+03	1.650592E-02	2.089444E-04
6.269841E+03	1.647870E-02	2.096774E-04
6.279762E+03	1.630421E-02	2.085202E-04
6.289683E+03	1.600253E-02	2.057020E-04
6.299603E+03	1.559975E-02	2.015350E-04
6.309524E+03	1.512835E-02	1.964216E-04
6.319444E+03	1.462279E-02	1.907981E-04
6.329365E+03	1.411599E-02	1.850900E-04
6.339286E+03	1.363718E-02	1.796821E-04
6.349206E+03	1.320580E-02	1.748378E-04
6.359127E+03	1.283346E-02	1.707205E-04
6.369048E+03	1.252354E-02	1.673869E-04
6.378968E+03	1.227368E-02	1.648172E-04
6.388889E+03	1.207844E-02	1.629497E-04
6.398810E+03	1.193084E-02	1.616999E-04
6.408730E+03	1.182171E-02	1.609519E-04
6.418651E+03	1.174268E-02	1.605985E-04
6.428571E+03	1.168415E-02	1.605131E-04
6.438492E+03	1.163749E-02	1.605808E-04
6.448413E+03	1.159512E-02	1.606984E-04
6.458333E+03	1.155207E-02	1.607975E-04
6.468254E+03	1.150720E-02	1.608621E-04
6.478175E+03	1.146187E-02	1.609108E-04
6.488095E+03	1.141653E-02	1.609501E-04
6.498016E+03	1.136735E-02	1.609257E-04
6.507937E+03	1.130914E-02	1.607631E-04
6.517857E+03	1.123629E-02	1.603806E-04
6.527778E+03	1.114259E-02	1.596869E-04
6.537698E+03	1.102147E-02	1.585837E-04
6.547619E+03	1.086733E-02	1.569857E-04
6.557540E+03	1.067653E-02	1.548344E-04
6.567460E+03	1.044928E-02	1.521270E-04
6.577381E+03	1.018867E-02	1.489027E-04
6.587302E+03	9.901604E-03	1.452574E-04
6.597222E+03	9.595692E-03	1.412991E-04
6.607143E+03	9.279541E-03	1.371522E-04
6.617063E+03	8.961683E-03	1.329420E-04
6.626984E+03	8.648866E-03	1.287691E-04
6.636905E+03	8.346928E-03	1.247218E-04
6.646825E+03	8.060766E-03	1.208756E-04
6.656746E+03	7.793438E-03	1.172795E-04
6.666667E+03	7.547334E-03	1.139728E-04
6.676587E+03	7.323534E-03	1.109755E-04
6.686508E+03	7.122027E-03	1.082913E-04
6.696429E+03	6.941694E-03	1.059067E-04
6.706349E+03	6.781046E-03	1.038023E-04
6.716270E+03	6.637598E-03	1.019434E-04
6.726190E+03	6.508701E-03	1.002919E-04
6.736111E+03	6.391655E-03	9.880828E-05
6.746032E+03	6.283861E-03	9.745430E-05
6.755952E+03	6.182973E-03	9.619493E-05
6.765873E+03	6.086390E-03	9.499072E-05
6.775794E+03	5.992189E-03	9.381233E-05
6.785714E+03	5.898473E-03	9.263045E-05
6.795635E+03	5.804162E-03	9.142825E-05
6.805556E+03	5.709256E-03	9.020577E-05
6.815476E+03	5.614571E-03	8.897598E-05
6.825397E+03	5.522650E-03	8.777945E-05
6.835317E+03	5.436966E-03	8.667204E-05
6.845238E+03	5.361599E-03	8.572000E-05
6.855159E+03	5.301454E-03	8.500349E-05
6.865079E+03	5.261080E-03	8.459787E-05
6.875000E+03	5.244850E-03	8.457643E-05
6.884921E+03	5.256152E-03	8.499735E-05
6.894841E+03	5.297345E-03	8.590265E-05
6.904762E+03	5.369234E-03	8.730948E-05
6.914683E+03	5.470710E-03	8.920386E-05
6.924603E+03	5.598123E-03	9.153010E-05
6.934524E+03	5.745839E-03	9.419921E-05
6.944444E+03	5.906865E-03	9.709886E-05
6.954365E+03	6.073089E-03	1.000971E-04
6.964286E+03	6.236866E-03	1.030682E-04
6.974206E+03	6.390878E-03	1.058906E-04
6.984127E+03	6.529189E-03	1.084643E-04
6.994048E+03	6.647338E-03	1.107130E-04
7.003968E+03	6.742430E-03	1.125858E-04
7.013889E+03	6.812478E-03	1.140465E-04
7.023810E+03	6.857215E-03	1.150874E-04
7.033730E+03	6.877710E-03	1.157232E-04
7.043651E+03	6.875985E-03	1.159853E-04
7.053571E+03	6.855962E-03	1.159370E-04
7.063492E+03	6.823050E-03	1.156678E-04
7.073413E+03	6.783496E-03	1.152824E-04
7.083333E+03	6.744574E-03	1.149040E-04
7.093254E+03	6.713951E-03	1.146636E-04
7.103175E+03	6.698353E-03	1.146775E-04
7.113095E+03	6.704225E-03	1.150584E-04
7.123016E+03	6.736856E-03	1.158999E-04
7.132937E+03	6.800934E-03	1.172864E-04
7.142857E+03	6.900189E-03	1.192863E-04
7.152778E+03	7.038176E-03	1.219659E-04
7.162698E+03	7.217753E-03	1.253796E-04
7.172619E+03	7.441441E-03	1.295767E-04
7.182540E+03	7.710319E-03	1.345816E-04
7.192460E+03	8.023629E-03	1.403871E-04
7.202381E+03	8.377454E-03	1.469300E-04
7.212302E+03	8.763527E-03	1.540705E-04
7.222222E+03	9.167574E-03	1.615612E-04
7.232143E+03	9.570862E-03	1.690738E-04
7.242063E+03	9.950363E-03	1.762007E-04
7.251984E+03	1.028320E-02	1.825329E-04
7.261905E+03	1.054867E-02	1.876967E-04
7.271825E+03	1.073359E-02	1.914482E-04
7.281746E+03	1.083382E-02	1.937036E-04
7.291667E+03	1.085438E-02	1.945420E-04
7.301587E+03	1.080694E-02	1.941627E-04
7.311508E+03	1.070726E-02	1.928410E-04
7.321429E+03	1.057128E-02	1.908577E-04
7.331349E+03	1.041245E-02	1.884517E-04
7.341270E+03	1.024105E-02	1.858066E-04
7.351190E+03	1.006354E-02	1.830377E-04
7.361111E+03	9.884416E-03	1.802266E-04
7.371032E+03	9.706313E-03	1.774210E-04
7.380952E+03	9.531283E-03	1.746588E-04
7.390873E+03	9.359847E-03	1.719499E-04
7.400794E+03	9.192658E-03	1.693066E-04
7.410714E+03	9.028351E-03	1.667045E-04
7.420635E+03	8.865823E-03	1.641234E-04
7.430556E+03	8.702786E-03	1.615210E-04
7.440476E+03	8.536702E-03	1.588500E-04
7.450397E+03	8.364989E-03	1.560616E-04
7.460317E+03	8.184609E-03	1.530982E-04
7.470238E+03	7.993718E-03	1.499237E-04
7.480159E+03	7.790818E-03	1.465081E-04
7.490079E+03	7.575790E-03	1.428473E-04
7.500000E+03	7.349855E-03	1.389619E-04
7.509921E+03	7.115490E-03	1.348971E-04
7.519841E+03	6.876123E-03	1.307162E-04
7.529762E+03	6.635701E-03	1.264933E-04
7.539683E+03	6.398593E-03	1.223116E-04
7.549603E+03	6.169693E-03	1.182648E-04
7.559524E+03	5.957546E-03	1.145183E-04
7.569444E+03	5.775099E-03	1.113240E-04
7.579365E+03	5.635862E-03	1.089476E-04
7.589286E+03	5.551091E-03	1.076143E-04
7.599206E+03	5.528255E-03	1.074780E-04
7.609127E+03	5.571497E-03	1.086298E-04
7.619048E+03	5.681606E-03	1.110962E-04
7.628968E+03	5.857063E-03	1.148589E-04
7.638889E+03	6.093490E-03	1.198429E-04
7.648810E+03	6.384199E-03	1.259270E-04
7.658730E+03	6.719306E-03	1.329254E-04
7.668651E+03	7.086336E-03	1.405986E-04
7.678571E+03	7.470341E-03	1.486551E-04
7.688492E+03	7.855179E-03	1.567761E-04
7.698413E+03	8.224140E-03	1.646276E-04
