#wls	flux	fluxerr
1.587302E+03	4.917580E-04	2.550966E-06
1.626984E+03	4.961089E-04	2.573536E-06
1.666667E+03	5.008713E-04	2.598241E-06
1.706349E+03	5.059815E-04	2.624749E-06
1.746032E+03	5.114624E-04	2.653181E-06
1.785714E+03	5.175143E-04	2.684575E-06
1.825397E+03	5.239911E-04	2.718173E-06
1.865079E+03	5.309217E-04	2.754125E-06
1.904762E+03	5.385172E-04	2.793526E-06
1.944444E+03	5.467250E-04	2.836104E-06
1.984127E+03	5.555839E-04	2.882059E-06
2.023810E+03	5.651353E-04	2.931606E-06
2.063492E+03	5.755166E-04	2.985459E-06
2.103175E+03	5.866833E-04	3.043385E-06
2.142857E+03	5.986848E-04	3.105642E-06
2.182540E+03	6.117675E-04	3.173508E-06
2.222222E+03	6.257965E-04	3.246283E-06
2.261905E+03	6.410282E-04	3.325296E-06
2.301587E+03	6.573255E-04	3.409837E-06
2.341270E+03	6.749536E-04	3.501282E-06
2.380952E+03	6.939803E-04	3.599982E-06
2.420635E+03	7.143649E-04	3.705726E-06
2.460317E+03	7.362752E-04	3.819384E-06
2.500000E+03	7.597701E-04	3.941263E-06
2.539683E+03	7.850161E-04	4.072225E-06
2.579365E+03	8.118298E-04	4.211319E-06
2.619048E+03	8.405906E-04	4.360514E-06
2.658730E+03	8.712069E-04	4.519334E-06
2.698413E+03	9.036825E-04	4.687799E-06
2.738095E+03	9.380011E-04	4.865825E-06
2.777778E+03	9.742554E-04	5.053892E-06
2.817460E+03	1.012262E-03	5.251049E-06
2.857143E+03	1.052218E-03	5.458318E-06
2.896825E+03	1.093917E-03	5.674628E-06
2.936508E+03	1.137429E-03	5.900346E-06
2.976190E+03	1.182717E-03	6.135272E-06
2.986111E+03	1.194302E-03	6.195369E-06
2.996032E+03	1.206083E-03	6.256482E-06
3.005952E+03	1.217913E-03	6.317854E-06
3.015873E+03	1.229944E-03	6.380260E-06
3.025794E+03	1.242027E-03	6.442943E-06
3.035714E+03	1.254166E-03	6.505909E-06
3.045635E+03	1.266514E-03	6.569965E-06
3.055556E+03	1.278925E-03	6.634347E-06
3.065476E+03	1.291556E-03	6.699868E-06
3.075397E+03	1.304413E-03	6.766565E-06
3.085317E+03	1.317351E-03	6.833679E-06
3.095238E+03	1.330375E-03	6.901241E-06
3.105159E+03	1.343650E-03	6.970107E-06
3.115079E+03	1.357032E-03	7.039524E-06
3.125000E+03	1.370687E-03	7.110355E-06
3.134921E+03	1.384627E-03	7.182672E-06
3.144841E+03	1.398713E-03	7.255742E-06
3.154762E+03	1.412958E-03	7.329637E-06
3.164683E+03	1.427538E-03	7.405268E-06
3.174603E+03	1.442475E-03	7.482751E-06
3.184524E+03	1.457628E-03	7.561358E-06
3.194444E+03	1.473022E-03	7.641216E-06
3.204365E+03	1.489009E-03	7.724146E-06
3.214286E+03	1.505128E-03	7.807764E-06
3.224206E+03	1.521903E-03	7.894783E-06
3.234127E+03	1.538874E-03	7.982817E-06
3.244048E+03	1.556579E-03	8.074660E-06
3.253968E+03	1.574725E-03	8.168793E-06
3.263889E+03	1.593358E-03	8.265449E-06
3.273810E+03	1.612868E-03	8.366654E-06
3.283730E+03	1.632799E-03	8.470049E-06
3.293651E+03	1.653729E-03	8.578619E-06
3.303571E+03	1.675202E-03	8.690011E-06
3.313492E+03	1.697815E-03	8.807314E-06
3.323413E+03	1.721300E-03	8.929139E-06
3.333333E+03	1.745918E-03	9.056847E-06
3.343254E+03	1.771589E-03	9.190012E-06
3.353175E+03	1.798596E-03	9.330111E-06
3.363095E+03	1.826874E-03	9.476799E-06
3.373016E+03	1.856728E-03	9.631667E-06
3.382937E+03	1.888301E-03	9.795451E-06
3.392857E+03	1.921553E-03	9.967944E-06
3.402778E+03	1.956837E-03	1.015098E-05
3.412698E+03	1.994333E-03	1.034548E-05
3.422619E+03	2.034041E-03	1.055147E-05
3.432540E+03	2.076365E-03	1.077102E-05
3.442460E+03	2.121329E-03	1.100427E-05
3.452381E+03	2.169378E-03	1.125352E-05
3.462302E+03	2.220774E-03	1.152013E-05
3.472222E+03	2.275580E-03	1.180444E-05
3.482143E+03	2.334296E-03	1.210902E-05
3.492063E+03	2.397001E-03	1.243430E-05
3.501984E+03	2.464443E-03	1.278415E-05
3.511905E+03	2.536244E-03	1.315662E-05
3.521825E+03	2.613374E-03	1.355672E-05
3.531746E+03	2.695612E-03	1.398333E-05
3.541667E+03	2.783380E-03	1.443862E-05
3.551587E+03	2.876497E-03	1.492166E-05
3.561508E+03	2.975100E-03	1.543315E-05
3.571429E+03	3.078484E-03	1.596945E-05
3.577473E+03	4.026421E-03	2.088682E-05
3.580440E+03	4.346903E-03	2.254930E-05
3.583407E+03	4.617648E-03	2.395377E-05
3.586373E+03	4.831867E-03	2.506502E-05
3.589340E+03	4.970583E-03	2.578460E-05
3.592307E+03	4.858030E-03	2.520074E-05
3.595274E+03	4.792802E-03	2.486237E-05
3.598240E+03	4.721303E-03	2.449148E-05
3.601206E+03	4.793554E-03	2.486628E-05
3.604174E+03	4.912977E-03	2.548578E-05
3.607140E+03	4.903785E-03	2.543809E-05
3.610106E+03	4.814523E-03	2.497505E-05
3.613073E+03	4.833873E-03	2.507543E-05
3.616040E+03	4.987957E-03	2.587473E-05
3.619006E+03	5.016367E-03	2.602211E-05
3.621973E+03	4.880264E-03	2.531608E-05
3.624939E+03	4.714552E-03	2.445646E-05
3.627907E+03	4.687066E-03	2.431387E-05
3.630873E+03	4.685171E-03	2.430404E-05
3.633839E+03	4.657680E-03	2.416144E-05
3.636807E+03	4.545387E-03	2.357893E-05
3.639773E+03	4.341491E-03	2.252122E-05
3.642739E+03	4.116333E-03	2.135323E-05
3.645706E+03	4.069133E-03	2.110838E-05
3.648673E+03	4.088283E-03	2.120773E-05
3.651639E+03	4.099772E-03	2.126732E-05
3.654606E+03	4.076775E-03	2.114803E-05
3.657572E+03	3.976443E-03	2.062756E-05
3.660539E+03	3.760443E-03	1.950707E-05
3.663506E+03	3.711300E-03	1.925215E-05
3.666472E+03	3.698213E-03	1.918426E-05
3.669438E+03	3.704111E-03	1.921486E-05
3.672406E+03	3.741891E-03	1.941084E-05
3.675372E+03	3.831243E-03	1.987434E-05
3.678339E+03	3.922343E-03	2.034692E-05
3.681306E+03	4.015889E-03	2.083219E-05
3.684272E+03	4.265562E-03	2.212735E-05
3.687239E+03	4.508286E-03	2.338646E-05
3.690205E+03	4.701015E-03	2.438624E-05
3.693172E+03	4.856992E-03	2.519536E-05
3.696139E+03	4.969937E-03	2.578125E-05
3.699105E+03	5.133604E-03	2.663027E-05
3.702071E+03	5.279333E-03	2.738623E-05
3.705039E+03	5.374180E-03	2.787824E-05
3.708005E+03	5.383107E-03	2.792455E-05
3.710972E+03	5.401098E-03	2.801787E-05
3.713938E+03	5.415778E-03	2.809402E-05
3.716905E+03	5.466542E-03	2.835736E-05
3.719872E+03	5.437642E-03	2.820745E-05
3.722838E+03	5.411008E-03	2.806928E-05
3.725805E+03	5.404593E-03	2.803600E-05
3.728772E+03	5.432174E-03	2.817908E-05
3.731738E+03	5.366131E-03	2.783649E-05
3.734704E+03	5.279857E-03	2.738894E-05
3.737672E+03	5.237166E-03	2.716749E-05
3.740638E+03	5.184533E-03	2.689446E-05
3.743604E+03	5.090916E-03	2.640882E-05
3.746571E+03	4.984213E-03	2.585531E-05
3.749538E+03	4.942723E-03	2.564008E-05
3.752504E+03	4.814903E-03	2.497702E-05
3.755471E+03	4.675910E-03	2.425601E-05
3.758438E+03	4.635623E-03	2.404702E-05
3.761404E+03	4.599344E-03	2.385882E-05
3.764371E+03	4.532013E-03	2.350955E-05
3.767337E+03	4.482643E-03	2.325345E-05
3.770305E+03	4.470773E-03	2.319187E-05
3.773271E+03	4.482277E-03	2.325154E-05
3.776237E+03	4.491513E-03	2.329945E-05
3.779204E+03	4.535814E-03	2.352926E-05
3.782171E+03	4.565289E-03	2.368217E-05
3.785137E+03	4.577493E-03	2.374547E-05
3.788104E+03	4.564049E-03	2.367573E-05
3.791070E+03	4.571541E-03	2.371460E-05
3.794037E+03	4.628761E-03	2.401142E-05
3.797004E+03	4.628403E-03	2.400956E-05
3.799970E+03	4.569413E-03	2.370356E-05
3.802937E+03	4.491746E-03	2.330066E-05
3.805904E+03	4.352818E-03	2.257998E-05
3.808870E+03	4.189100E-03	2.173070E-05
3.811837E+03	4.070570E-03	2.111584E-05
3.814804E+03	3.940164E-03	2.043937E-05
3.817770E+03	3.824932E-03	1.984161E-05
3.820737E+03	3.723481E-03	1.931534E-05
3.823703E+03	3.638779E-03	1.887595E-05
3.826670E+03	3.551452E-03	1.842294E-05
3.829637E+03	3.509503E-03	1.820534E-05
3.832603E+03	3.537551E-03	1.835084E-05
3.835569E+03	3.558445E-03	1.845922E-05
3.838537E+03	3.561531E-03	1.847523E-05
3.841503E+03	3.628688E-03	1.882360E-05
3.844470E+03	3.716799E-03	1.928067E-05
3.847437E+03	3.812075E-03	1.977491E-05
3.850403E+03	3.892166E-03	2.019038E-05
3.853370E+03	3.961959E-03	2.055242E-05
3.856336E+03	4.037344E-03	2.094348E-05
3.859303E+03	4.123384E-03	2.138981E-05
3.862270E+03	4.252909E-03	2.206171E-05
3.865236E+03	4.397809E-03	2.281337E-05
3.868202E+03	4.505521E-03	2.337212E-05
3.871170E+03	4.653057E-03	2.413745E-05
3.874136E+03	4.813000E-03	2.496715E-05
3.877102E+03	4.967712E-03	2.576971E-05
3.880069E+03	5.106015E-03	2.648715E-05
3.883036E+03	5.239086E-03	2.717745E-05
3.886002E+03	5.406573E-03	2.804627E-05
3.888969E+03	5.596426E-03	2.903113E-05
3.891936E+03	5.754150E-03	2.984931E-05
3.894902E+03	5.924458E-03	3.073277E-05
3.897869E+03	6.114515E-03	3.171868E-05
3.900835E+03	6.282920E-03	3.259227E-05
3.903803E+03	6.437008E-03	3.339160E-05
3.906769E+03	6.611543E-03	3.429699E-05
3.909735E+03	6.775954E-03	3.514986E-05
3.912702E+03	6.927618E-03	3.593661E-05
3.915669E+03	7.105149E-03	3.685753E-05
3.918635E+03	7.285133E-03	3.779119E-05
3.921602E+03	7.421967E-03	3.850101E-05
3.924568E+03	7.532598E-03	3.907490E-05
3.927536E+03	7.664027E-03	3.975668E-05
3.930502E+03	7.801402E-03	4.046931E-05
3.933468E+03	7.955383E-03	4.126807E-05
3.936436E+03	8.074945E-03	4.188830E-05
3.939402E+03	8.176511E-03	4.241516E-05
3.942368E+03	8.282449E-03	4.296471E-05
3.945335E+03	8.372139E-03	4.342997E-05
3.948302E+03	8.457287E-03	4.387167E-05
3.951268E+03	8.500666E-03	4.409670E-05
3.954235E+03	8.511887E-03	4.415491E-05
3.957201E+03	8.523980E-03	4.421763E-05
3.960168E+03	8.542188E-03	4.431209E-05
3.963135E+03	8.558124E-03	4.439476E-05
3.966101E+03	8.564094E-03	4.442573E-05
3.969067E+03	8.563945E-03	4.442495E-05
3.972035E+03	8.577602E-03	4.449580E-05
3.975001E+03	8.612758E-03	4.467817E-05
3.977967E+03	8.652984E-03	4.488684E-05
3.980935E+03	8.683069E-03	4.504290E-05
3.983901E+03	8.693049E-03	4.509467E-05
3.986868E+03	8.723832E-03	4.525436E-05
3.989834E+03	8.789577E-03	4.559541E-05
3.992801E+03	8.824378E-03	4.577594E-05
3.995768E+03	8.867047E-03	4.599727E-05
3.998734E+03	8.906041E-03	4.619956E-05
4.001700E+03	8.919684E-03	4.627033E-05
4.004668E+03	8.913218E-03	4.623679E-05
4.007634E+03	8.914093E-03	4.624132E-05
4.010600E+03	8.918986E-03	4.626671E-05
4.013567E+03	8.892928E-03	4.613153E-05
4.016534E+03	8.835043E-03	4.583126E-05
4.019501E+03	8.771383E-03	4.550103E-05
4.022467E+03	8.701074E-03	4.513630E-05
4.025434E+03	8.604179E-03	4.463367E-05
4.028401E+03	8.484371E-03	4.401217E-05
4.031367E+03	8.379769E-03	4.346955E-05
4.034333E+03	8.305415E-03	4.308384E-05
4.037301E+03	8.205698E-03	4.256657E-05
4.040267E+03	8.072573E-03	4.187599E-05
4.043233E+03	7.935770E-03	4.116633E-05
4.046200E+03	7.800882E-03	4.046661E-05
4.049167E+03	7.645702E-03	3.966162E-05
4.052133E+03	7.474249E-03	3.877222E-05
4.055100E+03	7.352808E-03	3.814225E-05
4.058066E+03	7.269488E-03	3.771003E-05
4.061033E+03	7.173746E-03	3.721338E-05
4.064000E+03	7.072751E-03	3.668947E-05
4.066966E+03	6.958984E-03	3.609931E-05
4.069934E+03	6.834715E-03	3.545468E-05
4.072900E+03	6.734580E-03	3.493523E-05
4.075866E+03	6.685162E-03	3.467888E-05
4.078833E+03	6.645712E-03	3.447423E-05
4.081800E+03	6.607132E-03	3.427410E-05
4.084766E+03	6.550359E-03	3.397959E-05
4.087733E+03	6.504951E-03	3.374404E-05
4.090699E+03	6.472833E-03	3.357744E-05
4.093666E+03	6.433191E-03	3.337179E-05
4.096633E+03	6.367482E-03	3.303093E-05
4.099599E+03	6.286901E-03	3.261293E-05
4.102565E+03	6.230632E-03	3.232103E-05
4.105533E+03	6.193951E-03	3.213075E-05
4.108499E+03	6.145721E-03	3.188056E-05
4.111466E+03	6.078246E-03	3.153054E-05
4.114433E+03	6.044179E-03	3.135382E-05
4.117399E+03	6.047545E-03	3.137128E-05
4.120366E+03	6.030966E-03	3.128528E-05
4.123332E+03	5.984472E-03	3.104409E-05
4.126299E+03	5.932725E-03	3.077566E-05
4.129266E+03	5.867332E-03	3.043643E-05
4.132232E+03	5.821353E-03	3.019792E-05
4.135198E+03	5.811058E-03	3.014452E-05
4.138166E+03	5.795163E-03	3.006206E-05
4.141132E+03	5.757748E-03	2.986797E-05
4.144099E+03	5.720156E-03	2.967297E-05
4.147065E+03	5.673114E-03	2.942894E-05
4.150032E+03	5.618722E-03	2.914679E-05
4.152998E+03	5.578498E-03	2.893813E-05
4.155965E+03	5.565737E-03	2.887193E-05
4.158932E+03	5.543352E-03	2.875581E-05
4.161899E+03	5.511868E-03	2.859248E-05
4.164865E+03	5.477058E-03	2.841191E-05
4.167831E+03	5.448367E-03	2.826308E-05
4.170799E+03	5.414076E-03	2.808520E-05
4.173765E+03	5.359490E-03	2.780203E-05
4.176731E+03	5.309975E-03	2.754518E-05
4.179698E+03	5.291423E-03	2.744894E-05
4.182665E+03	5.260622E-03	2.728916E-05
4.185631E+03	5.206202E-03	2.700686E-05
4.188598E+03	5.150731E-03	2.671911E-05
4.191564E+03	5.102255E-03	2.646764E-05
4.194531E+03	5.071446E-03	2.630782E-05
4.197498E+03	5.021391E-03	2.604817E-05
4.200464E+03	4.970986E-03	2.578669E-05
4.203432E+03	4.958539E-03	2.572212E-05
4.206398E+03	4.960959E-03	2.573468E-05
4.209364E+03	4.952181E-03	2.568914E-05
4.212331E+03	4.952848E-03	2.569260E-05
4.215298E+03	4.971006E-03	2.578680E-05
4.218264E+03	5.003504E-03	2.595538E-05
4.221231E+03	5.042648E-03	2.615844E-05
4.224197E+03	5.094382E-03	2.642680E-05
4.227164E+03	5.162207E-03	2.677864E-05
4.230131E+03	5.260814E-03	2.729016E-05
4.233097E+03	5.355394E-03	2.778079E-05
4.236064E+03	5.425306E-03	2.814345E-05
4.239031E+03	5.484018E-03	2.844802E-05
4.241997E+03	5.540803E-03	2.874259E-05
4.244964E+03	5.607903E-03	2.909066E-05
4.247931E+03	5.685318E-03	2.949225E-05
4.250897E+03	5.751711E-03	2.983665E-05
4.253864E+03	5.799383E-03	3.008395E-05
4.256830E+03	5.834981E-03	3.026862E-05
4.259797E+03	5.876697E-03	3.048502E-05
4.262764E+03	5.916136E-03	3.068960E-05
4.265730E+03	5.925664E-03	3.073903E-05
4.268696E+03	5.905981E-03	3.063692E-05
4.271664E+03	5.884546E-03	3.052573E-05
4.274630E+03	5.867831E-03	3.043902E-05
4.277597E+03	5.844468E-03	3.031783E-05
4.280563E+03	5.848208E-03	3.033723E-05
4.283530E+03	5.847924E-03	3.033576E-05
4.286496E+03	5.828575E-03	3.023538E-05
4.289463E+03	5.807126E-03	3.012412E-05
4.292430E+03	5.779554E-03	2.998109E-05
4.295397E+03	5.764394E-03	2.990245E-05
4.298363E+03	5.755528E-03	2.985646E-05
4.301329E+03	5.756625E-03	2.986215E-05
4.304297E+03	5.772408E-03	2.994402E-05
4.307263E+03	5.782240E-03	2.999503E-05
4.310229E+03	5.788398E-03	3.002697E-05
4.313196E+03	5.794378E-03	3.005799E-05
4.316163E+03	5.825180E-03	3.021777E-05
4.319129E+03	5.861397E-03	3.040565E-05
4.322096E+03	5.878203E-03	3.049283E-05
4.325062E+03	5.902173E-03	3.061717E-05
4.328030E+03	5.945893E-03	3.084397E-05
4.330996E+03	5.990480E-03	3.107526E-05
4.333962E+03	6.028420E-03	3.127207E-05
4.336930E+03	6.047474E-03	3.137091E-05
4.339896E+03	6.076662E-03	3.152232E-05
4.342862E+03	6.110214E-03	3.169637E-05
4.345829E+03	6.119641E-03	3.174527E-05
4.348796E+03	6.132559E-03	3.181228E-05
4.351762E+03	6.163649E-03	3.197356E-05
4.354729E+03	6.177081E-03	3.204324E-05
4.357695E+03	6.171809E-03	3.201589E-05
4.360662E+03	6.158844E-03	3.194864E-05
4.363629E+03	6.163003E-03	3.197021E-05
4.366595E+03	6.169079E-03	3.200173E-05
4.369562E+03	6.166065E-03	3.198609E-05
4.372529E+03	6.180519E-03	3.206107E-05
4.375495E+03	6.201609E-03	3.217048E-05
4.378462E+03	6.221995E-03	3.227623E-05
4.381429E+03	6.224379E-03	3.228860E-05
4.384395E+03	6.204397E-03	3.218494E-05
4.387362E+03	6.187209E-03	3.209578E-05
4.390328E+03	6.177528E-03	3.204556E-05
4.393295E+03	6.170290E-03	3.200801E-05
4.396262E+03	6.162177E-03	3.196592E-05
4.399228E+03	6.165413E-03	3.198271E-05
4.402194E+03	6.179999E-03	3.205837E-05
4.405162E+03	6.191610E-03	3.211861E-05
4.408128E+03	6.189419E-03	3.210724E-05
4.411094E+03	6.149502E-03	3.190017E-05
4.414062E+03	6.112553E-03	3.170850E-05
4.417028E+03	6.079272E-03	3.153586E-05
4.419995E+03	6.040576E-03	3.133513E-05
4.422961E+03	5.992278E-03	3.108458E-05
4.425928E+03	5.937868E-03	3.080233E-05
4.428895E+03	5.895158E-03	3.058078E-05
4.431861E+03	5.845465E-03	3.032300E-05
4.434827E+03	5.824229E-03	3.021284E-05
4.437795E+03	5.805961E-03	3.011807E-05
4.440761E+03	5.781580E-03	2.999160E-05
4.443727E+03	5.752312E-03	2.983977E-05
4.446694E+03	5.723043E-03	2.968795E-05
4.449661E+03	5.693076E-03	2.953249E-05
4.452627E+03	5.673405E-03	2.943045E-05
4.455594E+03	5.668218E-03	2.940354E-05
4.458561E+03	5.687283E-03	2.950244E-05
4.461528E+03	5.713673E-03	2.963934E-05
4.464494E+03	5.760995E-03	2.988482E-05
4.467460E+03	5.832211E-03	3.025425E-05
4.470428E+03	5.909872E-03	3.065711E-05
4.473394E+03	6.011771E-03	3.118570E-05
4.476360E+03	6.140343E-03	3.185266E-05
4.479327E+03	6.262968E-03	3.248877E-05
4.482294E+03	6.370051E-03	3.304426E-05
4.485260E+03	6.489675E-03	3.366480E-05
4.488227E+03	6.650966E-03	3.450149E-05
4.491193E+03	6.828800E-03	3.542399E-05
4.494161E+03	7.002076E-03	3.632285E-05
4.497127E+03	7.162597E-03	3.715554E-05
4.500093E+03	7.315423E-03	3.794832E-05
4.503060E+03	7.450267E-03	3.864782E-05
4.506027E+03	7.586660E-03	3.935535E-05
4.508993E+03	7.743952E-03	4.017129E-05
4.511960E+03	7.919872E-03	4.108386E-05
4.514927E+03	8.083041E-03	4.193029E-05
4.517893E+03	8.238165E-03	4.273499E-05
4.520860E+03	8.392395E-03	4.353505E-05
4.523826E+03	8.536318E-03	4.428164E-05
4.526793E+03	8.661746E-03	4.493229E-05
4.529760E+03	8.768158E-03	4.548429E-05
4.532726E+03	8.866537E-03	4.599463E-05
4.535692E+03	8.974305E-03	4.655367E-05
4.538660E+03	9.070384E-03	4.705207E-05
4.541626E+03	9.158777E-03	4.751061E-05
4.544592E+03	9.252032E-03	4.799436E-05
4.547560E+03	9.341787E-03	4.845996E-05
4.550526E+03	9.405572E-03	4.879084E-05
4.553493E+03	9.462377E-03	4.908551E-05
4.556459E+03	9.532927E-03	4.945149E-05
4.559426E+03	9.596149E-03	4.977945E-05
4.562393E+03	9.666669E-03	5.014527E-05
4.565359E+03	9.734041E-03	5.049475E-05
4.568325E+03	9.792170E-03	5.079629E-05
4.571293E+03	9.832009E-03	5.100296E-05
4.574259E+03	9.876014E-03	5.123123E-05
4.577225E+03	9.940893E-03	5.156779E-05
4.580192E+03	1.001411E-02	5.194761E-05
4.583159E+03	1.008523E-02	5.231651E-05
4.586126E+03	1.014850E-02	5.264471E-05
4.589092E+03	1.021593E-02	5.299450E-05
4.592059E+03	1.026316E-02	5.323951E-05
4.595026E+03	1.028741E-02	5.336534E-05
4.597992E+03	1.030505E-02	5.345683E-05
4.600958E+03	1.032616E-02	5.356632E-05
4.603926E+03	1.034117E-02	5.364419E-05
4.606892E+03	1.034365E-02	5.365706E-05
4.609858E+03	1.033065E-02	5.358962E-05
4.612825E+03	1.032547E-02	5.356276E-05
4.615792E+03	1.031959E-02	5.353226E-05
4.618758E+03	1.028902E-02	5.337368E-05
4.621725E+03	1.024298E-02	5.313484E-05
4.624691E+03	1.018651E-02	5.284190E-05
4.627659E+03	1.012170E-02	5.250571E-05
4.630625E+03	1.004960E-02	5.213168E-05
4.633591E+03	9.980629E-03	5.177392E-05
4.636558E+03	9.920879E-03	5.146397E-05
4.639525E+03	9.855053E-03	5.112250E-05
4.642491E+03	9.765431E-03	5.065759E-05
4.645458E+03	9.648543E-03	5.005124E-05
4.648425E+03	9.528371E-03	4.942785E-05
4.651391E+03	9.424021E-03	4.888655E-05
4.654358E+03	9.325244E-03	4.837415E-05
4.657324E+03	9.237073E-03	4.791676E-05
4.660291E+03	9.150131E-03	4.746575E-05
4.663258E+03	9.052779E-03	4.696075E-05
4.666224E+03	8.965860E-03	4.650986E-05
4.669190E+03	8.879993E-03	4.606443E-05
4.672158E+03	8.782333E-03	4.555783E-05
4.675124E+03	8.679827E-03	4.502608E-05
4.678091E+03	8.573517E-03	4.447461E-05
4.681058E+03	8.478676E-03	4.398263E-05
4.684024E+03	8.401897E-03	4.358434E-05
4.686991E+03	8.315757E-03	4.313749E-05
4.689957E+03	8.214190E-03	4.261062E-05
4.692924E+03	8.111076E-03	4.207572E-05
4.695891E+03	8.019079E-03	4.159849E-05
4.698857E+03	7.912352E-03	4.104485E-05
4.701823E+03	7.810498E-03	4.051649E-05
4.704791E+03	7.725136E-03	4.007368E-05
4.707757E+03	7.632850E-03	3.959495E-05
4.710723E+03	7.541965E-03	3.912349E-05
4.713690E+03	7.464444E-03	3.872136E-05
4.716657E+03	7.380521E-03	3.828601E-05
4.719624E+03	7.297131E-03	3.785343E-05
4.722590E+03	7.237672E-03	3.754499E-05
4.725557E+03	7.181686E-03	3.725457E-05
4.728524E+03	7.129176E-03	3.698217E-05
4.731490E+03	7.078231E-03	3.671790E-05
4.734456E+03	7.041674E-03	3.652826E-05
4.737424E+03	7.021579E-03	3.642402E-05
4.740390E+03	7.001831E-03	3.632158E-05
4.743356E+03	6.979660E-03	3.620657E-05
4.746323E+03	6.964938E-03	3.613020E-05
4.749290E+03	6.940864E-03	3.600531E-05
4.752256E+03	6.905711E-03	3.582296E-05
4.755223E+03	6.872120E-03	3.564871E-05
4.758189E+03	6.848228E-03	3.552477E-05
4.761156E+03	6.831262E-03	3.543676E-05
4.764123E+03	6.805817E-03	3.530477E-05
4.767089E+03	6.761163E-03	3.507313E-05
4.770057E+03	6.714094E-03	3.482896E-05
4.773023E+03	6.661494E-03	3.455610E-05
4.775989E+03	6.603368E-03	3.425457E-05
4.778956E+03	6.527433E-03	3.386067E-05
4.781923E+03	6.438884E-03	3.340132E-05
4.784889E+03	6.349140E-03	3.293578E-05
4.787856E+03	6.249555E-03	3.241919E-05
4.790822E+03	6.136848E-03	3.183453E-05
4.793789E+03	6.022086E-03	3.123921E-05
4.796756E+03	5.926191E-03	3.074176E-05
4.799722E+03	5.853478E-03	3.036457E-05
4.802688E+03	5.792877E-03	3.005020E-05
4.805656E+03	5.757174E-03	2.986499E-05
4.808622E+03	5.749990E-03	2.982773E-05
