#wls	flux	fluxerr
1.600000E+03	3.038872E-16	2.586674E-16
1.640000E+03	3.097952E-16	2.635593E-16
1.680000E+03	3.160705E-16	2.687378E-16
1.720000E+03	3.226978E-16	2.741853E-16
1.760000E+03	3.297309E-16	2.799417E-16
1.800000E+03	3.371858E-16	2.860143E-16
1.840000E+03	3.450767E-16	2.924075E-16
1.880000E+03	3.534497E-16	2.991514E-16
1.920000E+03	3.622796E-16	3.062142E-16
1.960000E+03	3.716071E-16	3.136181E-16
2.000000E+03	3.814695E-16	3.213801E-16
2.040000E+03	3.917996E-16	3.294271E-16
2.080000E+03	4.026953E-16	3.378224E-16
2.120000E+03	4.141167E-16	3.465096E-16
2.160000E+03	4.261523E-16	3.555368E-16
2.200000E+03	4.388516E-16	3.649147E-16
2.240000E+03	4.524190E-16	3.747770E-16
2.280000E+03	4.671103E-16	3.852913E-16
2.320000E+03	4.829761E-16	3.964462E-16
2.360000E+03	4.999650E-16	4.081378E-16
2.400000E+03	5.179899E-16	4.202244E-16
2.440000E+03	5.370831E-16	4.326521E-16
2.480000E+03	5.572990E-16	4.453719E-16
2.520000E+03	5.786831E-16	4.583131E-16
2.560000E+03	6.012722E-16	4.713815E-16
2.600000E+03	6.250954E-16	4.844591E-16
2.640000E+03	6.501753E-16	4.974025E-16
2.680000E+03	6.765297E-16	5.100431E-16
2.720000E+03	7.040906E-16	5.221244E-16
2.760000E+03	7.328765E-16	5.334320E-16
2.800000E+03	7.628285E-16	5.436686E-16
2.840000E+03	7.938212E-16	5.524669E-16
2.880000E+03	8.258278E-16	5.595068E-16
2.920000E+03	8.589174E-16	5.645054E-16
2.960000E+03	8.935263E-16	5.673794E-16
3.000000E+03	9.301637E-16	5.680199E-16
3.010000E+03	9.397228E-16	5.678243E-16
3.020000E+03	9.494506E-16	5.674745E-16
3.030000E+03	9.593710E-16	5.669756E-16
3.040000E+03	9.694837E-16	5.663177E-16
3.050000E+03	9.797886E-16	5.654908E-16
3.060000E+03	9.903094E-16	5.644984E-16
3.070000E+03	1.001070E-15	5.633432E-16
3.080000E+03	1.012046E-15	5.620005E-16
3.090000E+03	1.023286E-15	5.604852E-16
3.100000E+03	1.034766E-15	5.587723E-16
3.110000E+03	1.046533E-15	5.568747E-16
3.120000E+03	1.058564E-15	5.547673E-16
3.130000E+03	1.070907E-15	5.524611E-16
3.140000E+03	1.083538E-15	5.499305E-16
3.150000E+03	1.096482E-15	5.471733E-16
3.160000E+03	1.109762E-15	5.441864E-16
3.170000E+03	1.123357E-15	5.409438E-16
3.180000E+03	1.137313E-15	5.374523E-16
3.190000E+03	1.151631E-15	5.336958E-16
3.200000E+03	1.166312E-15	5.296581E-16
3.210000E+03	1.181381E-15	5.253328E-16
3.220000E+03	1.196837E-15	5.207027E-16
3.230000E+03	1.212705E-15	5.157600E-16
3.240000E+03	1.228985E-15	5.104866E-16
3.250000E+03	1.245677E-15	5.048640E-16
3.260000E+03	1.262805E-15	4.988827E-16
3.270000E+03	1.280391E-15	4.925318E-16
3.280000E+03	1.298411E-15	4.857831E-16
3.290000E+03	1.316864E-15	4.786175E-16
3.300000E+03	1.335793E-15	4.710306E-16
3.310000E+03	1.355171E-15	4.629946E-16
3.320000E+03	1.375016E-15	4.544965E-16
3.330000E+03	1.395322E-15	4.455159E-16
3.340000E+03	1.416060E-15	4.360260E-16
3.350000E+03	1.437240E-15	4.260143E-16
3.360000E+03	1.458871E-15	4.154677E-16
3.370000E+03	1.480894E-15	4.043554E-16
3.380000E+03	1.503311E-15	3.926667E-16
3.390000E+03	1.526097E-15	3.803857E-16
3.400000E+03	1.549225E-15	3.674983E-16
3.410000E+03	1.572618E-15	3.539832E-16
3.420000E+03	1.596278E-15	3.398421E-16
3.430000E+03	1.620118E-15	3.250613E-16
3.440000E+03	1.644064E-15	3.096376E-16
3.450000E+03	1.668078E-15	2.935819E-16
3.460000E+03	1.692030E-15	2.768978E-16
3.470000E+03	1.715848E-15	2.596101E-16
3.480000E+03	1.739435E-15	2.417525E-16
3.490000E+03	1.762670E-15	2.233719E-16
3.500000E+03	1.785431E-15	2.045370E-16
3.510000E+03	1.807606E-15	1.853456E-16
3.520000E+03	1.829031E-15	1.659308E-16
3.530000E+03	1.849646E-15	1.464943E-16
3.540000E+03	1.869366E-15	1.273273E-16
3.550000E+03	1.888106E-15	1.088755E-16
3.560000E+03	1.905861E-15	9.185327E-17
3.570000E+03	1.922701E-15	7.740542E-17
3.580000E+03	1.938679E-15	6.719849E-17
3.590000E+03	1.953867E-15	6.295041E-17
3.600000E+03	1.968289E-15	6.504548E-17
3.610000E+03	1.981870E-15	7.188065E-17
3.620000E+03	1.994587E-15	8.117521E-17
3.630000E+03	2.006400E-15	9.119205E-17
3.640000E+03	2.017401E-15	1.009064E-16
3.650000E+03	2.027699E-15	1.097773E-16
3.660000E+03	2.037504E-15	1.175559E-16
3.670000E+03	2.047096E-15	1.241661E-16
3.680000E+03	2.056751E-15	1.296339E-16
3.690000E+03	2.066815E-15	1.340528E-16
3.700000E+03	2.077572E-15	1.375493E-16
3.710000E+03	2.089310E-15	1.402688E-16
3.720000E+03	2.102339E-15	1.423645E-16
3.730000E+03	2.116937E-15	1.439832E-16
3.740000E+03	2.133423E-15	1.452620E-16
3.750000E+03	2.152142E-15	1.463238E-16
3.760000E+03	2.173537E-15	1.472784E-16
3.770000E+03	2.198147E-15	1.482190E-16
3.780000E+03	2.226588E-15	1.492179E-16
3.790000E+03	2.259653E-15	1.503314E-16
3.800000E+03	2.298191E-15	1.515908E-16
3.810000E+03	2.343137E-15	1.530142E-16
3.820000E+03	2.395522E-15	1.546186E-16
3.830000E+03	2.456361E-15	1.564237E-16
3.840000E+03	2.526665E-15	1.584605E-16
3.850000E+03	2.607350E-15	1.607701E-16
3.860000E+03	2.699211E-15	1.634029E-16
3.870000E+03	2.802748E-15	1.664047E-16
3.880000E+03	2.918097E-15	1.698033E-16
3.890000E+03	3.044876E-15	1.735933E-16
3.900000E+03	3.182099E-15	1.777352E-16
3.910000E+03	3.328185E-15	1.821641E-16
3.920000E+03	3.480911E-15	1.867898E-16
3.930000E+03	3.637404E-15	1.914977E-16
3.940000E+03	3.794108E-15	1.961388E-16
3.950000E+03	3.947041E-15	2.005276E-16
3.960000E+03	4.091674E-15	2.044280E-16
3.970000E+03	4.223454E-15	2.075725E-16
3.980000E+03	4.337779E-15	2.096609E-16
3.990000E+03	4.430387E-15	2.104075E-16
4.000000E+03	4.497435E-15	2.095878E-16
4.010000E+03	4.535818E-15	2.070876E-16
4.020000E+03	4.543206E-15	2.029239E-16
4.030000E+03	4.518596E-15	1.972666E-16
4.040000E+03	4.462180E-15	1.904051E-16
4.050000E+03	4.375801E-15	1.827188E-16
4.060000E+03	4.262777E-15	1.746052E-16
4.070000E+03	4.127837E-15	1.664249E-16
4.080000E+03	3.976585E-15	1.584621E-16
4.090000E+03	3.815249E-15	1.509158E-16
4.100000E+03	3.649905E-15	1.438890E-16
4.110000E+03	3.486194E-15	1.374228E-16
4.120000E+03	3.328994E-15	1.315224E-16
4.130000E+03	3.182199E-15	1.261702E-16
4.140000E+03	3.048736E-15	1.213435E-16
4.150000E+03	2.930686E-15	1.170221E-16
4.160000E+03	2.829262E-15	1.131806E-16
4.170000E+03	2.745149E-15	1.097994E-16
4.180000E+03	2.678514E-15	1.068607E-16
4.190000E+03	2.629157E-15	1.043472E-16
4.200000E+03	2.596657E-15	1.022435E-16
4.210000E+03	2.580322E-15	1.005292E-16
4.220000E+03	2.579350E-15	9.917995E-17
4.230000E+03	2.592727E-15	9.816521E-17
4.240000E+03	2.619375E-15	9.745269E-17
4.250000E+03	2.657995E-15	9.699802E-17
4.260000E+03	2.707124E-15	9.674537E-17
4.270000E+03	2.765075E-15	9.661661E-17
4.280000E+03	2.829927E-15	9.649736E-17
4.290000E+03	2.899443E-15	9.622823E-17
4.300000E+03	2.971092E-15	9.559716E-17
4.310000E+03	3.041994E-15	9.433622E-17
4.320000E+03	3.109123E-15	9.215774E-17
4.330000E+03	3.169225E-15	8.880103E-17
4.340000E+03	3.219186E-15	8.411948E-17
4.350000E+03	3.256185E-15	7.821589E-17
4.360000E+03	3.277894E-15	7.161510E-17
4.370000E+03	3.282998E-15	6.541130E-17
4.380000E+03	3.271529E-15	6.116394E-17
4.390000E+03	3.245552E-15	6.017307E-17
4.400000E+03	3.209526E-15	6.246275E-17
4.410000E+03	3.169728E-15	6.683321E-17
4.420000E+03	3.133036E-15	7.190858E-17
4.430000E+03	3.105826E-15	7.680520E-17
4.440000E+03	3.093419E-15	8.116762E-17
4.450000E+03	3.099773E-15	8.497066E-17
4.460000E+03	3.127523E-15	8.834130E-17
4.470000E+03	3.178142E-15	9.146458E-17
4.480000E+03	3.251854E-15	9.452682E-17
4.490000E+03	3.347874E-15	9.769152E-17
4.500000E+03	3.464250E-15	1.010859E-16
4.510000E+03	3.597963E-15	1.047840E-16
4.520000E+03	3.744801E-15	1.087802E-16
4.530000E+03	3.899527E-15	1.129970E-16
4.540000E+03	4.055942E-15	1.172772E-16
4.550000E+03	4.207269E-15	1.213801E-16
4.560000E+03	4.346515E-15	1.250243E-16
4.570000E+03	4.466779E-15	1.279340E-16
4.580000E+03	4.561903E-15	1.298732E-16
4.590000E+03	4.626628E-15	1.306718E-16
4.600000E+03	4.657197E-15	1.302342E-16
4.610000E+03	4.651529E-15	1.285124E-16
4.620000E+03	4.609526E-15	1.255101E-16
4.630000E+03	4.533233E-15	1.212645E-16
4.640000E+03	4.426800E-15	1.158190E-16
4.650000E+03	4.296116E-15	1.092412E-16
4.660000E+03	4.148534E-15	1.016420E-16
4.670000E+03	3.992151E-15	9.319617E-17
4.680000E+03	3.835122E-15	8.423715E-17
4.690000E+03	3.685335E-15	7.537467E-17
4.700000E+03	3.549720E-15	6.755830E-17
4.710000E+03	3.433919E-15	6.201936E-17
4.720000E+03	3.341593E-15	5.980450E-17
4.730000E+03	3.273932E-15	6.100785E-17
4.740000E+03	3.229848E-15	6.464810E-17
4.750000E+03	3.206640E-15	6.941761E-17
4.760000E+03	3.200994E-15	7.432571E-17
4.770000E+03	3.209374E-15	7.882429E-17
4.780000E+03	3.228392E-15	8.268824E-17
4.790000E+03	3.254874E-15	8.587628E-17
4.800000E+03	3.285979E-15	8.844896E-17
4.810000E+03	3.319213E-15	9.050326E-17
4.820000E+03	3.352397E-15	9.212796E-17
4.830000E+03	3.383950E-15	9.341504E-17
4.840000E+03	3.412794E-15	9.445729E-17
4.850000E+03	3.438565E-15	9.533950E-17
4.860000E+03	3.461291E-15	9.612474E-17
4.870000E+03	3.481576E-15	9.683319E-17
4.880000E+03	3.500108E-15	9.741245E-17
4.890000E+03	3.517575E-15	9.779196E-17
4.900000E+03	3.534494E-15	9.794699E-17
4.910000E+03	3.550938E-15	9.791866E-17
4.920000E+03	3.566463E-15	9.780896E-17
4.930000E+03	3.580027E-15	9.772877E-17
4.940000E+03	3.590108E-15	9.774606E-17
4.950000E+03	3.594765E-15	9.787866E-17
4.960000E+03	3.591860E-15	9.808281E-17
4.970000E+03	3.579603E-15	9.824960E-17
4.980000E+03	3.556536E-15	9.824559E-17
4.990000E+03	3.522262E-15	9.797218E-17
5.000000E+03	3.477386E-15	9.737676E-17
5.010000E+03	3.423608E-15	9.648054E-17
5.020000E+03	3.363440E-15	9.537302E-17
5.030000E+03	3.300039E-15	9.417974E-17
5.040000E+03	3.236630E-15	9.302400E-17
5.050000E+03	3.176336E-15	9.198697E-17
5.060000E+03	3.121866E-15	9.107744E-17
5.070000E+03	3.075302E-15	9.026355E-17
5.080000E+03	3.037992E-15	8.951445E-17
5.090000E+03	3.010723E-15	8.882038E-17
5.100000E+03	2.993566E-15	8.818985E-17
5.110000E+03	2.986199E-15	8.763994E-17
5.120000E+03	2.987939E-15	8.717455E-17
5.130000E+03	2.997950E-15	8.679189E-17
5.140000E+03	3.015401E-15	8.648701E-17
5.150000E+03	3.039663E-15	8.625128E-17
5.160000E+03	3.070360E-15	8.608562E-17
5.170000E+03	3.107371E-15	8.600284E-17
5.180000E+03	3.150804E-15	8.602513E-17
5.190000E+03	3.200952E-15	8.620552E-17
5.200000E+03	3.258204E-15	8.663414E-17
5.210000E+03	3.322898E-15	8.742218E-17
5.220000E+03	3.395258E-15	8.868741E-17
5.230000E+03	3.475243E-15	9.049444E-17
5.240000E+03	3.562312E-15	9.279385E-17
5.250000E+03	3.655461E-15	9.545225E-17
5.260000E+03	3.753145E-15	9.829034E-17
5.270000E+03	3.853442E-15	1.011030E-16
5.280000E+03	3.953854E-15	1.037036E-16
5.290000E+03	4.051668E-15	1.059726E-16
5.300000E+03	4.143948E-15	1.078564E-16
5.310000E+03	4.227649E-15	1.093548E-16
5.320000E+03	4.300036E-15	1.104710E-16
5.330000E+03	4.358557E-15	1.111503E-16
5.340000E+03	4.401147E-15	1.113195E-16
5.350000E+03	4.426271E-15	1.109275E-16
5.360000E+03	4.432952E-15	1.099575E-16
5.370000E+03	4.420720E-15	1.084489E-16
5.380000E+03	4.389687E-15	1.064704E-16
5.390000E+03	4.340333E-15	1.040566E-16
5.400000E+03	4.273725E-15	1.011993E-16
5.410000E+03	4.191435E-15	9.779758E-17
5.420000E+03	4.095765E-15	9.363655E-17
5.430000E+03	3.989777E-15	8.850269E-17
5.440000E+03	3.877554E-15	8.232591E-17
5.450000E+03	3.763811E-15	7.526180E-17
5.460000E+03	3.654118E-15	6.781525E-17
5.470000E+03	3.554401E-15	6.093734E-17
5.480000E+03	3.470178E-15	5.599384E-17
5.490000E+03	3.405242E-15	5.433198E-17
5.500000E+03	3.360534E-15	5.633295E-17
5.510000E+03	3.333761E-15	6.101986E-17
5.520000E+03	3.320510E-15	6.690063E-17
5.530000E+03	3.315801E-15	7.279674E-17
5.540000E+03	3.315104E-15	7.801305E-17
5.550000E+03	3.314781E-15	8.223030E-17
5.560000E+03	3.312256E-15	8.536811E-17
5.570000E+03	3.305734E-15	8.747564E-17
5.580000E+03	3.294307E-15	8.869156E-17
5.590000E+03	3.277753E-15	8.920915E-17
5.600000E+03	3.256411E-15	8.924285E-17
5.610000E+03	3.230891E-15	8.900503E-17
5.620000E+03	3.202110E-15	8.867454E-17
5.630000E+03	3.171017E-15	8.836066E-17
5.640000E+03	3.138504E-15	8.811710E-17
5.650000E+03	3.105458E-15	8.795533E-17
5.660000E+03	3.072595E-15	8.784092E-17
5.670000E+03	3.040594E-15	8.772688E-17
5.680000E+03	3.009970E-15	8.757316E-17
5.690000E+03	2.981326E-15	8.735866E-17
5.700000E+03	2.955174E-15	8.709082E-17
5.710000E+03	2.931952E-15	8.680826E-17
5.720000E+03	2.912224E-15	8.657046E-17
5.730000E+03	2.896430E-15	8.643668E-17
5.740000E+03	2.885010E-15	8.644222E-17
5.750000E+03	2.878256E-15	8.657313E-17
5.760000E+03	2.876373E-15	8.678844E-17
5.770000E+03	2.879444E-15	8.704669E-17
5.780000E+03	2.887341E-15	8.731672E-17
5.790000E+03	2.899695E-15	8.759109E-17
5.800000E+03	2.915969E-15	8.788829E-17
5.810000E+03	2.935389E-15	8.824024E-17
5.820000E+03	2.956884E-15	8.868749E-17
5.830000E+03	2.979351E-15	8.927029E-17
5.840000E+03	3.001644E-15	9.000643E-17
5.850000E+03	3.022605E-15	9.089276E-17
5.860000E+03	3.041301E-15	9.190627E-17
5.870000E+03	3.056995E-15	9.299242E-17
5.880000E+03	3.069199E-15	9.408200E-17
5.890000E+03	3.077618E-15	9.510186E-17
5.900000E+03	3.082245E-15	9.597702E-17
5.910000E+03	3.083128E-15	9.663291E-17
5.920000E+03	3.080330E-15	9.699728E-17
5.930000E+03	3.073984E-15	9.700035E-17
5.940000E+03	3.064142E-15	9.658998E-17
5.950000E+03	3.050830E-15	9.575272E-17
5.960000E+03	3.033915E-15	9.451451E-17
5.970000E+03	3.013434E-15	9.295009E-17
5.980000E+03	2.989341E-15	9.115835E-17
5.990000E+03	2.961764E-15	8.924834E-17
6.000000E+03	2.931084E-15	8.733083E-17
6.010000E+03	2.897938E-15	8.549732E-17
6.020000E+03	2.863261E-15	8.380214E-17
6.030000E+03	2.828207E-15	8.226662E-17
6.040000E+03	2.794080E-15	8.087788E-17
6.050000E+03	2.762057E-15	7.958062E-17
6.060000E+03	2.733065E-15	7.830286E-17
6.070000E+03	2.707766E-15	7.697815E-17
6.080000E+03	2.686266E-15	7.553757E-17
6.090000E+03	2.668117E-15	7.390681E-17
6.100000E+03	2.652347E-15	7.198940E-17
6.110000E+03	2.637248E-15	6.964547E-17
6.120000E+03	2.620716E-15	6.671718E-17
6.130000E+03	2.600169E-15	6.305155E-17
6.140000E+03	2.572758E-15	5.854924E-17
6.150000E+03	2.535589E-15	5.326481E-17
6.160000E+03	2.485970E-15	4.752945E-17
6.170000E+03	2.421872E-15	4.205657E-17
6.180000E+03	2.342324E-15	3.789419E-17
6.190000E+03	2.248285E-15	3.592435E-17
6.200000E+03	2.142855E-15	3.608606E-17
6.210000E+03	2.031106E-15	3.742514E-17
6.220000E+03	1.918388E-15	3.893068E-17
6.230000E+03	1.809319E-15	4.003304E-17
6.240000E+03	1.707333E-15	4.057915E-17
6.250000E+03	1.614701E-15	4.064744E-17
6.260000E+03	1.532843E-15	4.040017E-17
6.270000E+03	1.462577E-15	4.000724E-17
6.280000E+03	1.404250E-15	3.960425E-17
6.290000E+03	1.358047E-15	3.928173E-17
6.300000E+03	1.323984E-15	3.909724E-17
6.310000E+03	1.302097E-15	3.909716E-17
6.320000E+03	1.292433E-15	3.932197E-17
6.330000E+03	1.295189E-15	3.981269E-17
6.340000E+03	1.310634E-15	4.060379E-17
6.350000E+03	1.339159E-15	4.171915E-17
6.360000E+03	1.381218E-15	4.317623E-17
6.370000E+03	1.437339E-15	4.499358E-17
6.380000E+03	1.507926E-15	4.718840E-17
6.390000E+03	1.593286E-15	4.978299E-17
6.400000E+03	1.693401E-15	5.279821E-17
6.410000E+03	1.807712E-15	5.624269E-17
6.420000E+03	1.935138E-15	6.011586E-17
6.430000E+03	2.073801E-15	6.439524E-17
6.440000E+03	2.221215E-15	6.903223E-17
6.450000E+03	2.374112E-15	7.394807E-17
6.460000E+03	2.528880E-15	7.904665E-17
6.470000E+03	2.681574E-15	8.420810E-17
6.480000E+03	2.828330E-15	8.930953E-17
6.490000E+03	2.965717E-15	9.424154E-17
6.500000E+03	3.090814E-15	9.890723E-17
6.510000E+03	3.201407E-15	1.032336E-16
6.520000E+03	3.296265E-15	1.071782E-16
6.530000E+03	3.374930E-15	1.107110E-16
6.540000E+03	3.437554E-15	1.138147E-16
6.550000E+03	3.485058E-15	1.164925E-16
6.560000E+03	3.518521E-15	1.187447E-16
6.570000E+03	3.539337E-15	1.205843E-16
6.580000E+03	3.549018E-15	1.220359E-16
6.590000E+03	3.548913E-15	1.231240E-16
6.600000E+03	3.540318E-15	1.238811E-16
6.610000E+03	3.524436E-15	1.243458E-16
6.620000E+03	3.502147E-15	1.245465E-16
6.630000E+03	3.474417E-15	1.245174E-16
6.640000E+03	3.441931E-15	1.242838E-16
6.650000E+03	3.405287E-15	1.238626E-16
6.660000E+03	3.365193E-15	1.232742E-16
6.670000E+03	3.322089E-15	1.225308E-16
6.680000E+03	3.276607E-15	1.216505E-16
6.690000E+03	3.229131E-15	1.206451E-16
6.700000E+03	3.180235E-15	1.195368E-16
6.710000E+03	3.130293E-15	1.183397E-16
6.720000E+03	3.079646E-15	1.170694E-16
6.730000E+03	3.028745E-15	1.157490E-16
6.740000E+03	2.977843E-15	1.143932E-16
6.750000E+03	2.927201E-15	1.130183E-16
6.760000E+03	2.877053E-15	1.116393E-16
6.770000E+03	2.827601E-15	1.102667E-16
6.780000E+03	2.779074E-15	1.089111E-16
6.790000E+03	2.731528E-15	1.075763E-16
6.800000E+03	2.685188E-15	1.062708E-16
6.810000E+03	2.640099E-15	1.049967E-16
6.820000E+03	2.596325E-15	1.037569E-16
6.830000E+03	2.553937E-15	1.025536E-16
6.840000E+03	2.512885E-15	1.013842E-16
6.850000E+03	2.473144E-15	1.002478E-16
6.860000E+03	2.434680E-15	9.914202E-17
6.870000E+03	2.397495E-15	9.806701E-17
6.880000E+03	2.361512E-15	9.702107E-17
6.890000E+03	2.326705E-15	9.600433E-17
6.900000E+03	2.293066E-15	9.501832E-17
6.910000E+03	2.260643E-15	9.406724E-17
6.920000E+03	2.229459E-15	9.315236E-17
6.930000E+03	2.199475E-15	9.227162E-17
6.940000E+03	2.170830E-15	9.143002E-17
6.950000E+03	2.143550E-15	9.062618E-17
6.960000E+03	2.117743E-15	8.986267E-17
6.970000E+03	2.093423E-15	8.913959E-17
6.980000E+03	2.070625E-15	8.845846E-17
6.990000E+03	2.049394E-15	8.782329E-17
7.000000E+03	2.029661E-15	8.723515E-17
7.010000E+03	2.011397E-15	8.669708E-17
7.020000E+03	1.994462E-15	8.620797E-17
7.030000E+03	1.978724E-15	8.576712E-17
7.040000E+03	1.964067E-15	8.537271E-17
7.050000E+03	1.950286E-15	8.501783E-17
7.060000E+03	1.937218E-15	8.469575E-17
7.070000E+03	1.924748E-15	8.439938E-17
7.080000E+03	1.912711E-15	8.411840E-17
7.090000E+03	1.901054E-15	8.384716E-17
7.100000E+03	1.889687E-15	8.357807E-17
7.110000E+03	1.878643E-15	8.331000E-17
7.120000E+03	1.867919E-15	8.304214E-17
7.130000E+03	1.857584E-15	8.277802E-17
7.140000E+03	1.847777E-15	8.252602E-17
7.150000E+03	1.838617E-15	8.229517E-17
7.160000E+03	1.830192E-15	8.209319E-17
7.170000E+03	1.822622E-15	8.192958E-17
7.180000E+03	1.816088E-15	8.181628E-17
7.190000E+03	1.810547E-15	8.175370E-17
7.200000E+03	1.806145E-15	8.174936E-17
7.210000E+03	1.802739E-15	8.179680E-17
7.220000E+03	1.800355E-15	8.189501E-17
7.230000E+03	1.798760E-15	8.203048E-17
7.240000E+03	1.797772E-15	8.219176E-17
7.250000E+03	1.797113E-15	8.236274E-17
7.260000E+03	1.796427E-15	8.252470E-17
7.270000E+03	1.795410E-15	8.266309E-17
7.280000E+03	1.793718E-15	8.276230E-17
7.290000E+03	1.790977E-15	8.280677E-17
7.300000E+03	1.786915E-15	8.278620E-17
7.310000E+03	1.781255E-15	8.268845E-17
7.320000E+03	1.773750E-15	8.250076E-17
7.330000E+03	1.764152E-15	8.220598E-17
7.340000E+03	1.752318E-15	8.178480E-17
7.350000E+03	1.738093E-15	8.120822E-17
7.360000E+03	1.721308E-15	8.043473E-17
7.370000E+03	1.701860E-15	7.941091E-17
7.380000E+03	1.679715E-15	7.807102E-17
7.390000E+03	1.654803E-15	7.633256E-17
7.400000E+03	1.627194E-15	7.410604E-17
7.410000E+03	1.596959E-15	7.129463E-17
7.420000E+03	1.564345E-15	6.781001E-17
7.430000E+03	1.529675E-15	6.357823E-17
7.440000E+03	1.493383E-15	5.855671E-17
7.450000E+03	1.456042E-15	5.275337E-17
7.460000E+03	1.418260E-15	4.624361E-17
7.470000E+03	1.380827E-15	3.920952E-17
7.480000E+03	1.344622E-15	3.200981E-17
7.490000E+03	1.310617E-15	2.535684E-17
7.500000E+03	1.279763E-15	2.064205E-17
7.510000E+03	1.252682E-15	1.976970E-17
7.520000E+03	1.229499E-15	2.306825E-17
7.530000E+03	1.209637E-15	2.873125E-17
7.540000E+03	1.192383E-15	3.516032E-17
7.550000E+03	1.176956E-15	4.157210E-17
7.560000E+03	1.162826E-15	4.763447E-17
7.570000E+03	1.149603E-15	5.321501E-17
7.580000E+03	1.137002E-15	5.827204E-17
7.590000E+03	1.124895E-15	6.281176E-17
7.600000E+03	1.113169E-15	6.686080E-17
7.610000E+03	1.101794E-15	7.045939E-17
7.620000E+03	1.090814E-15	7.365588E-17
7.630000E+03	1.080247E-15	7.649759E-17
7.640000E+03	1.070166E-15	7.903384E-17
7.650000E+03	1.060667E-15	8.131268E-17
7.660000E+03	1.051889E-15	8.338197E-17
7.670000E+03	1.043893E-15	8.528000E-17
7.680000E+03	1.036854E-15	8.705012E-17
7.690000E+03	1.030853E-15	8.872497E-17
7.700000E+03	1.025982E-15	9.033492E-17
7.710000E+03	1.022305E-15	9.190552E-17
7.720000E+03	1.019854E-15	9.345725E-17
7.730000E+03	1.018623E-15	9.500545E-17
7.740000E+03	1.018600E-15	9.656297E-17
7.750000E+03	1.019708E-15	9.813543E-17
7.760000E+03	1.021786E-15	9.971862E-17
