#wls	flux	fluxerr
1.600000E+03	2.715770E-16	2.311526E-16
1.640000E+03	2.727626E-16	2.320391E-16
1.680000E+03	2.740163E-16	2.329644E-16
1.720000E+03	2.754175E-16	2.339929E-16
1.760000E+03	2.768775E-16	2.350458E-16
1.800000E+03	2.785162E-16	2.362213E-16
1.840000E+03	2.802860E-16	2.374742E-16
1.880000E+03	2.822633E-16	2.388640E-16
1.920000E+03	2.844820E-16	2.404133E-16
1.960000E+03	2.869747E-16	2.421423E-16
2.000000E+03	2.897731E-16	2.440693E-16
2.040000E+03	2.929482E-16	2.462441E-16
2.080000E+03	2.965689E-16	2.487128E-16
2.120000E+03	3.006619E-16	2.514838E-16
2.160000E+03	3.052925E-16	2.545952E-16
2.200000E+03	3.105236E-16	2.580799E-16
2.240000E+03	3.163764E-16	2.619324E-16
2.280000E+03	3.228709E-16	2.661424E-16
2.320000E+03	3.300259E-16	2.706942E-16
2.360000E+03	3.378593E-16	2.755662E-16
2.400000E+03	3.463884E-16	2.807304E-16
2.440000E+03	3.556302E-16	2.861522E-16
2.480000E+03	3.655268E-16	2.917296E-16
2.520000E+03	3.760981E-16	2.974159E-16
2.560000E+03	3.873660E-16	3.031567E-16
2.600000E+03	3.993547E-16	3.088891E-16
2.640000E+03	4.120197E-16	3.144858E-16
2.680000E+03	4.254321E-16	3.198970E-16
2.720000E+03	4.395969E-16	3.250078E-16
2.760000E+03	4.545998E-16	3.297472E-16
2.800000E+03	4.704303E-16	3.339562E-16
2.840000E+03	4.871984E-16	3.375428E-16
2.880000E+03	5.048903E-16	3.403064E-16
2.920000E+03	5.235837E-16	3.420888E-16
2.960000E+03	5.435172E-16	3.428072E-16
3.000000E+03	5.648523E-16	3.422904E-16
3.010000E+03	5.704720E-16	3.419733E-16
3.020000E+03	5.761877E-16	3.415592E-16
3.030000E+03	5.820363E-16	3.410647E-16
3.040000E+03	5.880210E-16	3.404854E-16
3.050000E+03	5.941450E-16	3.398170E-16
3.060000E+03	6.003782E-16	3.390361E-16
3.070000E+03	6.067917E-16	3.381763E-16
3.080000E+03	6.133895E-16	3.372324E-16
3.090000E+03	6.201080E-16	3.361622E-16
3.100000E+03	6.270192E-16	3.349976E-16
3.110000E+03	6.341275E-16	3.337329E-16
3.120000E+03	6.414376E-16	3.323619E-16
3.130000E+03	6.489546E-16	3.308788E-16
3.140000E+03	6.566838E-16	3.292771E-16
3.150000E+03	6.646307E-16	3.275505E-16
3.160000E+03	6.728347E-16	3.257087E-16
3.170000E+03	6.813020E-16	3.237441E-16
3.180000E+03	6.900053E-16	3.216332E-16
3.190000E+03	6.990187E-16	3.193996E-16
3.200000E+03	7.083154E-16	3.170191E-16
3.210000E+03	7.179027E-16	3.144832E-16
3.220000E+03	7.278221E-16	3.117979E-16
3.230000E+03	7.381154E-16	3.089673E-16
3.240000E+03	7.487231E-16	3.059528E-16
3.250000E+03	7.597215E-16	3.027721E-16
3.260000E+03	7.710856E-16	2.994003E-16
3.270000E+03	7.828925E-16	2.958524E-16
3.280000E+03	7.951176E-16	2.921026E-16
3.290000E+03	8.077704E-16	2.881386E-16
3.300000E+03	8.208949E-16	2.839595E-16
3.310000E+03	8.345009E-16	2.795513E-16
3.320000E+03	8.486328E-16	2.749111E-16
3.330000E+03	8.632659E-16	2.700123E-16
3.340000E+03	8.784792E-16	2.648613E-16
3.350000E+03	8.942474E-16	2.594309E-16
3.360000E+03	9.106142E-16	2.537148E-16
3.370000E+03	9.275529E-16	2.476864E-16
3.380000E+03	9.451763E-16	2.413567E-16
3.390000E+03	9.634204E-16	2.346891E-16
3.400000E+03	9.823254E-16	2.276753E-16
3.410000E+03	1.001930E-15	2.203060E-16
3.420000E+03	1.022237E-15	2.125640E-16
3.430000E+03	1.043243E-15	2.044331E-16
3.440000E+03	1.064983E-15	1.959060E-16
3.450000E+03	1.087449E-15	1.869702E-16
3.460000E+03	1.110669E-15	1.776227E-16
3.470000E+03	1.134558E-15	1.678482E-16
3.480000E+03	1.159209E-15	1.576670E-16
3.490000E+03	1.184572E-15	1.470865E-16
3.500000E+03	1.210628E-15	1.361355E-16
3.510000E+03	1.237401E-15	1.248684E-16
3.520000E+03	1.264846E-15	1.133648E-16
3.530000E+03	1.293003E-15	1.017632E-16
3.540000E+03	1.321856E-15	9.027669E-17
3.550000E+03	1.351455E-15	7.925240E-17
3.560000E+03	1.381805E-15	6.923801E-17
3.570000E+03	1.413059E-15	6.107305E-17
3.580000E+03	1.445318E-15	5.584944E-17
3.590000E+03	1.478624E-15	5.453429E-17
3.600000E+03	1.513025E-15	5.728644E-17
3.610000E+03	1.548437E-15	6.325692E-17
3.620000E+03	1.584742E-15	7.119453E-17
3.630000E+03	1.621724E-15	8.001887E-17
3.640000E+03	1.659253E-15	8.897924E-17
3.650000E+03	1.697178E-15	9.759098E-17
3.660000E+03	1.735411E-15	1.055567E-16
3.670000E+03	1.773798E-15	1.127009E-16
3.680000E+03	1.812354E-15	1.189482E-16
3.690000E+03	1.850895E-15	1.242777E-16
3.700000E+03	1.889351E-15	1.287261E-16
3.710000E+03	1.927688E-15	1.323724E-16
3.720000E+03	1.965752E-15	1.353201E-16
3.730000E+03	2.003496E-15	1.377072E-16
3.740000E+03	2.040972E-15	1.396977E-16
3.750000E+03	2.078205E-15	1.414626E-16
3.760000E+03	2.115467E-15	1.431826E-16
3.770000E+03	2.153237E-15	1.450271E-16
3.780000E+03	2.192229E-15	1.471401E-16
3.790000E+03	2.233352E-15	1.496215E-16
3.800000E+03	2.277788E-15	1.525238E-16
3.810000E+03	2.326848E-15	1.558503E-16
3.820000E+03	2.382032E-15	1.595735E-16
3.830000E+03	2.444795E-15	1.636329E-16
3.840000E+03	2.516638E-15	1.679560E-16
3.850000E+03	2.598948E-15	1.724588E-16
3.860000E+03	2.693239E-15	1.770702E-16
3.870000E+03	2.800813E-15	1.817153E-16
3.880000E+03	2.922902E-15	1.863303E-16
3.890000E+03	3.060449E-15	1.908540E-16
3.900000E+03	3.214319E-15	1.952467E-16
3.910000E+03	3.384767E-15	1.994639E-16
3.920000E+03	3.571642E-15	2.034767E-16
3.930000E+03	3.773988E-15	2.072600E-16
3.940000E+03	3.990015E-15	2.107999E-16
3.950000E+03	4.217158E-15	2.141026E-16
3.960000E+03	4.451476E-15	2.171701E-16
3.970000E+03	4.688220E-15	2.200244E-16
3.980000E+03	4.921270E-15	2.226600E-16
3.990000E+03	5.143297E-15	2.250306E-16
4.000000E+03	5.345969E-15	2.270215E-16
4.010000E+03	5.519824E-15	2.284086E-16
4.020000E+03	5.655438E-15	2.289067E-16
4.030000E+03	5.743725E-15	2.281967E-16
4.040000E+03	5.777502E-15	2.260041E-16
4.050000E+03	5.752519E-15	2.221568E-16
4.060000E+03	5.668081E-15	2.166128E-16
4.070000E+03	5.527949E-15	2.094881E-16
4.080000E+03	5.339605E-15	2.010326E-16
4.090000E+03	5.113613E-15	1.916021E-16
4.100000E+03	4.862282E-15	1.816043E-16
4.110000E+03	4.598174E-15	1.714576E-16
4.120000E+03	4.332650E-15	1.615426E-16
4.130000E+03	4.075418E-15	1.521811E-16
4.140000E+03	3.833742E-15	1.436071E-16
4.150000E+03	3.612877E-15	1.359758E-16
4.160000E+03	3.416042E-15	1.293558E-16
4.170000E+03	3.245123E-15	1.237660E-16
4.180000E+03	3.100902E-15	1.191898E-16
4.190000E+03	2.983387E-15	1.155843E-16
4.200000E+03	2.892066E-15	1.128904E-16
4.210000E+03	2.826102E-15	1.110370E-16
4.220000E+03	2.784134E-15	1.099270E-16
4.230000E+03	2.764746E-15	1.094611E-16
4.240000E+03	2.766234E-15	1.095345E-16
4.250000E+03	2.786851E-15	1.100460E-16
4.260000E+03	2.824581E-15	1.108861E-16
4.270000E+03	2.877184E-15	1.119323E-16
4.280000E+03	2.941937E-15	1.130350E-16
4.290000E+03	3.015604E-15	1.140262E-16
4.300000E+03	3.094524E-15	1.147382E-16
4.310000E+03	3.174249E-15	1.150059E-16
4.320000E+03	3.250056E-15	1.147020E-16
4.330000E+03	3.316935E-15	1.137470E-16
4.340000E+03	3.370057E-15	1.121367E-16
4.350000E+03	3.405180E-15	1.099795E-16
4.360000E+03	3.419070E-15	1.075086E-16
4.370000E+03	3.410231E-15	1.050479E-16
4.380000E+03	3.378968E-15	1.029096E-16
4.390000E+03	3.327703E-15	1.012821E-16
4.400000E+03	3.260677E-15	1.001558E-16
4.410000E+03	3.183544E-15	9.936372E-17
4.420000E+03	3.102605E-15	9.868341E-17
4.430000E+03	3.024329E-15	9.794344E-17
4.440000E+03	2.954612E-15	9.706987E-17
4.450000E+03	2.898712E-15	9.609153E-17
4.460000E+03	2.860944E-15	9.510274E-17
4.470000E+03	2.844893E-15	9.424271E-17
4.480000E+03	2.853425E-15	9.366919E-17
4.490000E+03	2.888853E-15	9.354083E-17
4.500000E+03	2.952870E-15	9.400010E-17
4.510000E+03	3.046727E-15	9.516107E-17
4.520000E+03	3.170883E-15	9.708673E-17
4.530000E+03	3.324964E-15	9.979562E-17
4.540000E+03	3.507661E-15	1.032616E-16
4.550000E+03	3.716346E-15	1.074041E-16
4.560000E+03	3.946937E-15	1.121050E-16
4.570000E+03	4.193865E-15	1.172166E-16
4.580000E+03	4.449731E-15	1.225487E-16
4.590000E+03	4.705671E-15	1.278890E-16
4.600000E+03	4.950969E-15	1.329736E-16
4.610000E+03	5.173781E-15	1.374761E-16
4.620000E+03	5.361707E-15	1.410414E-16
4.630000E+03	5.503063E-15	1.433310E-16
4.640000E+03	5.588144E-15	1.440555E-16
4.650000E+03	5.611261E-15	1.430774E-16
4.660000E+03	5.572054E-15	1.404713E-16
4.670000E+03	5.476118E-15	1.365236E-16
4.680000E+03	5.334390E-15	1.317235E-16
4.690000E+03	5.161410E-15	1.266691E-16
4.700000E+03	4.973104E-15	1.219095E-16
4.710000E+03	4.784274E-15	1.178351E-16
4.720000E+03	4.606541E-15	1.146151E-16
4.730000E+03	4.447466E-15	1.121874E-16
4.740000E+03	4.310632E-15	1.103464E-16
4.750000E+03	4.196404E-15	1.088685E-16
4.760000E+03	4.102679E-15	1.075953E-16
4.770000E+03	4.025902E-15	1.064654E-16
4.780000E+03	3.962035E-15	1.054861E-16
4.790000E+03	3.907120E-15	1.046895E-16
4.800000E+03	3.858154E-15	1.041265E-16
4.810000E+03	3.813638E-15	1.038369E-16
4.820000E+03	3.773951E-15	1.038280E-16
4.830000E+03	3.740746E-15	1.040889E-16
4.840000E+03	3.716135E-15	1.045972E-16
4.850000E+03	3.702109E-15	1.053078E-16
4.860000E+03	3.700067E-15	1.061612E-16
4.870000E+03	3.710684E-15	1.070917E-16
4.880000E+03	3.733824E-15	1.080233E-16
4.890000E+03	3.769123E-15	1.089072E-16
4.900000E+03	3.816369E-15	1.097512E-16
4.910000E+03	3.876115E-15	1.106410E-16
4.920000E+03	3.949799E-15	1.117456E-16
4.930000E+03	4.039444E-15	1.132853E-16
4.940000E+03	4.147481E-15	1.154826E-16
4.950000E+03	4.275141E-15	1.184784E-16
4.960000E+03	4.421242E-15	1.222333E-16
4.970000E+03	4.580259E-15	1.264418E-16
4.980000E+03	4.742443E-15	1.306288E-16
4.990000E+03	4.894110E-15	1.343064E-16
5.000000E+03	5.019061E-15	1.371074E-16
5.010000E+03	5.101171E-15	1.388504E-16
5.020000E+03	5.127729E-15	1.394944E-16
5.030000E+03	5.092462E-15	1.390568E-16
5.040000E+03	4.996810E-15	1.375869E-16
5.050000E+03	4.849912E-15	1.351560E-16
5.060000E+03	4.666811E-15	1.318484E-16
5.070000E+03	4.465025E-15	1.278098E-16
5.080000E+03	4.261312E-15	1.232875E-16
5.090000E+03	4.069411E-15	1.185950E-16
5.100000E+03	3.899047E-15	1.140507E-16
5.110000E+03	3.755737E-15	1.099067E-16
5.120000E+03	3.641274E-15	1.063086E-16
5.130000E+03	3.554561E-15	1.033104E-16
5.140000E+03	3.492790E-15	1.009055E-16
5.150000E+03	3.452069E-15	9.903925E-17
5.160000E+03	3.428029E-15	9.763337E-17
5.170000E+03	3.416710E-15	9.660277E-17
5.180000E+03	3.414889E-15	9.584958E-17
5.190000E+03	3.420540E-15	9.528493E-17
5.200000E+03	3.432974E-15	9.483623E-17
5.210000E+03	3.452922E-15	9.445657E-17
5.220000E+03	3.482423E-15	9.416714E-17
5.230000E+03	3.524338E-15	9.408072E-17
5.240000E+03	3.582087E-15	9.439096E-17
5.250000E+03	3.658972E-15	9.531312E-17
5.260000E+03	3.757786E-15	9.698545E-17
5.270000E+03	3.880232E-15	9.939979E-17
5.280000E+03	4.026577E-15	1.024579E-16
5.290000E+03	4.195727E-15	1.060682E-16
5.300000E+03	4.384878E-15	1.101825E-16
5.310000E+03	4.589579E-15	1.147934E-16
5.320000E+03	4.803810E-15	1.198403E-16
5.330000E+03	5.020066E-15	1.251068E-16
5.340000E+03	5.230010E-15	1.302578E-16
5.350000E+03	5.425189E-15	1.349164E-16
5.360000E+03	5.597993E-15	1.387191E-16
5.370000E+03	5.741934E-15	1.413855E-16
5.380000E+03	5.852100E-15	1.427555E-16
5.390000E+03	5.925016E-15	1.427665E-16
5.400000E+03	5.959131E-15	1.414619E-16
5.410000E+03	5.954737E-15	1.389360E-16
5.420000E+03	5.914258E-15	1.352936E-16
5.430000E+03	5.842611E-15	1.307236E-16
5.440000E+03	5.747704E-15	1.255337E-16
5.450000E+03	5.640174E-15	1.201228E-16
5.460000E+03	5.531982E-15	1.149950E-16
5.470000E+03	5.435230E-15	1.106947E-16
5.480000E+03	5.360431E-15	1.076541E-16
5.490000E+03	5.314997E-15	1.061475E-16
5.500000E+03	5.302023E-15	1.062698E-16
5.510000E+03	5.319760E-15	1.079158E-16
5.520000E+03	5.361911E-15	1.108385E-16
5.530000E+03	5.418968E-15	1.146825E-16
5.540000E+03	5.479284E-15	1.190032E-16
5.550000E+03	5.531474E-15	1.233771E-16
5.560000E+03	5.566586E-15	1.273948E-16
5.570000E+03	5.579813E-15	1.306139E-16
5.580000E+03	5.570566E-15	1.326990E-16
5.590000E+03	5.541521E-15	1.335965E-16
5.600000E+03	5.497175E-15	1.335563E-16
5.610000E+03	5.442713E-15	1.330299E-16
5.620000E+03	5.382851E-15	1.324508E-16
5.630000E+03	5.320744E-15	1.320495E-16
5.640000E+03	5.258197E-15	1.318757E-16
5.650000E+03	5.195301E-15	1.318231E-16
5.660000E+03	5.131016E-15	1.316504E-16
5.670000E+03	5.063135E-15	1.310772E-16
5.680000E+03	4.988713E-15	1.298997E-16
5.690000E+03	4.904666E-15	1.280378E-16
5.700000E+03	4.808206E-15	1.255372E-16
5.710000E+03	4.697846E-15	1.225290E-16
5.720000E+03	4.573702E-15	1.191615E-16
5.730000E+03	4.438321E-15	1.156002E-16
5.740000E+03	4.296625E-15	1.119947E-16
5.750000E+03	4.155614E-15	1.084563E-16
5.760000E+03	4.023592E-15	1.051044E-16
5.770000E+03	3.908713E-15	1.020851E-16
5.780000E+03	3.818238E-15	9.956692E-17
5.790000E+03	3.757955E-15	9.774592E-17
5.800000E+03	3.731708E-15	9.682719E-17
5.810000E+03	3.741399E-15	9.699832E-17
5.820000E+03	3.786861E-15	9.840751E-17
5.830000E+03	3.866283E-15	1.011101E-16
5.840000E+03	3.975928E-15	1.049910E-16
5.850000E+03	4.110524E-15	1.097915E-16
5.860000E+03	4.263469E-15	1.151568E-16
5.870000E+03	4.427348E-15	1.206721E-16
5.880000E+03	4.594054E-15	1.259228E-16
5.890000E+03	4.755368E-15	1.305739E-16
5.900000E+03	4.903383E-15	1.344031E-16
5.910000E+03	5.031162E-15	1.373014E-16
5.920000E+03	5.133631E-15	1.392237E-16
5.930000E+03	5.207982E-15	1.401370E-16
5.940000E+03	5.253430E-15	1.400509E-16
5.950000E+03	5.271061E-15	1.390672E-16
5.960000E+03	5.263070E-15	1.373692E-16
5.970000E+03	5.232019E-15	1.351793E-16
5.980000E+03	5.180721E-15	1.326694E-16
5.990000E+03	5.111541E-15	1.298835E-16
6.000000E+03	5.027011E-15	1.268173E-16
6.010000E+03	4.929772E-15	1.234799E-16
6.020000E+03	4.822934E-15	1.199189E-16
6.030000E+03	4.710124E-15	1.162403E-16
6.040000E+03	4.595180E-15	1.125677E-16
6.050000E+03	4.481757E-15	1.089915E-16
6.060000E+03	4.373575E-15	1.056006E-16
6.070000E+03	4.273828E-15	1.024627E-16
6.080000E+03	4.185200E-15	9.960374E-17
6.090000E+03	4.109498E-15	9.703452E-17
6.100000E+03	4.047474E-15	9.474129E-17
6.110000E+03	3.998345E-15	9.264350E-17
6.120000E+03	3.959844E-15	9.062682E-17
6.130000E+03	3.928062E-15	8.854275E-17
6.140000E+03	3.897406E-15	8.619822E-17
6.150000E+03	3.861811E-15	8.347583E-17
6.160000E+03	3.815398E-15	8.044402E-17
6.170000E+03	3.753870E-15	7.738071E-17
6.180000E+03	3.675266E-15	7.468012E-17
6.190000E+03	3.580124E-15	7.262774E-17
6.200000E+03	3.471271E-15	7.122783E-17
6.210000E+03	3.352741E-15	7.027042E-17
6.220000E+03	3.228346E-15	6.948517E-17
6.230000E+03	3.100596E-15	6.863940E-17
6.240000E+03	2.970444E-15	6.759326E-17
6.250000E+03	2.837828E-15	6.627870E-17
6.260000E+03	2.701934E-15	6.464219E-17
6.270000E+03	2.562518E-15	6.266340E-17
6.280000E+03	2.420520E-15	6.035115E-17
6.290000E+03	2.278485E-15	5.773424E-17
6.300000E+03	2.140281E-15	5.488817E-17
6.310000E+03	2.010405E-15	5.194879E-17
6.320000E+03	1.893586E-15	4.910392E-17
6.330000E+03	1.794165E-15	4.657608E-17
6.340000E+03	1.716003E-15	4.460397E-17
6.350000E+03	1.662351E-15	4.341340E-17
6.360000E+03	1.635868E-15	4.319152E-17
6.370000E+03	1.638553E-15	4.403545E-17
6.380000E+03	1.671873E-15	4.591855E-17
6.390000E+03	1.737006E-15	4.872983E-17
6.400000E+03	1.834967E-15	5.234235E-17
6.410000E+03	1.966534E-15	5.665267E-17
6.420000E+03	2.131733E-15	6.158323E-17
6.430000E+03	2.329484E-15	6.707287E-17
6.440000E+03	2.556676E-15	7.304810E-17
6.450000E+03	2.807899E-15	7.942005E-17
6.460000E+03	3.075141E-15	8.606370E-17
6.470000E+03	3.348307E-15	9.280871E-17
6.480000E+03	3.615771E-15	9.944916E-17
6.490000E+03	3.865661E-15	1.057641E-16
6.500000E+03	4.087260E-15	1.115313E-16
6.510000E+03	4.272347E-15	1.165708E-16
6.520000E+03	4.415992E-15	1.207609E-16
6.530000E+03	4.517357E-15	1.240418E-16
6.540000E+03	4.578946E-15	1.264254E-16
6.550000E+03	4.606358E-15	1.280090E-16
6.560000E+03	4.606916E-15	1.289329E-16
6.570000E+03	4.588644E-15	1.293686E-16
6.580000E+03	4.559236E-15	1.294889E-16
6.590000E+03	4.525187E-15	1.294253E-16
6.600000E+03	4.491489E-15	1.292777E-16
6.610000E+03	4.461584E-15	1.291233E-16
6.620000E+03	4.437300E-15	1.290080E-16
6.630000E+03	4.419204E-15	1.289655E-16
6.640000E+03	4.407017E-15	1.290234E-16
6.650000E+03	4.399719E-15	1.291872E-16
6.660000E+03	4.395979E-15	1.294547E-16
6.670000E+03	4.394116E-15	1.298051E-16
6.680000E+03	4.392333E-15	1.301890E-16
6.690000E+03	4.388607E-15	1.305391E-16
6.700000E+03	4.381245E-15	1.307953E-16
6.710000E+03	4.368654E-15	1.308924E-16
6.720000E+03	4.349504E-15	1.307800E-16
6.730000E+03	4.322999E-15	1.304332E-16
6.740000E+03	4.288741E-15	1.298371E-16
6.750000E+03	4.246751E-15	1.289957E-16
6.760000E+03	4.197330E-15	1.279251E-16
6.770000E+03	4.141213E-15	1.266462E-16
6.780000E+03	4.079071E-15	1.251798E-16
6.790000E+03	4.011906E-15	1.235614E-16
6.800000E+03	3.940512E-15	1.218154E-16
6.810000E+03	3.865890E-15	1.199761E-16
6.820000E+03	3.788806E-15	1.180718E-16
6.830000E+03	3.709999E-15	1.161191E-16
6.840000E+03	3.630137E-15	1.141271E-16
6.850000E+03	3.549891E-15	1.120978E-16
6.860000E+03	3.469757E-15	1.100153E-16
6.870000E+03	3.390448E-15	1.078737E-16
6.880000E+03	3.312564E-15	1.056781E-16
6.890000E+03	3.236817E-15	1.034493E-16
6.900000E+03	3.164003E-15	1.012264E-16
6.910000E+03	3.095050E-15	9.906099E-17
6.920000E+03	3.030830E-15	9.699857E-17
6.930000E+03	2.972453E-15	9.509024E-17
6.940000E+03	2.920889E-15	9.337829E-17
6.950000E+03	2.877050E-15	9.189359E-17
6.960000E+03	2.841832E-15	9.066554E-17
6.970000E+03	2.815729E-15	8.971324E-17
6.980000E+03	2.798935E-15	8.904488E-17
6.990000E+03	2.791236E-15	8.866012E-17
7.000000E+03	2.791932E-15	8.854519E-17
7.010000E+03	2.799994E-15	8.867073E-17
7.020000E+03	2.813871E-15	8.899075E-17
7.030000E+03	2.831726E-15	8.944980E-17
7.040000E+03	2.851641E-15	8.998327E-17
7.050000E+03	2.871583E-15	9.052250E-17
7.060000E+03	2.889576E-15	9.100052E-17
7.070000E+03	2.903766E-15	9.134918E-17
7.080000E+03	2.912655E-15	9.151441E-17
7.090000E+03	2.915044E-15	9.145673E-17
7.100000E+03	2.910162E-15	9.114992E-17
7.110000E+03	2.897667E-15	9.058611E-17
7.120000E+03	2.877819E-15	8.977840E-17
7.130000E+03	2.851281E-15	8.874643E-17
7.140000E+03	2.819238E-15	8.752553E-17
7.150000E+03	2.783143E-15	8.615888E-17
7.160000E+03	2.744645E-15	8.469069E-17
7.170000E+03	2.705412E-15	8.316924E-17
7.180000E+03	2.667086E-15	8.164782E-17
7.190000E+03	2.631229E-15	8.017820E-17
7.200000E+03	2.598983E-15	7.880551E-17
7.210000E+03	2.571299E-15	7.757200E-17
7.220000E+03	2.548901E-15	7.650795E-17
7.230000E+03	2.532033E-15	7.562802E-17
7.240000E+03	2.520814E-15	7.493903E-17
7.250000E+03	2.514896E-15	7.442286E-17
7.260000E+03	2.513786E-15	7.405449E-17
7.270000E+03	2.516681E-15	7.379887E-17
7.280000E+03	2.522567E-15	7.360918E-17
7.290000E+03	2.530140E-15	7.343226E-17
7.300000E+03	2.537999E-15	7.321513E-17
7.310000E+03	2.544695E-15	7.290249E-17
7.320000E+03	2.548915E-15	7.245498E-17
7.330000E+03	2.549563E-15	7.185649E-17
7.340000E+03	2.545915E-15	7.111091E-17
7.350000E+03	2.537846E-15	7.024514E-17
7.360000E+03	2.525751E-15	6.928786E-17
7.370000E+03	2.510569E-15	6.825225E-17
7.380000E+03	2.493605E-15	6.714521E-17
7.390000E+03	2.476344E-15	6.597219E-17
7.400000E+03	2.460113E-15	6.472863E-17
7.410000E+03	2.446062E-15	6.341411E-17
7.420000E+03	2.435080E-15	6.203178E-17
7.430000E+03	2.427496E-15	6.057393E-17
7.440000E+03	2.423521E-15	5.904520E-17
7.450000E+03	2.423079E-15	5.745777E-17
7.460000E+03	2.426034E-15	5.583419E-17
7.470000E+03	2.432288E-15	5.423621E-17
7.480000E+03	2.441754E-15	5.277402E-17
7.490000E+03	2.454043E-15	5.158604E-17
7.500000E+03	2.468454E-15	5.084126E-17
7.510000E+03	2.483679E-15	5.071032E-17
7.520000E+03	2.497532E-15	5.131357E-17
7.530000E+03	2.507468E-15	5.270916E-17
7.540000E+03	2.510699E-15	5.486268E-17
7.550000E+03	2.505011E-15	5.764712E-17
7.560000E+03	2.489102E-15	6.087966E-17
7.570000E+03	2.462418E-15	6.429322E-17
7.580000E+03	2.425588E-15	6.750538E-17
7.590000E+03	2.380012E-15	7.009031E-17
7.600000E+03	2.327403E-15	7.171507E-17
7.610000E+03	2.269845E-15	7.223428E-17
7.620000E+03	2.209282E-15	7.169077E-17
7.630000E+03	2.147723E-15	7.028921E-17
7.640000E+03	2.087213E-15	6.833689E-17
7.650000E+03	2.029611E-15	6.616229E-17
7.660000E+03	1.976876E-15	6.404947E-17
7.670000E+03	1.930987E-15	6.219654E-17
7.680000E+03	1.893705E-15	6.072003E-17
7.690000E+03	1.866540E-15	5.968234E-17
7.700000E+03	1.850486E-15	5.910742E-17
7.710000E+03	1.846079E-15	5.900595E-17
7.720000E+03	1.853343E-15	5.938231E-17
7.730000E+03	1.871651E-15	6.022796E-17
7.740000E+03	1.899929E-15	6.152847E-17
7.750000E+03	1.936563E-15	6.325163E-17
7.760000E+03	1.979748E-15	6.534574E-17
