#wls	flux	fluxerr
1.600000E+03	5.712393E-17	4.864317E-17
1.640000E+03	5.701329E-17	4.852698E-17
1.680000E+03	5.691085E-17	4.841469E-17
1.720000E+03	5.682765E-17	4.831523E-17
1.760000E+03	5.676360E-17	4.822805E-17
1.800000E+03	5.671863E-17	4.815251E-17
1.840000E+03	5.670374E-17	4.809728E-17
1.880000E+03	5.669679E-17	4.804286E-17
1.920000E+03	5.673084E-17	4.801643E-17
1.960000E+03	5.679481E-17	4.800761E-17
2.000000E+03	5.688868E-17	4.801532E-17
2.040000E+03	5.701248E-17	4.803831E-17
2.080000E+03	5.717721E-17	4.808444E-17
2.120000E+03	5.738290E-17	4.815210E-17
2.160000E+03	5.762965E-17	4.823953E-17
2.200000E+03	5.791762E-17	4.834474E-17
2.240000E+03	5.825787E-17	4.847460E-17
2.280000E+03	5.863981E-17	4.861755E-17
2.320000E+03	5.908542E-17	4.878876E-17
2.360000E+03	5.957346E-17	4.896714E-17
2.400000E+03	6.012606E-17	4.916697E-17
2.440000E+03	6.073300E-17	4.937542E-17
2.480000E+03	6.141651E-17	4.960545E-17
2.520000E+03	6.215592E-17	4.983458E-17
2.560000E+03	6.297364E-17	5.007441E-17
2.600000E+03	6.387077E-17	5.031839E-17
2.640000E+03	6.484853E-17	5.055923E-17
2.680000E+03	6.591903E-17	5.079707E-17
2.720000E+03	6.708385E-17	5.102260E-17
2.760000E+03	6.836610E-17	5.124150E-17
2.800000E+03	6.976776E-17	5.144160E-17
2.840000E+03	7.130178E-17	5.161726E-17
2.880000E+03	7.299205E-17	5.176852E-17
2.920000E+03	7.484166E-17	5.187803E-17
2.960000E+03	7.688624E-17	5.194871E-17
3.000000E+03	7.914107E-17	5.196601E-17
3.010000E+03	7.974994E-17	5.196690E-17
3.020000E+03	8.037176E-17	5.196209E-17
3.030000E+03	8.100663E-17	5.195121E-17
3.040000E+03	8.165469E-17	5.193391E-17
3.050000E+03	8.232674E-17	5.191655E-17
3.060000E+03	8.301225E-17	5.189193E-17
3.070000E+03	8.372206E-17	5.186631E-17
3.080000E+03	8.444565E-17	5.183258E-17
3.090000E+03	8.519391E-17	5.179690E-17
3.100000E+03	8.596703E-17	5.175875E-17
3.110000E+03	8.675453E-17	5.171121E-17
3.120000E+03	8.756735E-17	5.166027E-17
3.130000E+03	8.840576E-17	5.160542E-17
3.140000E+03	8.925930E-17	5.153996E-17
3.150000E+03	9.014973E-17	5.147587E-17
3.160000E+03	9.106666E-17	5.140640E-17
3.170000E+03	9.199970E-17	5.132511E-17
3.180000E+03	9.297073E-17	5.124363E-17
3.190000E+03	9.396944E-17	5.115547E-17
3.200000E+03	9.500704E-17	5.106606E-17
3.210000E+03	9.606249E-17	5.096338E-17
3.220000E+03	9.715787E-17	5.085865E-17
3.230000E+03	9.829382E-17	5.075138E-17
3.240000E+03	9.946013E-17	5.063563E-17
3.250000E+03	1.006683E-16	5.051668E-17
3.260000E+03	1.019083E-16	5.038884E-17
3.270000E+03	1.031917E-16	5.025737E-17
3.280000E+03	1.045303E-16	5.012733E-17
3.290000E+03	1.059032E-16	4.998812E-17
3.300000E+03	1.073224E-16	4.984504E-17
3.310000E+03	1.087888E-16	4.969823E-17
3.320000E+03	1.103146E-16	4.955287E-17
3.330000E+03	1.118900E-16	4.940428E-17
3.340000E+03	1.135273E-16	4.925777E-17
3.350000E+03	1.152169E-16	4.910916E-17
3.360000E+03	1.169603E-16	4.895936E-17
3.370000E+03	1.187810E-16	4.881861E-17
3.380000E+03	1.206585E-16	4.867888E-17
3.390000E+03	1.226168E-16	4.855062E-17
3.400000E+03	1.246354E-16	4.842664E-17
3.410000E+03	1.267384E-16	4.831770E-17
3.420000E+03	1.289166E-16	4.822173E-17
3.430000E+03	1.311833E-16	4.814557E-17
3.440000E+03	1.335292E-16	4.808805E-17
3.450000E+03	1.359679E-16	4.805664E-17
3.460000E+03	1.385014E-16	4.805505E-17
3.470000E+03	1.411322E-16	4.808737E-17
3.480000E+03	1.438624E-16	4.815811E-17
3.490000E+03	1.467060E-16	4.827597E-17
3.500000E+03	1.496423E-16	4.843850E-17
3.510000E+03	1.527085E-16	4.866248E-17
3.520000E+03	1.558840E-16	4.894603E-17
3.530000E+03	1.591829E-16	4.929860E-17
3.540000E+03	1.626080E-16	4.972591E-17
3.550000E+03	1.661620E-16	5.023356E-17
3.560000E+03	1.698478E-16	5.082688E-17
3.570000E+03	1.736801E-16	5.151439E-17
3.580000E+03	1.776622E-16	5.230047E-17
3.590000E+03	1.817853E-16	5.318533E-17
3.600000E+03	1.860771E-16	5.417906E-17
3.610000E+03	1.905167E-16	5.527677E-17
3.620000E+03	1.951324E-16	5.648689E-17
3.630000E+03	1.999159E-16	5.780631E-17
3.640000E+03	2.048838E-16	5.923821E-17
3.650000E+03	2.100403E-16	6.078138E-17
3.660000E+03	2.153902E-16	6.243387E-17
3.670000E+03	2.209253E-16	6.418928E-17
3.680000E+03	2.266887E-16	6.605547E-17
3.690000E+03	2.326469E-16	6.801746E-17
3.700000E+03	2.388436E-16	7.008232E-17
3.710000E+03	2.452579E-16	7.223782E-17
3.720000E+03	2.519077E-16	7.448281E-17
3.730000E+03	2.588112E-16	7.681597E-17
3.740000E+03	2.659599E-16	7.922785E-17
3.750000E+03	2.733578E-16	8.171261E-17
3.760000E+03	2.810362E-16	8.427230E-17
3.770000E+03	2.889710E-16	8.689242E-17
3.780000E+03	2.971786E-16	8.957035E-17
3.790000E+03	3.056606E-16	9.229904E-17
3.800000E+03	3.144317E-16	9.507529E-17
3.810000E+03	3.234914E-16	9.789127E-17
3.820000E+03	3.328232E-16	1.007343E-16
3.830000E+03	3.424375E-16	1.035996E-16
3.840000E+03	3.523283E-16	1.064778E-16
3.850000E+03	3.624874E-16	1.093586E-16
3.860000E+03	3.729042E-16	1.122312E-16
3.870000E+03	3.835802E-16	1.150886E-16
3.880000E+03	3.944997E-16	1.179186E-16
3.890000E+03	4.056284E-16	1.207041E-16
3.900000E+03	4.169596E-16	1.234362E-16
3.910000E+03	4.284834E-16	1.261056E-16
3.920000E+03	4.401413E-16	1.286891E-16
3.930000E+03	4.519175E-16	1.311768E-16
3.940000E+03	4.637785E-16	1.335543E-16
3.950000E+03	4.757045E-16	1.358116E-16
3.960000E+03	4.876422E-16	1.379301E-16
3.970000E+03	4.995528E-16	1.398962E-16
3.980000E+03	5.114128E-16	1.417013E-16
3.990000E+03	5.231670E-16	1.433289E-16
4.000000E+03	5.347771E-16	1.447681E-16
4.010000E+03	5.462226E-16	1.460132E-16
4.020000E+03	5.574535E-16	1.470515E-16
4.030000E+03	5.684392E-16	1.478760E-16
4.040000E+03	5.791697E-16	1.484852E-16
4.050000E+03	5.895917E-16	1.488668E-16
4.060000E+03	5.997215E-16	1.490262E-16
4.070000E+03	6.095175E-16	1.489540E-16
4.080000E+03	6.189926E-16	1.486539E-16
4.090000E+03	6.281342E-16	1.481228E-16
4.100000E+03	6.369677E-16	1.473659E-16
4.110000E+03	6.454775E-16	1.463778E-16
4.120000E+03	6.537008E-16	1.451643E-16
4.130000E+03	6.616488E-16	1.437243E-16
4.140000E+03	6.693521E-16	1.420597E-16
4.150000E+03	6.768449E-16	1.401720E-16
4.160000E+03	6.841336E-16	1.380559E-16
4.170000E+03	6.912713E-16	1.357149E-16
4.180000E+03	6.982665E-16	1.331426E-16
4.190000E+03	7.051717E-16	1.303409E-16
4.200000E+03	7.120084E-16	1.273053E-16
4.210000E+03	7.187958E-16	1.240312E-16
4.220000E+03	7.255360E-16	1.205121E-16
4.230000E+03	7.322712E-16	1.167497E-16
4.240000E+03	7.390107E-16	1.127422E-16
4.250000E+03	7.457466E-16	1.084882E-16
4.260000E+03	7.524818E-16	1.039930E-16
4.270000E+03	7.592300E-16	9.926911E-17
4.280000E+03	7.659753E-16	9.433307E-17
4.290000E+03	7.727138E-16	8.921406E-17
4.300000E+03	7.794419E-16	8.395554E-17
4.310000E+03	7.861566E-16	7.862015E-17
4.320000E+03	7.928571E-16	7.329597E-17
4.330000E+03	7.995197E-16	6.810214E-17
4.340000E+03	8.061646E-16	6.320351E-17
4.350000E+03	8.127912E-16	5.881145E-17
4.360000E+03	8.194170E-16	5.518606E-17
4.370000E+03	8.260780E-16	5.261544E-17
4.380000E+03	8.327768E-16	5.136251E-17
4.390000E+03	8.395577E-16	5.159491E-17
4.400000E+03	8.464267E-16	5.328613E-17
4.410000E+03	8.533778E-16	5.622611E-17
4.420000E+03	8.603796E-16	6.012084E-17
4.430000E+03	8.674530E-16	6.466957E-17
4.440000E+03	8.745819E-16	6.960150E-17
4.450000E+03	8.817634E-16	7.469369E-17
4.460000E+03	8.889698E-16	7.976642E-17
4.470000E+03	8.961974E-16	8.467980E-17
4.480000E+03	9.034156E-16	8.932114E-17
4.490000E+03	9.105909E-16	9.359988E-17
4.500000E+03	9.177228E-16	9.744617E-17
4.510000E+03	9.247809E-16	1.008005E-16
4.520000E+03	9.317291E-16	1.036134E-16
4.530000E+03	9.385500E-16	1.058460E-16
4.540000E+03	9.451956E-16	1.074635E-16
4.550000E+03	9.516372E-16	1.084402E-16
4.560000E+03	9.578413E-16	1.087562E-16
4.570000E+03	9.637459E-16	1.083953E-16
4.580000E+03	9.693243E-16	1.073525E-16
4.590000E+03	9.745364E-16	1.056291E-16
4.600000E+03	9.793307E-16	1.032352E-16
4.610000E+03	9.836710E-16	1.001934E-16
4.620000E+03	9.875251E-16	9.654122E-17
4.630000E+03	9.908667E-16	9.233397E-17
4.640000E+03	9.936891E-16	8.765118E-17
4.650000E+03	9.959692E-16	8.259984E-17
4.660000E+03	9.977181E-16	7.732795E-17
4.670000E+03	9.989327E-16	7.203189E-17
4.680000E+03	9.996458E-16	6.697345E-17
4.690000E+03	9.998905E-16	6.248636E-17
4.700000E+03	9.997128E-16	5.897098E-17
4.710000E+03	9.991846E-16	5.685183E-17
4.720000E+03	9.983795E-16	5.648242E-17
4.730000E+03	9.973542E-16	5.799661E-17
4.740000E+03	9.961771E-16	6.123317E-17
4.750000E+03	9.948868E-16	6.586668E-17
4.760000E+03	9.935536E-16	7.153041E-17
4.770000E+03	9.922293E-16	7.789097E-17
4.780000E+03	9.909801E-16	8.468126E-17
4.790000E+03	9.898486E-16	9.169867E-17
4.800000E+03	9.889108E-16	9.879939E-17
4.810000E+03	9.881808E-16	1.058770E-16
4.820000E+03	9.877382E-16	1.128642E-16
4.830000E+03	9.875873E-16	1.197093E-16
4.840000E+03	9.877729E-16	1.263830E-16
4.850000E+03	9.883218E-16	1.328665E-16
4.860000E+03	9.892538E-16	1.391497E-16
4.870000E+03	9.905700E-16	1.452265E-16
4.880000E+03	9.922871E-16	1.510978E-16
4.890000E+03	9.943915E-16	1.567635E-16
4.900000E+03	9.968732E-16	1.622258E-16
4.910000E+03	9.997261E-16	1.674891E-16
4.920000E+03	1.002902E-15	1.725515E-16
4.930000E+03	1.006382E-15	1.774156E-16
4.940000E+03	1.010126E-15	1.820809E-16
4.950000E+03	1.014093E-15	1.865454E-16
4.960000E+03	1.018222E-15	1.908034E-16
4.970000E+03	1.022475E-15	1.948525E-16
4.980000E+03	1.026801E-15	1.986868E-16
4.990000E+03	1.031139E-15	2.022977E-16
5.000000E+03	1.035452E-15	2.056809E-16
5.010000E+03	1.039686E-15	2.088277E-16
5.020000E+03	1.043804E-15	2.117322E-16
5.030000E+03	1.047789E-15	2.143920E-16
5.040000E+03	1.051621E-15	2.168037E-16
5.050000E+03	1.055268E-15	2.189609E-16
5.060000E+03	1.058753E-15	2.208682E-16
5.070000E+03	1.062087E-15	2.225275E-16
5.080000E+03	1.065267E-15	2.239372E-16
5.090000E+03	1.068346E-15	2.251069E-16
5.100000E+03	1.071357E-15	2.260425E-16
5.110000E+03	1.074320E-15	2.267454E-16
5.120000E+03	1.077312E-15	2.272295E-16
5.130000E+03	1.080345E-15	2.274935E-16
5.140000E+03	1.083486E-15	2.275475E-16
5.150000E+03	1.086766E-15	2.273927E-16
5.160000E+03	1.090232E-15	2.270334E-16
5.170000E+03	1.093906E-15	2.264666E-16
5.180000E+03	1.097821E-15	2.256915E-16
5.190000E+03	1.101982E-15	2.246998E-16
5.200000E+03	1.106394E-15	2.234824E-16
5.210000E+03	1.111064E-15	2.220294E-16
5.220000E+03	1.115966E-15	2.203232E-16
5.230000E+03	1.121087E-15	2.183479E-16
5.240000E+03	1.126380E-15	2.160803E-16
5.250000E+03	1.131799E-15	2.134968E-16
5.260000E+03	1.137301E-15	2.105745E-16
5.270000E+03	1.142824E-15	2.072865E-16
5.280000E+03	1.148274E-15	2.036008E-16
5.290000E+03	1.153599E-15	1.994939E-16
5.300000E+03	1.158708E-15	1.949368E-16
5.310000E+03	1.163530E-15	1.899061E-16
5.320000E+03	1.167972E-15	1.843769E-16
5.330000E+03	1.171956E-15	1.783300E-16
5.340000E+03	1.175405E-15	1.717507E-16
5.350000E+03	1.178250E-15	1.646303E-16
5.360000E+03	1.180432E-15	1.569668E-16
5.370000E+03	1.181898E-15	1.487665E-16
5.380000E+03	1.182606E-15	1.400456E-16
5.390000E+03	1.182511E-15	1.308311E-16
5.400000E+03	1.181615E-15	1.211688E-16
5.410000E+03	1.179878E-15	1.111191E-16
5.420000E+03	1.177289E-15	1.007724E-16
5.430000E+03	1.173856E-15	9.025941E-17
5.440000E+03	1.169564E-15	7.977018E-17
5.450000E+03	1.164409E-15	6.959467E-17
5.460000E+03	1.158401E-15	6.018572E-17
5.470000E+03	1.151524E-15	5.224633E-17
5.480000E+03	1.143777E-15	4.678013E-17
5.490000E+03	1.135169E-15	4.486274E-17
5.500000E+03	1.125707E-15	4.688968E-17
5.510000E+03	1.115481E-15	5.206546E-17
5.520000E+03	1.104557E-15	5.918986E-17
5.530000E+03	1.093035E-15	6.729005E-17
5.540000E+03	1.080980E-15	7.572992E-17
5.550000E+03	1.068459E-15	8.412276E-17
5.560000E+03	1.055550E-15	9.223776E-17
5.570000E+03	1.042332E-15	9.993821E-17
5.580000E+03	1.028889E-15	1.071459E-16
5.590000E+03	1.015309E-15	1.138206E-16
5.600000E+03	1.001675E-15	1.199471E-16
5.610000E+03	9.881099E-16	1.255319E-16
5.620000E+03	9.747005E-16	1.305906E-16
5.630000E+03	9.615710E-16	1.351526E-16
5.640000E+03	9.488504E-16	1.392555E-16
5.650000E+03	9.366436E-16	1.429384E-16
5.660000E+03	9.250857E-16	1.462486E-16
5.670000E+03	9.143028E-16	1.492347E-16
5.680000E+03	9.044193E-16	1.519468E-16
5.690000E+03	8.955560E-16	1.544354E-16
5.700000E+03	8.878371E-16	1.567514E-16
5.710000E+03	8.813536E-16	1.589396E-16
5.720000E+03	8.762141E-16	1.610467E-16
5.730000E+03	8.725088E-16	1.631147E-16
5.740000E+03	8.703166E-16	1.651815E-16
5.750000E+03	8.697042E-16	1.672804E-16
5.760000E+03	8.707252E-16	1.694397E-16
5.770000E+03	8.734098E-16	1.716802E-16
5.780000E+03	8.777899E-16	1.740203E-16
5.790000E+03	8.838716E-16	1.764699E-16
5.800000E+03	8.916348E-16	1.790304E-16
5.810000E+03	9.010570E-16	1.816998E-16
5.820000E+03	9.120782E-16	1.844647E-16
5.830000E+03	9.246256E-16	1.873064E-16
5.840000E+03	9.386047E-16	1.901984E-16
5.850000E+03	9.538988E-16	1.931066E-16
5.860000E+03	9.703691E-16	1.959901E-16
5.870000E+03	9.878562E-16	1.988011E-16
5.880000E+03	1.006171E-15	2.014843E-16
5.890000E+03	1.025128E-15	2.039828E-16
5.900000E+03	1.044496E-15	2.062302E-16
5.910000E+03	1.064074E-15	2.081656E-16
5.920000E+03	1.083616E-15	2.097189E-16
5.930000E+03	1.102904E-15	2.108265E-16
5.940000E+03	1.121703E-15	2.114229E-16
5.950000E+03	1.139800E-15	2.114484E-16
5.960000E+03	1.156992E-15	2.108482E-16
5.970000E+03	1.173087E-15	2.095720E-16
5.980000E+03	1.187924E-15	2.075789E-16
5.990000E+03	1.201378E-15	2.048382E-16
6.000000E+03	1.213308E-15	2.013200E-16
6.010000E+03	1.223655E-15	1.970136E-16
6.020000E+03	1.232355E-15	1.919115E-16
6.030000E+03	1.239381E-15	1.860170E-16
6.040000E+03	1.244711E-15	1.793391E-16
6.050000E+03	1.248377E-15	1.719010E-16
6.060000E+03	1.250424E-15	1.637324E-16
6.070000E+03	1.250900E-15	1.548706E-16
6.080000E+03	1.249869E-15	1.453624E-16
6.090000E+03	1.247432E-15	1.352685E-16
6.100000E+03	1.243678E-15	1.246597E-16
6.110000E+03	1.238715E-15	1.136258E-16
6.120000E+03	1.232663E-15	1.022811E-16
6.130000E+03	1.225647E-15	9.077829E-17
6.140000E+03	1.217791E-15	7.933155E-17
6.150000E+03	1.209267E-15	6.826582E-17
6.160000E+03	1.200233E-15	5.809569E-17
6.170000E+03	1.190849E-15	4.965685E-17
6.180000E+03	1.181319E-15	4.419165E-17
6.190000E+03	1.171858E-15	4.299987E-17
6.200000E+03	1.162586E-15	4.629719E-17
6.210000E+03	1.153555E-15	5.287578E-17
6.220000E+03	1.144805E-15	6.133113E-17
6.230000E+03	1.136376E-15	7.068093E-17
6.240000E+03	1.128356E-15	8.035147E-17
6.250000E+03	1.120835E-15	9.002365E-17
6.260000E+03	1.113911E-15	9.952401E-17
6.270000E+03	1.107698E-15	1.087639E-16
6.280000E+03	1.102297E-15	1.177039E-16
6.290000E+03	1.097801E-15	1.263344E-16
6.300000E+03	1.094336E-15	1.346705E-16
6.310000E+03	1.091971E-15	1.427340E-16
6.320000E+03	1.090806E-15	1.505597E-16
6.330000E+03	1.090899E-15	1.581828E-16
6.340000E+03	1.092338E-15	1.656463E-16
6.350000E+03	1.095144E-15	1.729858E-16
6.360000E+03	1.099366E-15	1.802412E-16
6.370000E+03	1.105013E-15	1.874468E-16
6.380000E+03	1.112092E-15	1.946348E-16
6.390000E+03	1.120570E-15	2.018291E-16
6.400000E+03	1.130440E-15	2.090566E-16
6.410000E+03	1.141649E-15	2.163334E-16
6.420000E+03	1.154116E-15	2.236677E-16
6.430000E+03	1.167779E-15	2.310692E-16
6.440000E+03	1.182555E-15	2.385406E-16
6.450000E+03	1.198340E-15	2.460778E-16
6.460000E+03	1.215033E-15	2.536749E-16
6.470000E+03	1.232516E-15	2.613205E-16
6.480000E+03	1.250696E-15	2.690054E-16
6.490000E+03	1.269454E-15	2.767138E-16
6.500000E+03	1.288674E-15	2.844281E-16
6.510000E+03	1.308246E-15	2.921302E-16
6.520000E+03	1.328066E-15	2.998021E-16
6.530000E+03	1.348021E-15	3.074226E-16
6.540000E+03	1.368023E-15	3.149746E-16
6.550000E+03	1.387976E-15	3.224384E-16
6.560000E+03	1.407821E-15	3.298019E-16
6.570000E+03	1.427461E-15	3.370436E-16
6.580000E+03	1.446849E-15	3.441531E-16
6.590000E+03	1.465927E-15	3.511171E-16
6.600000E+03	1.484623E-15	3.579183E-16
6.610000E+03	1.502878E-15	3.645430E-16
6.620000E+03	1.520637E-15	3.709769E-16
6.630000E+03	1.537821E-15	3.772009E-16
6.640000E+03	1.554401E-15	3.832070E-16
6.650000E+03	1.570294E-15	3.889742E-16
6.660000E+03	1.585430E-15	3.944845E-16
6.670000E+03	1.599719E-15	3.997148E-16
6.680000E+03	1.613123E-15	4.046546E-16
6.690000E+03	1.625534E-15	4.092758E-16
6.700000E+03	1.636917E-15	4.135687E-16
6.710000E+03	1.647170E-15	4.175064E-16
6.720000E+03	1.656270E-15	4.210820E-16
6.730000E+03	1.664149E-15	4.242770E-16
6.740000E+03	1.670786E-15	4.270851E-16
6.750000E+03	1.676136E-15	4.294934E-16
6.760000E+03	1.680185E-15	4.314978E-16
6.770000E+03	1.682956E-15	4.331028E-16
6.780000E+03	1.684448E-15	4.343073E-16
6.790000E+03	1.684714E-15	4.351244E-16
6.800000E+03	1.683806E-15	4.355663E-16
6.810000E+03	1.681786E-15	4.356491E-16
6.820000E+03	1.678716E-15	4.353876E-16
6.830000E+03	1.674702E-15	4.348095E-16
6.840000E+03	1.669845E-15	4.339404E-16
6.850000E+03	1.664272E-15	4.328129E-16
6.860000E+03	1.658053E-15	4.314455E-16
6.870000E+03	1.651324E-15	4.298729E-16
6.880000E+03	1.644197E-15	4.281242E-16
6.890000E+03	1.636782E-15	4.262281E-16
6.900000E+03	1.629185E-15	4.242117E-16
6.910000E+03	1.621522E-15	4.221049E-16
6.920000E+03	1.613861E-15	4.199249E-16
6.930000E+03	1.606261E-15	4.176859E-16
6.940000E+03	1.598821E-15	4.154134E-16
6.950000E+03	1.591573E-15	4.131141E-16
6.960000E+03	1.584570E-15	4.108005E-16
6.970000E+03	1.577795E-15	4.084662E-16
6.980000E+03	1.571289E-15	4.061204E-16
6.990000E+03	1.565006E-15	4.037484E-16
7.000000E+03	1.558960E-15	4.013517E-16
7.010000E+03	1.553116E-15	3.989179E-16
7.020000E+03	1.547388E-15	3.964225E-16
7.030000E+03	1.541758E-15	3.938573E-16
7.040000E+03	1.536124E-15	3.911928E-16
7.050000E+03	1.530455E-15	3.884172E-16
7.060000E+03	1.524657E-15	3.855034E-16
7.070000E+03	1.518656E-15	3.824286E-16
7.080000E+03	1.512378E-15	3.791702E-16
7.090000E+03	1.505769E-15	3.757109E-16
7.100000E+03	1.498724E-15	3.720206E-16
7.110000E+03	1.491218E-15	3.680894E-16
7.120000E+03	1.483159E-15	3.638905E-16
7.130000E+03	1.474534E-15	3.594181E-16
7.140000E+03	1.465287E-15	3.546544E-16
7.150000E+03	1.455386E-15	3.495889E-16
7.160000E+03	1.444810E-15	3.442134E-16
7.170000E+03	1.433546E-15	3.385220E-16
7.180000E+03	1.421589E-15	3.325111E-16
7.190000E+03	1.408942E-15	3.261790E-16
7.200000E+03	1.395632E-15	3.195301E-16
7.210000E+03	1.381641E-15	3.125583E-16
7.220000E+03	1.367026E-15	3.052748E-16
7.230000E+03	1.351780E-15	2.976768E-16
7.240000E+03	1.335967E-15	2.897777E-16
7.250000E+03	1.319608E-15	2.815805E-16
7.260000E+03	1.302738E-15	2.730929E-16
7.270000E+03	1.285400E-15	2.643234E-16
7.280000E+03	1.267652E-15	2.552845E-16
7.290000E+03	1.249507E-15	2.459793E-16
7.300000E+03	1.231043E-15	2.364248E-16
7.310000E+03	1.212293E-15	2.266288E-16
7.320000E+03	1.193305E-15	2.166029E-16
7.330000E+03	1.174145E-15	2.063623E-16
7.340000E+03	1.154849E-15	1.959171E-16
7.350000E+03	1.135467E-15	1.852813E-16
7.360000E+03	1.116051E-15	1.744698E-16
7.370000E+03	1.096667E-15	1.635003E-16
7.380000E+03	1.077338E-15	1.523858E-16
7.390000E+03	1.058141E-15	1.411489E-16
7.400000E+03	1.039127E-15	1.298100E-16
7.410000E+03	1.020317E-15	1.183896E-16
7.420000E+03	1.001771E-15	1.069175E-16
7.430000E+03	9.835350E-16	9.542879E-17
7.440000E+03	9.656677E-16	8.397058E-17
7.450000E+03	9.481869E-16	7.260567E-17
7.460000E+03	9.311491E-16	6.143624E-17
7.470000E+03	9.145973E-16	5.063529E-17
7.480000E+03	8.985752E-16	4.053316E-17
7.490000E+03	8.831270E-16	3.182057E-17
7.500000E+03	8.682986E-16	2.592420E-17
7.510000E+03	8.541369E-16	2.486463E-17
7.520000E+03	8.406597E-16	2.886781E-17
7.530000E+03	8.278361E-16	3.581747E-17
7.540000E+03	8.156709E-16	4.397183E-17
7.550000E+03	8.041295E-16	5.248598E-17
7.560000E+03	7.932143E-16	6.098815E-17
7.570000E+03	7.829190E-16	6.931040E-17
7.580000E+03	7.732288E-16	7.737521E-17
7.590000E+03	7.641406E-16	8.515004E-17
7.600000E+03	7.556713E-16	9.262785E-17
7.610000E+03	7.477968E-16	9.980974E-17
7.620000E+03	7.405126E-16	1.067061E-16
7.630000E+03	7.338133E-16	1.133315E-16
7.640000E+03	7.277013E-16	1.197042E-16
7.650000E+03	7.221680E-16	1.258424E-16
7.660000E+03	7.171833E-16	1.317607E-16
7.670000E+03	7.127543E-16	1.374804E-16
7.680000E+03	7.088573E-16	1.430166E-16
7.690000E+03	7.054759E-16	1.483852E-16
7.700000E+03	7.026018E-16	1.536031E-16
7.710000E+03	7.002055E-16	1.586815E-16
7.720000E+03	6.982650E-16	1.636324E-16
7.730000E+03	6.967567E-16	1.684659E-16
7.740000E+03	6.956645E-16	1.731930E-16
7.750000E+03	6.949519E-16	1.778186E-16
7.760000E+03	6.945902E-16	1.823481E-16
