#wls	flux	fluxerr
1.600000E+03	1.931368E-17	1.648715E-17
1.640000E+03	1.938711E-17	1.654865E-17
1.680000E+03	1.946780E-17	1.661619E-17
1.720000E+03	1.955268E-17	1.668712E-17
1.760000E+03	1.964213E-17	1.676174E-17
1.800000E+03	1.974341E-17	1.684622E-17
1.840000E+03	1.984668E-17	1.693212E-17
1.880000E+03	1.995930E-17	1.702569E-17
1.920000E+03	2.008182E-17	1.712736E-17
1.960000E+03	2.021136E-17	1.723462E-17
2.000000E+03	2.034853E-17	1.734793E-17
2.040000E+03	2.050106E-17	1.747383E-17
2.080000E+03	2.065916E-17	1.760390E-17
2.120000E+03	2.083426E-17	1.774780E-17
2.160000E+03	2.101664E-17	1.789715E-17
2.200000E+03	2.121800E-17	1.806181E-17
2.240000E+03	2.143230E-17	1.823651E-17
2.280000E+03	2.166436E-17	1.842522E-17
2.320000E+03	2.191187E-17	1.862580E-17
2.360000E+03	2.217997E-17	1.884243E-17
2.400000E+03	2.247032E-17	1.907631E-17
2.440000E+03	2.278475E-17	1.932873E-17
2.480000E+03	2.312144E-17	1.959785E-17
2.520000E+03	2.348638E-17	1.988842E-17
2.560000E+03	2.387810E-17	2.019877E-17
2.600000E+03	2.430316E-17	2.053401E-17
2.640000E+03	2.476458E-17	2.089612E-17
2.680000E+03	2.526572E-17	2.128729E-17
2.720000E+03	2.581031E-17	2.170991E-17
2.760000E+03	2.639824E-17	2.216297E-17
2.800000E+03	2.703824E-17	2.265277E-17
2.840000E+03	2.773546E-17	2.318236E-17
2.880000E+03	2.849113E-17	2.375127E-17
2.920000E+03	2.931601E-17	2.436675E-17
2.960000E+03	3.021732E-17	2.503266E-17
3.000000E+03	3.120313E-17	2.575320E-17
3.010000E+03	3.146430E-17	2.594277E-17
3.020000E+03	3.173115E-17	2.613586E-17
3.030000E+03	3.200385E-17	2.633253E-17
3.040000E+03	3.228254E-17	2.653286E-17
3.050000E+03	3.256740E-17	2.673692E-17
3.060000E+03	3.285857E-17	2.694478E-17
3.070000E+03	3.315624E-17	2.715651E-17
3.080000E+03	3.346057E-17	2.737219E-17
3.090000E+03	3.377174E-17	2.759190E-17
3.100000E+03	3.408994E-17	2.781571E-17
3.110000E+03	3.441536E-17	2.804370E-17
3.120000E+03	3.475359E-17	2.828033E-17
3.130000E+03	3.509408E-17	2.851695E-17
3.140000E+03	3.544241E-17	2.875799E-17
3.150000E+03	3.580430E-17	2.900800E-17
3.160000E+03	3.616897E-17	2.925816E-17
3.170000E+03	3.654776E-17	2.951752E-17
3.180000E+03	3.692969E-17	2.977711E-17
3.190000E+03	3.732633E-17	3.004615E-17
3.200000E+03	3.773228E-17	3.032017E-17
3.210000E+03	3.814197E-17	3.059458E-17
3.220000E+03	3.856730E-17	3.087879E-17
3.230000E+03	3.900276E-17	3.116823E-17
3.240000E+03	3.944260E-17	3.145821E-17
3.250000E+03	3.989910E-17	3.175835E-17
3.260000E+03	4.036661E-17	3.206400E-17
3.270000E+03	4.084543E-17	3.237522E-17
3.280000E+03	4.133588E-17	3.269210E-17
3.290000E+03	4.183830E-17	3.301473E-17
3.300000E+03	4.235303E-17	3.334318E-17
3.310000E+03	4.288041E-17	3.367755E-17
3.320000E+03	4.342081E-17	3.401790E-17
3.330000E+03	4.398123E-17	3.436949E-17
3.340000E+03	4.454888E-17	3.472209E-17
3.350000E+03	4.513070E-17	3.508090E-17
3.360000E+03	4.572710E-17	3.544599E-17
3.370000E+03	4.634546E-17	3.582280E-17
3.380000E+03	4.697238E-17	3.620070E-17
3.390000E+03	4.761520E-17	3.658508E-17
3.400000E+03	4.828156E-17	3.698150E-17
3.410000E+03	4.895763E-17	3.737903E-17
3.420000E+03	4.965840E-17	3.778881E-17
3.430000E+03	5.036969E-17	3.819968E-17
3.440000E+03	5.110690E-17	3.862299E-17
3.450000E+03	5.185549E-17	3.904735E-17
3.460000E+03	5.263129E-17	3.948429E-17
3.470000E+03	5.342729E-17	3.992811E-17
3.480000E+03	5.423607E-17	4.037285E-17
3.490000E+03	5.507415E-17	4.083036E-17
3.500000E+03	5.593425E-17	4.129473E-17
3.510000E+03	5.680866E-17	4.175980E-17
3.520000E+03	5.771464E-17	4.223774E-17
3.530000E+03	5.864462E-17	4.272243E-17
3.540000E+03	5.959931E-17	4.321379E-17
3.550000E+03	6.057944E-17	4.371176E-17
3.560000E+03	6.158574E-17	4.421624E-17
3.570000E+03	6.261898E-17	4.472711E-17
3.580000E+03	6.367994E-17	4.524425E-17
3.590000E+03	6.476944E-17	4.576750E-17
3.600000E+03	6.588830E-17	4.629670E-17
3.610000E+03	6.703736E-17	4.683164E-17
3.620000E+03	6.821752E-17	4.737212E-17
3.630000E+03	6.942965E-17	4.791789E-17
3.640000E+03	7.067469E-17	4.846868E-17
3.650000E+03	7.195357E-17	4.902420E-17
3.660000E+03	7.326727E-17	4.958410E-17
3.670000E+03	7.461678E-17	5.014805E-17
3.680000E+03	7.601402E-17	5.072290E-17
3.690000E+03	7.743842E-17	5.129375E-17
3.700000E+03	7.890177E-17	5.186735E-17
3.710000E+03	8.040515E-17	5.244317E-17
3.720000E+03	8.194970E-17	5.302068E-17
3.730000E+03	8.354845E-17	5.360689E-17
3.740000E+03	8.517899E-17	5.418599E-17
3.750000E+03	8.685422E-17	5.476483E-17
3.760000E+03	8.858791E-17	5.535052E-17
3.770000E+03	9.035643E-17	5.592666E-17
3.780000E+03	9.217340E-17	5.650015E-17
3.790000E+03	9.405337E-17	5.707814E-17
3.800000E+03	9.597140E-17	5.764362E-17
3.810000E+03	9.794185E-17	5.820354E-17
3.820000E+03	9.998016E-17	5.876506E-17
3.830000E+03	1.020599E-16	5.931057E-17
3.840000E+03	1.042109E-16	5.985540E-17
3.850000E+03	1.064057E-16	6.038153E-17
3.860000E+03	1.086602E-16	6.089591E-17
3.870000E+03	1.109912E-16	6.140563E-17
3.880000E+03	1.133697E-16	6.189210E-17
3.890000E+03	1.158285E-16	6.237086E-17
3.900000E+03	1.183373E-16	6.282293E-17
3.910000E+03	1.209303E-16	6.326392E-17
3.920000E+03	1.235760E-16	6.367447E-17
3.930000E+03	1.262923E-16	6.406135E-17
3.940000E+03	1.290989E-16	6.443142E-17
3.950000E+03	1.319621E-16	6.476482E-17
3.960000E+03	1.349198E-16	6.507715E-17
3.970000E+03	1.379369E-16	6.534825E-17
3.980000E+03	1.410333E-16	6.558467E-17
3.990000E+03	1.442308E-16	6.579298E-17
4.000000E+03	1.474919E-16	6.595263E-17
4.010000E+03	1.508585E-16	6.607905E-17
4.020000E+03	1.542918E-16	6.615148E-17
4.030000E+03	1.578137E-16	6.617622E-17
4.040000E+03	1.614481E-16	6.615943E-17
4.050000E+03	1.651536E-16	6.608022E-17
4.060000E+03	1.689764E-16	6.595360E-17
4.070000E+03	1.728731E-16	6.575865E-17
4.080000E+03	1.768681E-16	6.550129E-17
4.090000E+03	1.809876E-16	6.518724E-17
4.100000E+03	1.851851E-16	6.479570E-17
4.110000E+03	1.894862E-16	6.433238E-17
4.120000E+03	1.938926E-16	6.379410E-17
4.130000E+03	1.984322E-16	6.318615E-17
4.140000E+03	2.030535E-16	6.248827E-17
4.150000E+03	2.077835E-16	6.170586E-17
4.160000E+03	2.126227E-16	6.083578E-17
4.170000E+03	2.176000E-16	5.988295E-17
4.180000E+03	2.226573E-16	5.882822E-17
4.190000E+03	2.278214E-16	5.767689E-17
4.200000E+03	2.330899E-16	5.642633E-17
4.210000E+03	2.384590E-16	5.507421E-17
4.220000E+03	2.439235E-16	5.361867E-17
4.230000E+03	2.494765E-16	5.205845E-17
4.240000E+03	2.551091E-16	5.039319E-17
4.250000E+03	2.608100E-16	4.862378E-17
4.260000E+03	2.665656E-16	4.675280E-17
4.270000E+03	2.723593E-16	4.478524E-17
4.280000E+03	2.781714E-16	4.272933E-17
4.290000E+03	2.839794E-16	4.059772E-17
4.300000E+03	2.897576E-16	3.840916E-17
4.310000E+03	2.954386E-16	3.618576E-17
4.320000E+03	3.010681E-16	3.397507E-17
4.330000E+03	3.065750E-16	3.182394E-17
4.340000E+03	3.119255E-16	2.980193E-17
4.350000E+03	3.170445E-16	2.799502E-17
4.360000E+03	3.219829E-16	2.651919E-17
4.370000E+03	3.266308E-16	2.548519E-17
4.380000E+03	3.310533E-16	2.500580E-17
4.390000E+03	3.352002E-16	2.514129E-17
4.400000E+03	3.390329E-16	2.588574E-17
4.410000E+03	3.426137E-16	2.717505E-17
4.420000E+03	3.460184E-16	2.890719E-17
4.430000E+03	3.491971E-16	3.096100E-17
4.440000E+03	3.522847E-16	3.324208E-17
4.450000E+03	3.552378E-16	3.565981E-17
4.460000E+03	3.581492E-16	3.815617E-17
4.470000E+03	3.610650E-16	4.068678E-17
4.480000E+03	3.640274E-16	4.322122E-17
4.490000E+03	3.670745E-16	4.573963E-17
4.500000E+03	3.702857E-16	4.823608E-17
4.510000E+03	3.735920E-16	5.069181E-17
4.520000E+03	3.770106E-16	5.310290E-17
4.530000E+03	3.806487E-16	5.548189E-17
4.540000E+03	3.844617E-16	5.782281E-17
4.550000E+03	3.884454E-16	6.012662E-17
4.560000E+03	3.925886E-16	6.239413E-17
4.570000E+03	3.968729E-16	6.462564E-17
4.580000E+03	4.012230E-16	6.681211E-17
4.590000E+03	4.057104E-16	6.896878E-17
4.600000E+03	4.101983E-16	7.107590E-17
4.610000E+03	4.147523E-16	7.314780E-17
4.620000E+03	4.192279E-16	7.516192E-17
4.630000E+03	4.236893E-16	7.713205E-17
4.640000E+03	4.279889E-16	7.903353E-17
4.650000E+03	4.321401E-16	8.087023E-17
4.660000E+03	4.361056E-16	8.263657E-17
4.670000E+03	4.399071E-16	8.433788E-17
4.680000E+03	4.434054E-16	8.594837E-17
4.690000E+03	4.466313E-16	8.747444E-17
4.700000E+03	4.495669E-16	8.891302E-17
4.710000E+03	4.522003E-16	9.026214E-17
4.720000E+03	4.545260E-16	9.152095E-17
4.730000E+03	4.564879E-16	9.267826E-17
4.740000E+03	4.582069E-16	9.375874E-17
4.750000E+03	4.596390E-16	9.475374E-17
4.760000E+03	4.607450E-16	9.565521E-17
4.770000E+03	4.616629E-16	9.649181E-17
4.780000E+03	4.623622E-16	9.725746E-17
4.790000E+03	4.628162E-16	9.794646E-17
4.800000E+03	4.631158E-16	9.857788E-17
4.810000E+03	4.633541E-16	9.917153E-17
4.820000E+03	4.634529E-16	9.971057E-17
4.830000E+03	4.635077E-16	1.002151E-16
4.840000E+03	4.635562E-16	1.006930E-16
4.850000E+03	4.636360E-16	1.011519E-16
4.860000E+03	4.637836E-16	1.015993E-16
4.870000E+03	4.640337E-16	1.020421E-16
4.880000E+03	4.644188E-16	1.024868E-16
4.890000E+03	4.649687E-16	1.029392E-16
4.900000E+03	4.657096E-16	1.034043E-16
4.910000E+03	4.666060E-16	1.038735E-16
4.920000E+03	4.677903E-16	1.043751E-16
4.930000E+03	4.692170E-16	1.048983E-16
4.940000E+03	4.708349E-16	1.054304E-16
4.950000E+03	4.727014E-16	1.059833E-16
4.960000E+03	4.748686E-16	1.065675E-16
4.970000E+03	4.772076E-16	1.071529E-16
4.980000E+03	4.797576E-16	1.077469E-16
4.990000E+03	4.824938E-16	1.083424E-16
5.000000E+03	4.853865E-16	1.089311E-16
5.010000E+03	4.884612E-16	1.095169E-16
5.020000E+03	4.915017E-16	1.100495E-16
5.030000E+03	4.946478E-16	1.105581E-16
5.040000E+03	4.977999E-16	1.110181E-16
5.050000E+03	5.009184E-16	1.114185E-16
5.060000E+03	5.039655E-16	1.117484E-16
5.070000E+03	5.068437E-16	1.119837E-16
5.080000E+03	5.096433E-16	1.121421E-16
5.090000E+03	5.122112E-16	1.121871E-16
5.100000E+03	5.145824E-16	1.121244E-16
5.110000E+03	5.167960E-16	1.119599E-16
5.120000E+03	5.187053E-16	1.116595E-16
5.130000E+03	5.203531E-16	1.112307E-16
5.140000E+03	5.217206E-16	1.106675E-16
5.150000E+03	5.227892E-16	1.099644E-16
5.160000E+03	5.235405E-16	1.091163E-16
5.170000E+03	5.239554E-16	1.081181E-16
5.180000E+03	5.240144E-16	1.069651E-16
5.190000E+03	5.236975E-16	1.056530E-16
5.200000E+03	5.229845E-16	1.041779E-16
5.210000E+03	5.217925E-16	1.025241E-16
5.220000E+03	5.202283E-16	1.007137E-16
5.230000E+03	5.181489E-16	9.872064E-17
5.240000E+03	5.156635E-16	9.656804E-17
5.250000E+03	5.126349E-16	9.423279E-17
5.260000E+03	5.091160E-16	9.172846E-17
5.270000E+03	5.051618E-16	8.906884E-17
5.280000E+03	5.006491E-16	8.623672E-17
5.290000E+03	4.956427E-16	8.324925E-17
5.300000E+03	4.901514E-16	8.011415E-17
5.310000E+03	4.841890E-16	7.684074E-17
5.320000E+03	4.777751E-16	7.343998E-17
5.330000E+03	4.709345E-16	6.992448E-17
5.340000E+03	4.636419E-16	6.630052E-17
5.350000E+03	4.560444E-16	6.260030E-17
5.360000E+03	4.481253E-16	5.883304E-17
5.370000E+03	4.398759E-16	5.501162E-17
5.380000E+03	4.314494E-16	5.117130E-17
5.390000E+03	4.227914E-16	4.732365E-17
5.400000E+03	4.140550E-16	4.350823E-17
5.410000E+03	4.051921E-16	3.974676E-17
5.420000E+03	3.963041E-16	3.608429E-17
5.430000E+03	3.874407E-16	3.257002E-17
5.440000E+03	3.786936E-16	2.927049E-17
5.450000E+03	3.700141E-16	2.626010E-17
5.460000E+03	3.614860E-16	2.364700E-17
5.470000E+03	3.530990E-16	2.155285E-17
5.480000E+03	3.449628E-16	2.010880E-17
5.490000E+03	3.370513E-16	1.939813E-17
5.500000E+03	3.293736E-16	1.941886E-17
5.510000E+03	3.219312E-16	2.006858E-17
5.520000E+03	3.146817E-16	2.118256E-17
5.530000E+03	3.076915E-16	2.259935E-17
5.540000E+03	3.008736E-16	2.417621E-17
5.550000E+03	2.942860E-16	2.581768E-17
5.560000E+03	2.878431E-16	2.744835E-17
5.570000E+03	2.815665E-16	2.902518E-17
5.580000E+03	2.754760E-16	3.052249E-17
5.590000E+03	2.694945E-16	3.191528E-17
5.600000E+03	2.636470E-16	3.319694E-17
5.610000E+03	2.579275E-16	3.436283E-17
5.620000E+03	2.523329E-16	3.541212E-17
5.630000E+03	2.468622E-16	3.634675E-17
5.640000E+03	2.415171E-16	3.717058E-17
5.650000E+03	2.363011E-16	3.788896E-17
5.660000E+03	2.311922E-16	3.850368E-17
5.670000E+03	2.262523E-16	3.903092E-17
5.680000E+03	2.214610E-16	3.947377E-17
5.690000E+03	2.168006E-16	3.983541E-17
5.700000E+03	2.123313E-16	4.013323E-17
5.710000E+03	2.080104E-16	4.036579E-17
5.720000E+03	2.038954E-16	4.055045E-17
5.730000E+03	1.999445E-16	4.068525E-17
5.740000E+03	1.962119E-16	4.078711E-17
5.750000E+03	1.926562E-16	4.085326E-17
5.760000E+03	1.893051E-16	4.089497E-17
5.770000E+03	1.861621E-16	4.091821E-17
5.780000E+03	1.832293E-16	4.092845E-17
5.790000E+03	1.805078E-16	4.093061E-17
5.800000E+03	1.780188E-16	4.093397E-17
5.810000E+03	1.756984E-16	4.092791E-17
5.820000E+03	1.736082E-16	4.093039E-17
5.830000E+03	1.717246E-16	4.093954E-17
5.840000E+03	1.700449E-16	4.095791E-17
5.850000E+03	1.685657E-16	4.098766E-17
5.860000E+03	1.672833E-16	4.103064E-17
5.870000E+03	1.661742E-16	4.108352E-17
5.880000E+03	1.652739E-16	4.115731E-17
5.890000E+03	1.645394E-16	4.124339E-17
5.900000E+03	1.640060E-16	4.135248E-17
5.910000E+03	1.636315E-16	4.147566E-17
5.920000E+03	1.634519E-16	4.162354E-17
5.930000E+03	1.634262E-16	4.178712E-17
5.940000E+03	1.635912E-16	4.197708E-17
5.950000E+03	1.639072E-16	4.218444E-17
5.960000E+03	1.643934E-16	4.241514E-17
5.970000E+03	1.650502E-16	4.267032E-17
5.980000E+03	1.658791E-16	4.295129E-17
5.990000E+03	1.669020E-16	4.326461E-17
6.000000E+03	1.680829E-16	4.360180E-17
6.010000E+03	1.694455E-16	4.396979E-17
6.020000E+03	1.709946E-16	4.437071E-17
6.030000E+03	1.727364E-16	4.480686E-17
6.040000E+03	1.746773E-16	4.528081E-17
6.050000E+03	1.768039E-16	4.578991E-17
6.060000E+03	1.791660E-16	4.634788E-17
6.070000E+03	1.817514E-16	4.695255E-17
6.080000E+03	1.845693E-16	4.760725E-17
6.090000E+03	1.876069E-16	4.830977E-17
6.100000E+03	1.909174E-16	4.907501E-17
6.110000E+03	1.944884E-16	4.990101E-17
6.120000E+03	1.983053E-16	5.078544E-17
6.130000E+03	2.024223E-16	5.174380E-17
6.140000E+03	2.067992E-16	5.276746E-17
6.150000E+03	2.114898E-16	5.387205E-17
6.160000E+03	2.164481E-16	5.504793E-17
6.170000E+03	2.217259E-16	5.631054E-17
6.180000E+03	2.272697E-16	5.764873E-17
6.190000E+03	2.331000E-16	5.907034E-17
6.200000E+03	2.392361E-16	6.058306E-17
6.210000E+03	2.456086E-16	6.217233E-17
6.220000E+03	2.522271E-16	6.384360E-17
6.230000E+03	2.590681E-16	6.559413E-17
6.240000E+03	2.661025E-16	6.741980E-17
6.250000E+03	2.732961E-16	6.931507E-17
6.260000E+03	2.806087E-16	7.127290E-17
6.270000E+03	2.880290E-16	7.329336E-17
6.280000E+03	2.954397E-16	7.534927E-17
6.290000E+03	3.027836E-16	7.742837E-17
6.300000E+03	3.100740E-16	7.953592E-17
6.310000E+03	3.172156E-16	8.164903E-17
6.320000E+03	3.241475E-16	8.375285E-17
6.330000E+03	3.308084E-16	8.583188E-17
6.340000E+03	3.371390E-16	8.787027E-17
6.350000E+03	3.430822E-16	8.985213E-17
6.360000E+03	3.485439E-16	9.175098E-17
6.370000E+03	3.535582E-16	9.357333E-17
6.380000E+03	3.580423E-16	9.529440E-17
6.390000E+03	3.619183E-16	9.688970E-17
6.400000E+03	3.652432E-16	9.837038E-17
6.410000E+03	3.679541E-16	9.971504E-17
6.420000E+03	3.699940E-16	1.009033E-16
6.430000E+03	3.714447E-16	1.019523E-16
6.440000E+03	3.722199E-16	1.028330E-16
6.450000E+03	3.724159E-16	1.035668E-16
6.460000E+03	3.719585E-16	1.041276E-16
6.470000E+03	3.709558E-16	1.045406E-16
6.480000E+03	3.693439E-16	1.047827E-16
6.490000E+03	3.671953E-16	1.048696E-16
6.500000E+03	3.645848E-16	1.048181E-16
6.510000E+03	3.614597E-16	1.046091E-16
6.520000E+03	3.578994E-16	1.042616E-16
6.530000E+03	3.539830E-16	1.037951E-16
6.540000E+03	3.496636E-16	1.031931E-16
6.550000E+03	3.450215E-16	1.024764E-16
6.560000E+03	3.400942E-16	1.016539E-16
6.570000E+03	3.349183E-16	1.007345E-16
6.580000E+03	3.295686E-16	9.973944E-17
6.590000E+03	3.240006E-16	9.865397E-17
6.600000E+03	3.182869E-16	9.749921E-17
6.610000E+03	3.124585E-16	9.628412E-17
6.620000E+03	3.065449E-16	9.501741E-17
6.630000E+03	3.005736E-16	9.370753E-17
6.640000E+03	2.945700E-16	9.236257E-17
6.650000E+03	2.885578E-16	9.099026E-17
6.660000E+03	2.825586E-16	8.959793E-17
6.670000E+03	2.765923E-16	8.819248E-17
6.680000E+03	2.706767E-16	8.678038E-17
6.690000E+03	2.647965E-16	8.535748E-17
6.700000E+03	2.590299E-16	8.394988E-17
6.710000E+03	2.533575E-16	8.255236E-17
6.720000E+03	2.477906E-16	8.116963E-17
6.730000E+03	2.423389E-16	7.980597E-17
6.740000E+03	2.369828E-16	7.845584E-17
6.750000E+03	2.317866E-16	7.714161E-17
6.760000E+03	2.267274E-16	7.585682E-17
6.770000E+03	2.218102E-16	7.460415E-17
6.780000E+03	2.170132E-16	7.337719E-17
6.790000E+03	2.123917E-16	7.219563E-17
6.800000E+03	2.078966E-16	7.104373E-17
6.810000E+03	2.035798E-16	6.994002E-17
6.820000E+03	1.994165E-16	6.887695E-17
6.830000E+03	1.953837E-16	6.784721E-17
6.840000E+03	1.915280E-16	6.686774E-17
6.850000E+03	1.878023E-16	6.592271E-17
6.860000E+03	1.842507E-16	6.502809E-17
6.870000E+03	1.808266E-16	6.416804E-17
6.880000E+03	1.775504E-16	6.335009E-17
6.890000E+03	1.744405E-16	6.258116E-17
6.900000E+03	1.714518E-16	6.184541E-17
6.910000E+03	1.686227E-16	6.115681E-17
6.920000E+03	1.659091E-16	6.049950E-17
6.930000E+03	1.633281E-16	5.987962E-17
6.940000E+03	1.608952E-16	5.930288E-17
6.950000E+03	1.585678E-16	5.875339E-17
6.960000E+03	1.563614E-16	5.823667E-17
6.970000E+03	1.542721E-16	5.775090E-17
6.980000E+03	1.523141E-16	5.730109E-17
6.990000E+03	1.504464E-16	5.687139E-17
7.000000E+03	1.486834E-16	5.646668E-17
7.010000E+03	1.470210E-16	5.608483E-17
7.020000E+03	1.454550E-16	5.572367E-17
7.030000E+03	1.439815E-16	5.538097E-17
7.040000E+03	1.425964E-16	5.505452E-17
7.050000E+03	1.412957E-16	5.474207E-17
7.060000E+03	1.400755E-16	5.444139E-17
7.070000E+03	1.389320E-16	5.415027E-17
7.080000E+03	1.378615E-16	5.386654E-17
7.090000E+03	1.368602E-16	5.358807E-17
7.100000E+03	1.359247E-16	5.331277E-17
7.110000E+03	1.350513E-16	5.303862E-17
7.120000E+03	1.342367E-16	5.276369E-17
7.130000E+03	1.334775E-16	5.248611E-17
7.140000E+03	1.327705E-16	5.220410E-17
7.150000E+03	1.320963E-16	5.190970E-17
7.160000E+03	1.314840E-16	5.161392E-17
7.170000E+03	1.309142E-16	5.130900E-17
7.180000E+03	1.303840E-16	5.099359E-17
7.190000E+03	1.298746E-16	5.066031E-17
7.200000E+03	1.294146E-16	5.032042E-17
7.210000E+03	1.289852E-16	4.996680E-17
7.220000E+03	1.285679E-16	4.959265E-17
7.230000E+03	1.281910E-16	4.920946E-17
7.240000E+03	1.278361E-16	4.881074E-17
7.250000E+03	1.274848E-16	4.839038E-17
7.260000E+03	1.271653E-16	4.796017E-17
7.270000E+03	1.268438E-16	4.750863E-17
7.280000E+03	1.265484E-16	4.704782E-17
7.290000E+03	1.262454E-16	4.656695E-17
7.300000E+03	1.259628E-16	4.607840E-17
7.310000E+03	1.256672E-16	4.557218E-17
7.320000E+03	1.253864E-16	4.506104E-17
7.330000E+03	1.250871E-16	4.453583E-17
7.340000E+03	1.247820E-16	4.400434E-17
7.350000E+03	1.244835E-16	4.347442E-17
7.360000E+03	1.241586E-16	4.293829E-17
7.370000E+03	1.238199E-16	4.240451E-17
7.380000E+03	1.234650E-16	4.187658E-17
7.390000E+03	1.231065E-16	4.136333E-17
7.400000E+03	1.227119E-16	4.085858E-17
7.410000E+03	1.222941E-16	4.037162E-17
7.420000E+03	1.218511E-16	3.990673E-17
7.430000E+03	1.213808E-16	3.946818E-17
7.440000E+03	1.208815E-16	3.906020E-17
7.450000E+03	1.203517E-16	3.868681E-17
7.460000E+03	1.197900E-16	3.835171E-17
7.470000E+03	1.191953E-16	3.805820E-17
7.480000E+03	1.185667E-16	3.780902E-17
7.490000E+03	1.179037E-16	3.760628E-17
7.500000E+03	1.172058E-16	3.745136E-17
7.510000E+03	1.164731E-16	3.734484E-17
7.520000E+03	1.157057E-16	3.728653E-17
7.530000E+03	1.149042E-16	3.727540E-17
7.540000E+03	1.140551E-16	3.730509E-17
7.550000E+03	1.131877E-16	3.738230E-17
7.560000E+03	1.122891E-16	3.749938E-17
7.570000E+03	1.113606E-16	3.765275E-17
7.580000E+03	1.103902E-16	3.783382E-17
7.590000E+03	1.094068E-16	3.804771E-17
7.600000E+03	1.083987E-16	3.828547E-17
7.610000E+03	1.073544E-16	3.853798E-17
7.620000E+03	1.063025E-16	3.881046E-17
7.630000E+03	1.052186E-16	3.908921E-17
7.640000E+03	1.041309E-16	3.937995E-17
7.650000E+03	1.030155E-16	3.966929E-17
7.660000E+03	1.019001E-16	3.996364E-17
7.670000E+03	1.007612E-16	4.025006E-17
7.680000E+03	9.961351E-17	4.053071E-17
7.690000E+03	9.847110E-17	4.080822E-17
7.700000E+03	9.731120E-17	4.107036E-17
7.710000E+03	9.614789E-17	4.132035E-17
7.720000E+03	9.499466E-17	4.156181E-17
7.730000E+03	9.382931E-17	4.178318E-17
7.740000E+03	9.266529E-17	4.198855E-17
7.750000E+03	9.150403E-17	4.217714E-17
7.760000E+03	9.034686E-17	4.234837E-17
