#wls	flux	fluxerr
1.571709E+03	7.980342E-04	4.612522E-05
1.611002E+03	8.013562E-04	4.617913E-05
1.650295E+03	8.052910E-04	4.626353E-05
1.689587E+03	8.095686E-04	4.636249E-05
1.728880E+03	8.144878E-04	4.649276E-05
1.768173E+03	8.199221E-04	4.664663E-05
1.807466E+03	8.261749E-04	4.684085E-05
1.846758E+03	8.332687E-04	4.707603E-05
1.886051E+03	8.413691E-04	4.736083E-05
1.925344E+03	8.505009E-04	4.769579E-05
1.964637E+03	8.608370E-04	4.808971E-05
2.003929E+03	8.724069E-04	4.854319E-05
2.043222E+03	8.856885E-04	4.908163E-05
2.082515E+03	9.007194E-04	4.970564E-05
2.121807E+03	9.178447E-04	5.043263E-05
2.161100E+03	9.369583E-04	5.125491E-05
2.200393E+03	9.582601E-04	5.218149E-05
2.239686E+03	9.819528E-04	5.322127E-05
2.278978E+03	1.007775E-03	5.435782E-05
2.318271E+03	1.035769E-03	5.559108E-05
2.357564E+03	1.065970E-03	5.692072E-05
2.396857E+03	1.098409E-03	5.834578E-05
2.436149E+03	1.132943E-03	5.985613E-05
2.475442E+03	1.169410E-03	6.144080E-05
2.514735E+03	1.207955E-03	6.310470E-05
2.554028E+03	1.248371E-03	6.483443E-05
2.593320E+03	1.290751E-03	6.663214E-05
2.632613E+03	1.334992E-03	6.848968E-05
2.671906E+03	1.380774E-03	7.038795E-05
2.711198E+03	1.428232E-03	7.233125E-05
2.750491E+03	1.476933E-03	7.429498E-05
2.789784E+03	1.526713E-03	7.626854E-05
2.829077E+03	1.576808E-03	7.821166E-05
2.868369E+03	1.626355E-03	8.008039E-05
2.907662E+03	1.674917E-03	8.185275E-05
2.946955E+03	1.721619E-03	8.348618E-05
2.956778E+03	1.732969E-03	8.387125E-05
2.966601E+03	1.744249E-03	8.424998E-05
2.976424E+03	1.755273E-03	8.461338E-05
2.986248E+03	1.766028E-03	8.496089E-05
2.996071E+03	1.776848E-03	8.530860E-05
3.005894E+03	1.787198E-03	8.563081E-05
3.015717E+03	1.797586E-03	8.595201E-05
3.025540E+03	1.807651E-03	8.625486E-05
3.035363E+03	1.817552E-03	8.654710E-05
3.045187E+03	1.827277E-03	8.682813E-05
3.055010E+03	1.836639E-03	8.708911E-05
3.064833E+03	1.845970E-03	8.734592E-05
3.074656E+03	1.854914E-03	8.758166E-05
3.084479E+03	1.863802E-03	8.781207E-05
3.094303E+03	1.872280E-03	8.802049E-05
3.104126E+03	1.880678E-03	8.822259E-05
3.113949E+03	1.888816E-03	8.840985E-05
3.123772E+03	1.896854E-03	8.858989E-05
3.133595E+03	1.904615E-03	8.875442E-05
3.143418E+03	1.912260E-03	8.891106E-05
3.153242E+03	1.919616E-03	8.905173E-05
3.163065E+03	1.926845E-03	8.918411E-05
3.172888E+03	1.933946E-03	8.930812E-05
3.182711E+03	1.940918E-03	8.942372E-05
3.192534E+03	1.947926E-03	8.953863E-05
3.202358E+03	1.954645E-03	8.963779E-05
3.212181E+03	1.961409E-03	8.973666E-05
3.222004E+03	1.968227E-03	8.983556E-05
3.231827E+03	1.975107E-03	8.993491E-05
3.241650E+03	1.981903E-03	9.002797E-05
3.251473E+03	1.988953E-03	9.013012E-05
3.261297E+03	1.996116E-03	9.023487E-05
3.271120E+03	2.003574E-03	9.035038E-05
3.280943E+03	2.011351E-03	9.047766E-05
3.290766E+03	2.019476E-03	9.061782E-05
3.300589E+03	2.027978E-03	9.077213E-05
3.310413E+03	2.037047E-03	9.094884E-05
3.320236E+03	2.046716E-03	9.114927E-05
3.330059E+03	2.057020E-03	9.137472E-05
3.339882E+03	2.068146E-03	9.163332E-05
3.349705E+03	2.080128E-03	9.192618E-05
3.359528E+03	2.092994E-03	9.225433E-05
3.369352E+03	2.106921E-03	9.262512E-05
3.379175E+03	2.121924E-03	9.303890E-05
3.388998E+03	2.138010E-03	9.349555E-05
3.398821E+03	2.155318E-03	9.400078E-05
3.408644E+03	2.173970E-03	9.455936E-05
3.418468E+03	2.193768E-03	9.516227E-05
3.428291E+03	2.214929E-03	9.581845E-05
3.438114E+03	2.237196E-03	9.651630E-05
3.447937E+03	2.260716E-03	9.726176E-05
3.457760E+03	2.285162E-03	9.804027E-05
3.467583E+03	2.310317E-03	9.884219E-05
3.477407E+03	2.336213E-03	9.966859E-05
3.487230E+03	2.362426E-03	1.005012E-04
3.497053E+03	2.388805E-03	1.013334E-04
3.506876E+03	2.414922E-03	1.021470E-04
3.516699E+03	2.440650E-03	1.029368E-04
3.526523E+03	2.465769E-03	1.036935E-04
3.536346E+03	2.490016E-03	1.044063E-04
3.546169E+03	2.513548E-03	1.050822E-04
3.555992E+03	2.536465E-03	1.057255E-04
3.565815E+03	2.558663E-03	1.063321E-04
3.575639E+03	2.580621E-03	1.069221E-04
3.585462E+03	2.602580E-03	1.075055E-04
3.595285E+03	2.624544E-03	1.080824E-04
3.605108E+03	2.647043E-03	1.086746E-04
3.614931E+03	2.670095E-03	1.092827E-04
3.624754E+03	2.694095E-03	1.099224E-04
3.634578E+03	2.719183E-03	1.105991E-04
3.644401E+03	2.745738E-03	1.113276E-04
3.654224E+03	2.773894E-03	1.121130E-04
3.664047E+03	2.803900E-03	1.129645E-04
3.673870E+03	2.836005E-03	1.138913E-04
3.683694E+03	2.870457E-03	1.149026E-04
3.693517E+03	2.907381E-03	1.160024E-04
3.703340E+03	2.947021E-03	1.171994E-04
3.713163E+03	2.989611E-03	1.185017E-04
3.722986E+03	3.035260E-03	1.199126E-04
3.732809E+03	3.084291E-03	1.214434E-04
3.742633E+03	3.136780E-03	1.230958E-04
3.752456E+03	3.192890E-03	1.248746E-04
3.762279E+03	3.252748E-03	1.267834E-04
3.772102E+03	3.316224E-03	1.288156E-04
3.781925E+03	3.383585E-03	1.309799E-04
3.791749E+03	3.454601E-03	1.332660E-04
3.801572E+03	3.529317E-03	1.356739E-04
3.811395E+03	3.607380E-03	1.381887E-04
3.821218E+03	3.688823E-03	1.408101E-04
3.831041E+03	3.773044E-03	1.435138E-04
3.840864E+03	3.859939E-03	1.462947E-04
3.850688E+03	3.948884E-03	1.491280E-04
3.860511E+03	4.039423E-03	1.519956E-04
3.870334E+03	4.131044E-03	1.548778E-04
3.880157E+03	4.223195E-03	1.577532E-04
3.889980E+03	4.315178E-03	1.605957E-04
3.899804E+03	4.406389E-03	1.633829E-04
3.909627E+03	4.496111E-03	1.660884E-04
3.919450E+03	4.583755E-03	1.686913E-04
3.929273E+03	4.668765E-03	1.711720E-04
3.939096E+03	4.750514E-03	1.735085E-04
3.948919E+03	4.828552E-03	1.756859E-04
3.958743E+03	4.902391E-03	1.776879E-04
3.968566E+03	4.971863E-03	1.795102E-04
3.978389E+03	5.036546E-03	1.811395E-04
3.988212E+03	5.096473E-03	1.825790E-04
3.998035E+03	5.151557E-03	1.838275E-04
4.007859E+03	5.201940E-03	1.848920E-04
4.017682E+03	5.247759E-03	1.857796E-04
4.027505E+03	5.289377E-03	1.865049E-04
4.037328E+03	5.327258E-03	1.870859E-04
4.047151E+03	5.361837E-03	1.875396E-04
4.056974E+03	5.393854E-03	1.878930E-04
4.066798E+03	5.423876E-03	1.881671E-04
4.076621E+03	5.452510E-03	1.883836E-04
4.086444E+03	5.480708E-03	1.885760E-04
4.096267E+03	5.508867E-03	1.887581E-04
4.106090E+03	5.537901E-03	1.889610E-04
4.115914E+03	5.568238E-03	1.891991E-04
4.125737E+03	5.600667E-03	1.894985E-04
4.135560E+03	5.635561E-03	1.898709E-04
4.145383E+03	5.673186E-03	1.903242E-04
4.155206E+03	5.713999E-03	1.908725E-04
4.165029E+03	5.757893E-03	1.915110E-04
4.174853E+03	5.805031E-03	1.922438E-04
4.184676E+03	5.854986E-03	1.930554E-04
4.194499E+03	5.907580E-03	1.939389E-04
4.204322E+03	5.962245E-03	1.948746E-04
4.214145E+03	6.018135E-03	1.958342E-04
4.223969E+03	6.074442E-03	1.967910E-04
4.233792E+03	6.130106E-03	1.977106E-04
4.243615E+03	6.184049E-03	1.985590E-04
4.253438E+03	6.235019E-03	1.992967E-04
4.263261E+03	6.281747E-03	1.998850E-04
4.273084E+03	6.323022E-03	2.002872E-04
4.282908E+03	6.357981E-03	2.004787E-04
4.292731E+03	6.385676E-03	2.004325E-04
4.302554E+03	6.405663E-03	2.001379E-04
4.312377E+03	6.417684E-03	1.995905E-04
4.322200E+03	6.423037E-03	1.988338E-04
4.332024E+03	6.423983E-03	1.979406E-04
4.341847E+03	6.422962E-03	1.969877E-04
4.351670E+03	6.422752E-03	1.960607E-04
4.361493E+03	6.425959E-03	1.952387E-04
4.371316E+03	6.435295E-03	1.946023E-04
4.381139E+03	6.453003E-03	1.942165E-04
4.390963E+03	6.481455E-03	1.941489E-04
4.400786E+03	6.522519E-03	1.944506E-04
4.410609E+03	6.577519E-03	1.951558E-04
4.420432E+03	6.647683E-03	1.962947E-04
4.430255E+03	6.733636E-03	1.978795E-04
4.440079E+03	6.835766E-03	1.999150E-04
4.449902E+03	6.953717E-03	2.023842E-04
4.459725E+03	7.086955E-03	2.052651E-04
4.469548E+03	7.234263E-03	2.085163E-04
4.479371E+03	7.394024E-03	2.120859E-04
4.489194E+03	7.564039E-03	2.159062E-04
4.499018E+03	7.741633E-03	2.198970E-04
4.508841E+03	7.923939E-03	2.239746E-04
4.518664E+03	8.107543E-03	2.280414E-04
4.528487E+03	8.288906E-03	2.319980E-04
4.538310E+03	8.464326E-03	2.357427E-04
4.548134E+03	8.630281E-03	2.391806E-04
4.557957E+03	8.783508E-03	2.422261E-04
4.567780E+03	8.921169E-03	2.448069E-04
4.577603E+03	9.040874E-03	2.468645E-04
4.587426E+03	9.141092E-03	2.483649E-04
4.597250E+03	9.220745E-03	2.492871E-04
4.607073E+03	9.279539E-03	2.496320E-04
4.616896E+03	9.317702E-03	2.494143E-04
4.626719E+03	9.335902E-03	2.486602E-04
4.636542E+03	9.334973E-03	2.474002E-04
4.646365E+03	9.316677E-03	2.456883E-04
4.656189E+03	9.283720E-03	2.436027E-04
4.666012E+03	9.238975E-03	2.412242E-04
4.675835E+03	9.185109E-03	2.386269E-04
4.685658E+03	9.124767E-03	2.358827E-04
4.695481E+03	9.060470E-03	2.330591E-04
4.705305E+03	8.994416E-03	2.302139E-04
4.715128E+03	8.928887E-03	2.274059E-04
4.724951E+03	8.866124E-03	2.246919E-04
4.734774E+03	8.808203E-03	2.221230E-04
4.744597E+03	8.756806E-03	2.197398E-04
4.754420E+03	8.713618E-03	2.175821E-04
4.764244E+03	8.679952E-03	2.156794E-04
4.774067E+03	8.656976E-03	2.140573E-04
4.783890E+03	8.645522E-03	2.127324E-04
4.793713E+03	8.645915E-03	2.117085E-04
4.803536E+03	8.658246E-03	2.109835E-04
4.813360E+03	8.682316E-03	2.105483E-04
4.823183E+03	8.717356E-03	2.103803E-04
4.833006E+03	8.762359E-03	2.104515E-04
4.842829E+03	8.815798E-03	2.107221E-04
4.852652E+03	8.875779E-03	2.111443E-04
4.862475E+03	8.939631E-03	2.116527E-04
4.872299E+03	9.004558E-03	2.121803E-04
4.882122E+03	9.067283E-03	2.126501E-04
4.891945E+03	9.124364E-03	2.129826E-04
4.901768E+03	9.172111E-03	2.130941E-04
4.911591E+03	9.207061E-03	2.129077E-04
4.921415E+03	9.226310E-03	2.123609E-04
4.931238E+03	9.227437E-03	2.114034E-04
4.941061E+03	9.209170E-03	2.100119E-04
4.950884E+03	9.171244E-03	2.081865E-04
4.960707E+03	9.114585E-03	2.059542E-04
4.970530E+03	9.041161E-03	2.033651E-04
4.980354E+03	8.954229E-03	2.004969E-04
4.990177E+03	8.857393E-03	1.974341E-04
5.000000E+03	8.755135E-03	1.942789E-04
5.009823E+03	8.651906E-03	1.911308E-04
5.019646E+03	8.551899E-03	1.880822E-04
5.029470E+03	8.459487E-03	1.852276E-04
5.039293E+03	8.378028E-03	1.826379E-04
5.049116E+03	8.310906E-03	1.803830E-04
5.058939E+03	8.260471E-03	1.785097E-04
5.068762E+03	8.228881E-03	1.770594E-04
5.078585E+03	8.217408E-03	1.760542E-04
5.088409E+03	8.227085E-03	1.755105E-04
5.098232E+03	8.258545E-03	1.754361E-04
5.108055E+03	8.311838E-03	1.758264E-04
5.117878E+03	8.386768E-03	1.766716E-04
5.127701E+03	8.482798E-03	1.779550E-04
5.137525E+03	8.599075E-03	1.796538E-04
5.147348E+03	8.734506E-03	1.817403E-04
5.157171E+03	8.887560E-03	1.841785E-04
5.166994E+03	9.056248E-03	1.869235E-04
5.176817E+03	9.238286E-03	1.899253E-04
5.186640E+03	9.431093E-03	1.931282E-04
5.196464E+03	9.631491E-03	1.964658E-04
5.206287E+03	9.836118E-03	1.998686E-04
5.216110E+03	1.004117E-02	2.032596E-04
5.225933E+03	1.024251E-02	2.065561E-04
5.235756E+03	1.043608E-02	2.096781E-04
5.245580E+03	1.061765E-02	2.125437E-04
5.255403E+03	1.078347E-02	2.150816E-04
5.265226E+03	1.093004E-02	2.172265E-04
5.275049E+03	1.105487E-02	2.189336E-04
5.284872E+03	1.115619E-02	2.201737E-04
5.294695E+03	1.123370E-02	2.209458E-04
5.304519E+03	1.128820E-02	2.212711E-04
5.314342E+03	1.132214E-02	2.212027E-04
5.324165E+03	1.133916E-02	2.208154E-04
5.333988E+03	1.134436E-02	2.202119E-04
5.343811E+03	1.134363E-02	2.195081E-04
5.353635E+03	1.134368E-02	2.188343E-04
5.363458E+03	1.135166E-02	2.183273E-04
5.373281E+03	1.137447E-02	2.181179E-04
5.383104E+03	1.141888E-02	2.183328E-04
5.392927E+03	1.149103E-02	2.190851E-04
5.402750E+03	1.159381E-02	2.204251E-04
5.412574E+03	1.172252E-02	2.222589E-04
5.422397E+03	1.187013E-02	2.244494E-04
5.432220E+03	1.202893E-02	2.268486E-04
5.442043E+03	1.219089E-02	2.293039E-04
5.451866E+03	1.234813E-02	2.316668E-04
5.461690E+03	1.249332E-02	2.338015E-04
5.471513E+03	1.262020E-02	2.355925E-04
5.481336E+03	1.272371E-02	2.369481E-04
5.491159E+03	1.280052E-02	2.378100E-04
5.500982E+03	1.284870E-02	2.381453E-04
5.510806E+03	1.286748E-02	2.379437E-04
5.520629E+03	1.285756E-02	2.372215E-04
5.530452E+03	1.282001E-02	2.360015E-04
5.540275E+03	1.275632E-02	2.343144E-04
5.550098E+03	1.266862E-02	2.322017E-04
5.559921E+03	1.255871E-02	2.296990E-04
5.569745E+03	1.242859E-02	2.268447E-04
5.579568E+03	1.228036E-02	2.236789E-04
5.589391E+03	1.211642E-02	2.202468E-04
5.599214E+03	1.193931E-02	2.165954E-04
5.609037E+03	1.175219E-02	2.127832E-04
5.618861E+03	1.155856E-02	2.088738E-04
5.628684E+03	1.136256E-02	2.049421E-04
5.638507E+03	1.116892E-02	2.010727E-04
5.648330E+03	1.098262E-02	1.973548E-04
5.658153E+03	1.080878E-02	1.938786E-04
5.667976E+03	1.065278E-02	1.907392E-04
5.677800E+03	1.051971E-02	1.880255E-04
5.687623E+03	1.041461E-02	1.858246E-04
5.697446E+03	1.034190E-02	1.842128E-04
5.707269E+03	1.030571E-02	1.832602E-04
5.717092E+03	1.030939E-02	1.830227E-04
5.726916E+03	1.035539E-02	1.835406E-04
5.736739E+03	1.044530E-02	1.848382E-04
5.746562E+03	1.057970E-02	1.869221E-04
5.756385E+03	1.075761E-02	1.897717E-04
5.766208E+03	1.097676E-02	1.933434E-04
5.776031E+03	1.123291E-02	1.975597E-04
5.785855E+03	1.152048E-02	2.023206E-04
5.795678E+03	1.183194E-02	2.074915E-04
5.805501E+03	1.215821E-02	2.129125E-04
5.815324E+03	1.248943E-02	2.184107E-04
5.825147E+03	1.281448E-02	2.237919E-04
5.834971E+03	1.312289E-02	2.288747E-04
5.844794E+03	1.340400E-02	2.334751E-04
5.854617E+03	1.364897E-02	2.374420E-04
5.864440E+03	1.385037E-02	2.406489E-04
5.874263E+03	1.400283E-02	2.430065E-04
5.884086E+03	1.410375E-02	2.444726E-04
5.893910E+03	1.415264E-02	2.450427E-04
5.903733E+03	1.415153E-02	2.447550E-04
5.913556E+03	1.410441E-02	2.436818E-04
5.923379E+03	1.401727E-02	2.419288E-04
5.933202E+03	1.389696E-02	2.396165E-04
5.943026E+03	1.375157E-02	2.368858E-04
5.952849E+03	1.358919E-02	2.338773E-04
5.962672E+03	1.341779E-02	2.307289E-04
5.972495E+03	1.324492E-02	2.275701E-04
5.982318E+03	1.307725E-02	2.245158E-04
5.992141E+03	1.292006E-02	2.216562E-04
6.001965E+03	1.277767E-02	2.190647E-04
6.011788E+03	1.265310E-02	2.167925E-04
6.021611E+03	1.254788E-02	2.148654E-04
6.031434E+03	1.246280E-02	2.132961E-04
6.041257E+03	1.239738E-02	2.120763E-04
6.051081E+03	1.235031E-02	2.111828E-04
6.060904E+03	1.231963E-02	2.105821E-04
6.070727E+03	1.230284E-02	2.102313E-04
6.080550E+03	1.229664E-02	2.100743E-04
6.090373E+03	1.229833E-02	2.100648E-04
6.100196E+03	1.230685E-02	2.101852E-04
6.110020E+03	1.232046E-02	2.104059E-04
6.119843E+03	1.233699E-02	2.106903E-04
6.129666E+03	1.235363E-02	2.109909E-04
6.139489E+03	1.236735E-02	2.112552E-04
6.149312E+03	1.237481E-02	2.114262E-04
6.159136E+03	1.237287E-02	2.114491E-04
6.168959E+03	1.235903E-02	2.112808E-04
6.178782E+03	1.233109E-02	2.108826E-04
6.188605E+03	1.228816E-02	2.102383E-04
6.198428E+03	1.223008E-02	2.093443E-04
6.208251E+03	1.215778E-02	2.082151E-04
6.218075E+03	1.207343E-02	2.068870E-04
6.227898E+03	1.197969E-02	2.054046E-04
6.237721E+03	1.188005E-02	2.038264E-04
6.247544E+03	1.177864E-02	2.022226E-04
6.257367E+03	1.167962E-02	2.006638E-04
6.267191E+03	1.158672E-02	1.992134E-04
6.277014E+03	1.150381E-02	1.979379E-04
6.286837E+03	1.143415E-02	1.968927E-04
6.296660E+03	1.138023E-02	1.961210E-04
6.306483E+03	1.134385E-02	1.956540E-04
6.316306E+03	1.132612E-02	1.955109E-04
6.326130E+03	1.132763E-02	1.957021E-04
6.335953E+03	1.134828E-02	1.962265E-04
6.345776E+03	1.138755E-02	1.970754E-04
6.355599E+03	1.144446E-02	1.982322E-04
6.365422E+03	1.151781E-02	1.996766E-04
6.375246E+03	1.160661E-02	2.013915E-04
6.385069E+03	1.170946E-02	2.033529E-04
6.394892E+03	1.182491E-02	2.055360E-04
6.404715E+03	1.195114E-02	2.079093E-04
6.414538E+03	1.208630E-02	2.104404E-04
6.424361E+03	1.222762E-02	2.130813E-04
6.434185E+03	1.237250E-02	2.157861E-04
6.444008E+03	1.251769E-02	2.184981E-04
6.453831E+03	1.265959E-02	2.211538E-04
6.463654E+03	1.279493E-02	2.236955E-04
6.473477E+03	1.292012E-02	2.260598E-04
6.483301E+03	1.303205E-02	2.281911E-04
6.493124E+03	1.312808E-02	2.300424E-04
6.502947E+03	1.320615E-02	2.315766E-04
6.512770E+03	1.326503E-02	2.327708E-04
6.522593E+03	1.330391E-02	2.336101E-04
6.532417E+03	1.332245E-02	2.340872E-04
6.542240E+03	1.332107E-02	2.342087E-04
6.552063E+03	1.330050E-02	2.339867E-04
6.561886E+03	1.326182E-02	2.334394E-04
6.571709E+03	1.320664E-02	2.325940E-04
6.581532E+03	1.313650E-02	2.314778E-04
6.591356E+03	1.305354E-02	2.301276E-04
6.601179E+03	1.295977E-02	2.285786E-04
6.611002E+03	1.285781E-02	2.268771E-04
6.620825E+03	1.274972E-02	2.250590E-04
6.630648E+03	1.263814E-02	2.231710E-04
6.640472E+03	1.252511E-02	2.212492E-04
6.650295E+03	1.241261E-02	2.193286E-04
6.660118E+03	1.230239E-02	2.174406E-04
6.669941E+03	1.219568E-02	2.156069E-04
6.679764E+03	1.209306E-02	2.138382E-04
6.689587E+03	1.199513E-02	2.121450E-04
6.699411E+03	1.190142E-02	2.105195E-04
6.709234E+03	1.181154E-02	2.089552E-04
6.719057E+03	1.172491E-02	2.074417E-04
6.728880E+03	1.164049E-02	2.059612E-04
6.738703E+03	1.155750E-02	2.044998E-04
6.748527E+03	1.147529E-02	2.030466E-04
6.758350E+03	1.139372E-02	2.015992E-04
6.768173E+03	1.131276E-02	2.001575E-04
6.777996E+03	1.123312E-02	1.987341E-04
6.787819E+03	1.115569E-02	1.973452E-04
6.797642E+03	1.108202E-02	1.960185E-04
6.807466E+03	1.101370E-02	1.947825E-04
6.817289E+03	1.095280E-02	1.936738E-04
6.827112E+03	1.090120E-02	1.927263E-04
6.836935E+03	1.086053E-02	1.919687E-04
6.846758E+03	1.083219E-02	1.914260E-04
6.856582E+03	1.081734E-02	1.911191E-04
6.866405E+03	1.081585E-02	1.910456E-04
6.876228E+03	1.082772E-02	1.912059E-04
6.886051E+03	1.085145E-02	1.915734E-04
6.895874E+03	1.088555E-02	1.921223E-04
6.905697E+03	1.092781E-02	1.928136E-04
6.915521E+03	1.097549E-02	1.935994E-04
6.925344E+03	1.102588E-02	1.944320E-04
6.935167E+03	1.107631E-02	1.952650E-04
6.944990E+03	1.112438E-02	1.960566E-04
6.954813E+03	1.116824E-02	1.967746E-04
6.964637E+03	1.120614E-02	1.973885E-04
6.974460E+03	1.123726E-02	1.978849E-04
6.984283E+03	1.126128E-02	1.982587E-04
6.994106E+03	1.127817E-02	1.985100E-04
7.003929E+03	1.128866E-02	1.986523E-04
7.013752E+03	1.129347E-02	1.986989E-04
7.023576E+03	1.129368E-02	1.986697E-04
7.033399E+03	1.129055E-02	1.985873E-04
7.043222E+03	1.128524E-02	1.984728E-04
7.053045E+03	1.127947E-02	1.983572E-04
7.062868E+03	1.127425E-02	1.982589E-04
7.072692E+03	1.127133E-02	1.982092E-04
7.082515E+03	1.127250E-02	1.982405E-04
7.092338E+03	1.127900E-02	1.983753E-04
7.102161E+03	1.129281E-02	1.986492E-04
7.111984E+03	1.131537E-02	1.990882E-04
7.121807E+03	1.134789E-02	1.997147E-04
7.131631E+03	1.139157E-02	2.005509E-04
7.141454E+03	1.144679E-02	2.016045E-04
7.151277E+03	1.151374E-02	2.028801E-04
7.161100E+03	1.159228E-02	2.043768E-04
7.170923E+03	1.168128E-02	2.060759E-04
7.180747E+03	1.177943E-02	2.079561E-04
7.190570E+03	1.188481E-02	2.099848E-04
7.200393E+03	1.199532E-02	2.121270E-04
7.210216E+03	1.210804E-02	2.143323E-04
7.220039E+03	1.221981E-02	2.165465E-04
7.229862E+03	1.232754E-02	2.187162E-04
7.239686E+03	1.242759E-02	2.207782E-04
7.249509E+03	1.251619E-02	2.226660E-04
7.259332E+03	1.258972E-02	2.243162E-04
7.269155E+03	1.264436E-02	2.256604E-04
7.278978E+03	1.267705E-02	2.266438E-04
7.288802E+03	1.268496E-02	2.272148E-04
7.298625E+03	1.266533E-02	2.273221E-04
7.308448E+03	1.261690E-02	2.269412E-04
7.318271E+03	1.253895E-02	2.260559E-04
7.328094E+03	1.243169E-02	2.246670E-04
7.337917E+03	1.229642E-02	2.227940E-04
7.347741E+03	1.213577E-02	2.204808E-04
7.357564E+03	1.195345E-02	2.177906E-04
7.367387E+03	1.175461E-02	2.148134E-04
7.377210E+03	1.154554E-02	2.116608E-04
7.387033E+03	1.132763E-02	2.083555E-04
7.396857E+03	1.109522E-02	2.047902E-04
7.406680E+03	1.084532E-02	2.009051E-04
7.416503E+03	1.057612E-02	1.966612E-04
7.426326E+03	1.028899E-02	1.920767E-04
7.436149E+03	9.986769E-03	1.871980E-04
7.445972E+03	9.673824E-03	1.821004E-04
7.455796E+03	9.356144E-03	1.768913E-04
7.465619E+03	9.040046E-03	1.716862E-04
7.475442E+03	8.732489E-03	1.666151E-04
7.485265E+03	8.439843E-03	1.617992E-04
7.495088E+03	8.168136E-03	1.573559E-04
7.504912E+03	7.922730E-03	1.533921E-04
7.514735E+03	7.707988E-03	1.499980E-04
7.524558E+03	7.527325E-03	1.472472E-04
7.534381E+03	7.383217E-03	1.451972E-04
7.544204E+03	7.277226E-03	1.438886E-04
7.554028E+03	7.210148E-03	1.433483E-04
7.563851E+03	7.181841E-03	1.435853E-04
7.573674E+03	7.191258E-03	1.445908E-04
7.583497E+03	7.236674E-03	1.463425E-04
7.593320E+03	7.315689E-03	1.488039E-04
7.603143E+03	7.424926E-03	1.519179E-04
7.612967E+03	7.560483E-03	1.556154E-04
7.622790E+03	7.717550E-03	1.598068E-04
