#wls	flux	fluxerr
1.571709E+03	6.625837E-05	3.920599E-06
1.611002E+03	6.667029E-05	3.941259E-06
1.650295E+03	6.710947E-05	3.963383E-06
1.689587E+03	6.757711E-05	3.987033E-06
1.728880E+03	6.807441E-05	4.012271E-06
1.768173E+03	6.860276E-05	4.039169E-06
1.807466E+03	6.917528E-05	4.068487E-06
1.846758E+03	6.978188E-05	4.099620E-06
1.886051E+03	7.043605E-05	4.133348E-06
1.925344E+03	7.112777E-05	4.169067E-06
1.964637E+03	7.187094E-05	4.207578E-06
2.003929E+03	7.266764E-05	4.248986E-06
2.043222E+03	7.350819E-05	4.292706E-06
2.082515E+03	7.440706E-05	4.339567E-06
2.121807E+03	7.537910E-05	4.390413E-06
2.161100E+03	7.640286E-05	4.443970E-06
2.200393E+03	7.749338E-05	4.501092E-06
2.239686E+03	7.866649E-05	4.562672E-06
2.278978E+03	7.991344E-05	4.628173E-06
2.318271E+03	8.123775E-05	4.697769E-06
2.357564E+03	8.265643E-05	4.772411E-06
2.396857E+03	8.416090E-05	4.851570E-06
2.436149E+03	8.576890E-05	4.936228E-06
2.475442E+03	8.748558E-05	5.026642E-06
2.514735E+03	8.931649E-05	5.123083E-06
2.554028E+03	9.126765E-05	5.225849E-06
2.593320E+03	9.334539E-05	5.335250E-06
2.632613E+03	9.557029E-05	5.452404E-06
2.671906E+03	9.793627E-05	5.576902E-06
2.711198E+03	1.004510E-04	5.709113E-06
2.750491E+03	1.031373E-04	5.850267E-06
2.789784E+03	1.060047E-04	6.000827E-06
2.829077E+03	1.090488E-04	6.160451E-06
2.868369E+03	1.123101E-04	6.331342E-06
2.907662E+03	1.157706E-04	6.512382E-06
2.946955E+03	1.194738E-04	6.705922E-06
2.956778E+03	1.204467E-04	6.756755E-06
2.966601E+03	1.214151E-04	6.807262E-06
2.976424E+03	1.224109E-04	6.859226E-06
2.986248E+03	1.234347E-04	6.912671E-06
2.996071E+03	1.244544E-04	6.965806E-06
3.005894E+03	1.255026E-04	7.020447E-06
3.015717E+03	1.265633E-04	7.075704E-06
3.025540E+03	1.276367E-04	7.131581E-06
3.035363E+03	1.287395E-04	7.189015E-06
3.045187E+03	1.298557E-04	7.247101E-06
3.055010E+03	1.309855E-04	7.305850E-06
3.064833E+03	1.321290E-04	7.365274E-06
3.074656E+03	1.333034E-04	7.426315E-06
3.084479E+03	1.344921E-04	7.488059E-06
3.094303E+03	1.357125E-04	7.551467E-06
3.104126E+03	1.369309E-04	7.614664E-06
3.113949E+03	1.381817E-04	7.679552E-06
3.123772E+03	1.394480E-04	7.745202E-06
3.133595E+03	1.407476E-04	7.812587E-06
3.143418E+03	1.420636E-04	7.880772E-06
3.153242E+03	1.433962E-04	7.949770E-06
3.163065E+03	1.447458E-04	8.019588E-06
3.172888E+03	1.461303E-04	8.091230E-06
3.182711E+03	1.475327E-04	8.163738E-06
3.192534E+03	1.489531E-04	8.237123E-06
3.202358E+03	1.504099E-04	8.312400E-06
3.212181E+03	1.518857E-04	8.388596E-06
3.222004E+03	1.533808E-04	8.465736E-06
3.231827E+03	1.549140E-04	8.544840E-06
3.241650E+03	1.564675E-04	8.624933E-06
3.251473E+03	1.580416E-04	8.706025E-06
3.261297E+03	1.596368E-04	8.788142E-06
3.271120E+03	1.612722E-04	8.872331E-06
3.280943E+03	1.629297E-04	8.957596E-06
3.290766E+03	1.646289E-04	9.044998E-06
3.300589E+03	1.663322E-04	9.132480E-06
3.310413E+03	1.680781E-04	9.222152E-06
3.320236E+03	1.698676E-04	9.314053E-06
3.330059E+03	1.716626E-04	9.406103E-06
3.339882E+03	1.735023E-04	9.500441E-06
3.349705E+03	1.753877E-04	9.597111E-06
3.359528E+03	1.772801E-04	9.693999E-06
3.369352E+03	1.792194E-04	9.793282E-06
3.379175E+03	1.811867E-04	9.893921E-06
3.388998E+03	1.832027E-04	9.997037E-06
3.398821E+03	1.852480E-04	1.010157E-05
3.408644E+03	1.873234E-04	1.020756E-05
3.418468E+03	1.894294E-04	1.031503E-05
3.428291E+03	1.915875E-04	1.042515E-05
3.438114E+03	1.937779E-04	1.053682E-05
3.447937E+03	1.960013E-04	1.065009E-05
3.457760E+03	1.982796E-04	1.076615E-05
3.467583E+03	2.005927E-04	1.088388E-05
3.477407E+03	2.029414E-04	1.100333E-05
3.487230E+03	2.053481E-04	1.112571E-05
3.497053E+03	2.077924E-04	1.124990E-05
3.506876E+03	2.102750E-04	1.137595E-05
3.516699E+03	2.128190E-04	1.150508E-05
3.526523E+03	2.153812E-04	1.163496E-05
3.536346E+03	2.180069E-04	1.176804E-05
3.546169E+03	2.206977E-04	1.190438E-05
3.555992E+03	2.234093E-04	1.204160E-05
3.565815E+03	2.261883E-04	1.218219E-05
3.575639E+03	2.290362E-04	1.232624E-05
3.585462E+03	2.319080E-04	1.247131E-05
3.595285E+03	2.348513E-04	1.261995E-05
3.605108E+03	2.378441E-04	1.277098E-05
3.614931E+03	2.408875E-04	1.292444E-05
3.624754E+03	2.440068E-04	1.308169E-05
3.634578E+03	2.471796E-04	1.324152E-05
3.644401E+03	2.504072E-04	1.340397E-05
3.654224E+03	2.536908E-04	1.356912E-05
3.664047E+03	2.570567E-04	1.373837E-05
3.673870E+03	2.604818E-04	1.391046E-05
3.683694E+03	2.639675E-04	1.408546E-05
3.693517E+03	2.675409E-04	1.426480E-05
3.703340E+03	2.711524E-04	1.444584E-05
3.713163E+03	2.748550E-04	1.463139E-05
3.722986E+03	2.786246E-04	1.482016E-05
3.732809E+03	2.824895E-04	1.501363E-05
3.742633E+03	2.863983E-04	1.520907E-05
3.752456E+03	2.904062E-04	1.540939E-05
3.762279E+03	2.944883E-04	1.561327E-05
3.772102E+03	2.986738E-04	1.582224E-05
3.781925E+03	3.029098E-04	1.603348E-05
3.791749E+03	3.072534E-04	1.625001E-05
3.801572E+03	3.116790E-04	1.647046E-05
3.811395E+03	3.161885E-04	1.669492E-05
3.821218E+03	3.207837E-04	1.692347E-05
3.831041E+03	3.254960E-04	1.715775E-05
3.840864E+03	3.302691E-04	1.739479E-05
3.850688E+03	3.351639E-04	1.763778E-05
3.860511E+03	3.401533E-04	1.788527E-05
3.870334E+03	3.452698E-04	1.813895E-05
3.880157E+03	3.504549E-04	1.839576E-05
3.889980E+03	3.557412E-04	1.865736E-05
3.899804E+03	3.611619E-04	1.892552E-05
3.909627E+03	3.666888E-04	1.919871E-05
3.919450E+03	3.723241E-04	1.947703E-05
3.929273E+03	3.780701E-04	1.976061E-05
3.939096E+03	3.839290E-04	2.004953E-05
3.948919E+03	3.899032E-04	2.034390E-05
3.958743E+03	3.960286E-04	2.064558E-05
3.968566E+03	4.022408E-04	2.095119E-05
3.978389E+03	4.086095E-04	2.126436E-05
3.988212E+03	4.150691E-04	2.158163E-05
3.998035E+03	4.216906E-04	2.190670E-05
4.007859E+03	4.284422E-04	2.223788E-05
4.017682E+03	4.353262E-04	2.257528E-05
4.027505E+03	4.423450E-04	2.291901E-05
4.037328E+03	4.495006E-04	2.326914E-05
4.047151E+03	4.567954E-04	2.362579E-05
4.056974E+03	4.642316E-04	2.398903E-05
4.066798E+03	4.718112E-04	2.435898E-05
4.076621E+03	4.795363E-04	2.473570E-05
4.086444E+03	4.874088E-04	2.511927E-05
4.096267E+03	4.954701E-04	2.551182E-05
4.106090E+03	5.036435E-04	2.590936E-05
4.115914E+03	5.119697E-04	2.631397E-05
4.125737E+03	5.204503E-04	2.672571E-05
4.135560E+03	5.290865E-04	2.714463E-05
4.145383E+03	5.378797E-04	2.757077E-05
4.155206E+03	5.468309E-04	2.800416E-05
4.165029E+03	5.559411E-04	2.844483E-05
4.174853E+03	5.652108E-04	2.889280E-05
4.184676E+03	5.746404E-04	2.934805E-05
4.194499E+03	5.841858E-04	2.980831E-05
4.204322E+03	5.939353E-04	3.027807E-05
4.214145E+03	6.038445E-04	3.075505E-05
4.223969E+03	6.138666E-04	3.123683E-05
4.233792E+03	6.240456E-04	3.172564E-05
4.243615E+03	6.344274E-04	3.222380E-05
4.253438E+03	6.449160E-04	3.272640E-05
4.263261E+03	6.555562E-04	3.323570E-05
4.273084E+03	6.662955E-04	3.374903E-05
4.282908E+03	6.772297E-04	3.427122E-05
4.292731E+03	6.883056E-04	3.479955E-05
4.302554E+03	6.994681E-04	3.533123E-05
4.312377E+03	7.107617E-04	3.586849E-05
4.322200E+03	7.221820E-04	3.641109E-05
4.332024E+03	7.337231E-04	3.695872E-05
4.341847E+03	7.453770E-04	3.751098E-05
4.351670E+03	7.570826E-04	3.806476E-05
4.361493E+03	7.688853E-04	3.862236E-05
4.371316E+03	7.807760E-04	3.918329E-05
4.381139E+03	7.927441E-04	3.974703E-05
4.390963E+03	8.047232E-04	4.031025E-05
4.400786E+03	8.168147E-04	4.087801E-05
4.410609E+03	8.288917E-04	4.144396E-05
4.420432E+03	8.409398E-04	4.200739E-05
4.430255E+03	8.530609E-04	4.257340E-05
4.440079E+03	8.651229E-04	4.313540E-05
4.449902E+03	8.771686E-04	4.369553E-05
4.459725E+03	8.891192E-04	4.424987E-05
4.469548E+03	9.010799E-04	4.480369E-05
4.479371E+03	9.129088E-04	4.534993E-05
4.489194E+03	9.246480E-04	4.589071E-05
4.499018E+03	9.362129E-04	4.642185E-05
4.508841E+03	9.476456E-04	4.694547E-05
4.518664E+03	9.589250E-04	4.746056E-05
4.528487E+03	9.699626E-04	4.796276E-05
4.538310E+03	9.808662E-04	4.845744E-05
4.548134E+03	9.914159E-04	4.893377E-05
4.557957E+03	1.001784E-03	4.940033E-05
4.567780E+03	1.011817E-03	4.984953E-05
4.577603E+03	1.021555E-03	5.028344E-05
4.587426E+03	1.030908E-03	5.069771E-05
4.597250E+03	1.039921E-03	5.109456E-05
4.607073E+03	1.048504E-03	5.146966E-05
4.616896E+03	1.056776E-03	5.182889E-05
4.626719E+03	1.064580E-03	5.216460E-05
4.636542E+03	1.071902E-03	5.247620E-05
4.646365E+03	1.078802E-03	5.276668E-05
4.656189E+03	1.085274E-03	5.303586E-05
4.666012E+03	1.091249E-03	5.328035E-05
4.675835E+03	1.096798E-03	5.350375E-05
4.685658E+03	1.101856E-03	5.370295E-05
4.695481E+03	1.106502E-03	5.388184E-05
4.705305E+03	1.110745E-03	5.404096E-05
4.715128E+03	1.114524E-03	5.417737E-05
4.724951E+03	1.117923E-03	5.429527E-05
4.734774E+03	1.120885E-03	5.439186E-05
4.744597E+03	1.123494E-03	5.447134E-05
4.754420E+03	1.125764E-03	5.453447E-05
4.764244E+03	1.127641E-03	5.457862E-05
4.774067E+03	1.129212E-03	5.460806E-05
4.783890E+03	1.130421E-03	5.462018E-05
4.793713E+03	1.131355E-03	5.461921E-05
4.803536E+03	1.131962E-03	5.460263E-05
4.813360E+03	1.132327E-03	5.457466E-05
4.823183E+03	1.132398E-03	5.453274E-05
4.833006E+03	1.132261E-03	5.448109E-05
4.842829E+03	1.131931E-03	5.442052E-05
4.852652E+03	1.131355E-03	5.434841E-05
4.862475E+03	1.130620E-03	5.426899E-05
4.872299E+03	1.129670E-03	5.417963E-05
4.882122E+03	1.128520E-03	5.408108E-05
4.891945E+03	1.127325E-03	5.398074E-05
4.901768E+03	1.125961E-03	5.387266E-05
4.911591E+03	1.124439E-03	5.375751E-05
4.921415E+03	1.122845E-03	5.363929E-05
4.931238E+03	1.121121E-03	5.351528E-05
4.941061E+03	1.119349E-03	5.338944E-05
4.950884E+03	1.117539E-03	5.326226E-05
4.960707E+03	1.115637E-03	5.313111E-05
4.970530E+03	1.113720E-03	5.299973E-05
4.980354E+03	1.111731E-03	5.286538E-05
4.990177E+03	1.109749E-03	5.273180E-05
5.000000E+03	1.107715E-03	5.259619E-05
5.009823E+03	1.105704E-03	5.246219E-05
5.019646E+03	1.103659E-03	5.232704E-05
5.029470E+03	1.101654E-03	5.219428E-05
5.039293E+03	1.099631E-03	5.206110E-05
5.049116E+03	1.097662E-03	5.193095E-05
5.058939E+03	1.095754E-03	5.180415E-05
5.068762E+03	1.093846E-03	5.167784E-05
5.078585E+03	1.092009E-03	5.155538E-05
5.088409E+03	1.090185E-03	5.143396E-05
5.098232E+03	1.088441E-03	5.131679E-05
5.108055E+03	1.086717E-03	5.120107E-05
5.117878E+03	1.085082E-03	5.108996E-05
5.127701E+03	1.083474E-03	5.098059E-05
5.137525E+03	1.081959E-03	5.087607E-05
5.147348E+03	1.080541E-03	5.077653E-05
5.157171E+03	1.079156E-03	5.067903E-05
5.166994E+03	1.077806E-03	5.058364E-05
5.176817E+03	1.076619E-03	5.049633E-05
5.186640E+03	1.075467E-03	5.041115E-05
5.196464E+03	1.074351E-03	5.032809E-05
5.206287E+03	1.073335E-03	5.025011E-05
5.216110E+03	1.072353E-03	5.017421E-05
5.225933E+03	1.071528E-03	5.010614E-05
5.235756E+03	1.070673E-03	5.003708E-05
5.245580E+03	1.069909E-03	4.997271E-05
5.255403E+03	1.069234E-03	4.991294E-05
5.265226E+03	1.068644E-03	4.985760E-05
5.275049E+03	1.068074E-03	4.980360E-05
5.284872E+03	1.067519E-03	4.975078E-05
5.294695E+03	1.067100E-03	4.970475E-05
5.304519E+03	1.066626E-03	4.965660E-05
5.314342E+03	1.066278E-03	4.961474E-05
5.324165E+03	1.065927E-03	4.957320E-05
5.333988E+03	1.065630E-03	4.953458E-05
5.343811E+03	1.065320E-03	4.949578E-05
5.353635E+03	1.065054E-03	4.945944E-05
5.363458E+03	1.064766E-03	4.942244E-05
5.373281E+03	1.064511E-03	4.938745E-05
5.383104E+03	1.064288E-03	4.935431E-05
5.392927E+03	1.064031E-03	4.932005E-05
5.402750E+03	1.063803E-03	4.928746E-05
5.412574E+03	1.063604E-03	4.925667E-05
5.422397E+03	1.063377E-03	4.922493E-05
5.432220E+03	1.063185E-03	4.919525E-05
5.442043E+03	1.062975E-03	4.916505E-05
5.451866E+03	1.062872E-03	4.914024E-05
5.461690E+03	1.062699E-03	4.911255E-05
5.471513E+03	1.062644E-03	4.909071E-05
5.481336E+03	1.062592E-03	4.906935E-05
5.491159E+03	1.062609E-03	4.905153E-05
5.500982E+03	1.062638E-03	4.903464E-05
5.510806E+03	1.062745E-03	4.902174E-05
5.520629E+03	1.062936E-03	4.901304E-05
5.530452E+03	1.063153E-03	4.900589E-05
5.540275E+03	1.063462E-03	4.900330E-05
5.550098E+03	1.063866E-03	4.900544E-05
5.559921E+03	1.064367E-03	4.901240E-05
5.569745E+03	1.064908E-03	4.902153E-05
5.579568E+03	1.065552E-03	4.903575E-05
5.589391E+03	1.066240E-03	4.905230E-05
5.599214E+03	1.067034E-03	4.907406E-05
5.609037E+03	1.067936E-03	4.910108E-05
5.618861E+03	1.068946E-03	4.913338E-05
5.628684E+03	1.070002E-03	4.916813E-05
5.638507E+03	1.071166E-03	4.920817E-05
5.648330E+03	1.072438E-03	4.925342E-05
5.658153E+03	1.073753E-03	4.930102E-05
5.667976E+03	1.075235E-03	4.935652E-05
5.677800E+03	1.076696E-03	4.941138E-05
5.687623E+03	1.078317E-03	4.947393E-05
5.697446E+03	1.079974E-03	4.953839E-05
5.707269E+03	1.081786E-03	4.961026E-05
5.717092E+03	1.083564E-03	4.968086E-05
5.726916E+03	1.085489E-03	4.975849E-05
5.736739E+03	1.087432E-03	4.983725E-05
5.746562E+03	1.089450E-03	4.991974E-05
5.756385E+03	1.091537E-03	5.000570E-05
5.766208E+03	1.093688E-03	5.009489E-05
5.776031E+03	1.095833E-03	5.018409E-05
5.785855E+03	1.098027E-03	5.027583E-05
5.795678E+03	1.100264E-03	5.036983E-05
5.805501E+03	1.102534E-03	5.046567E-05
5.815324E+03	1.104767E-03	5.056008E-05
5.825147E+03	1.107080E-03	5.065847E-05
5.834971E+03	1.109335E-03	5.075455E-05
5.844794E+03	1.111525E-03	5.084790E-05
5.854617E+03	1.113765E-03	5.094388E-05
5.864440E+03	1.115917E-03	5.103616E-05
5.874263E+03	1.118033E-03	5.112711E-05
5.884086E+03	1.120103E-03	5.121624E-05
5.893910E+03	1.122114E-03	5.130300E-05
5.903733E+03	1.124052E-03	5.138679E-05
5.913556E+03	1.125842E-03	5.146408E-05
5.923379E+03	1.127532E-03	5.153720E-05
5.933202E+03	1.129112E-03	5.160560E-05
5.943026E+03	1.130567E-03	5.166859E-05
5.952849E+03	1.131882E-03	5.172557E-05
5.962672E+03	1.132979E-03	5.177289E-05
5.972495E+03	1.133907E-03	5.181287E-05
5.982318E+03	1.134720E-03	5.184792E-05
5.992141E+03	1.135205E-03	5.186833E-05
6.001965E+03	1.135546E-03	5.188254E-05
6.011788E+03	1.135663E-03	5.188687E-05
6.021611E+03	1.135477E-03	5.187772E-05
6.031434E+03	1.135109E-03	5.186057E-05
6.041257E+03	1.134414E-03	5.182888E-05
6.051081E+03	1.133447E-03	5.178515E-05
6.060904E+03	1.132202E-03	5.172902E-05
6.070727E+03	1.130670E-03	5.166021E-05
6.080550E+03	1.128784E-03	5.157553E-05
6.090373E+03	1.126674E-03	5.148099E-05
6.100196E+03	1.124214E-03	5.137086E-05
6.110020E+03	1.121478E-03	5.124842E-05
6.119843E+03	1.118540E-03	5.111711E-05
6.129666E+03	1.115282E-03	5.097154E-05
6.139489E+03	1.111718E-03	5.081227E-05
6.149312E+03	1.107990E-03	5.064586E-05
6.159136E+03	1.104049E-03	5.047002E-05
6.168959E+03	1.099845E-03	5.028240E-05
6.178782E+03	1.095521E-03	5.008964E-05
6.188605E+03	1.090965E-03	4.988654E-05
6.198428E+03	1.086256E-03	4.967669E-05
6.208251E+03	1.081472E-03	4.946364E-05
6.218075E+03	1.076500E-03	4.924228E-05
6.227898E+03	1.071420E-03	4.901618E-05
6.237721E+03	1.066181E-03	4.878305E-05
6.247544E+03	1.060924E-03	4.854932E-05
6.257367E+03	1.055599E-03	4.831267E-05
6.267191E+03	1.050158E-03	4.807091E-05
6.277014E+03	1.044736E-03	4.783019E-05
6.286837E+03	1.039221E-03	4.758544E-05
6.296660E+03	1.033749E-03	4.734281E-05
6.306483E+03	1.028209E-03	4.709720E-05
6.316306E+03	1.022672E-03	4.685188E-05
6.326130E+03	1.017148E-03	4.660733E-05
6.335953E+03	1.011706E-03	4.636668E-05
6.345776E+03	1.006236E-03	4.612486E-05
6.355599E+03	1.000806E-03	4.588504E-05
6.365422E+03	9.953664E-04	4.564486E-05
6.375246E+03	9.900415E-04	4.541007E-05
6.385069E+03	9.847809E-04	4.517833E-05
6.394892E+03	9.795906E-04	4.494993E-05
6.404715E+03	9.744768E-04	4.472514E-05
6.414538E+03	9.693893E-04	4.450165E-05
6.424361E+03	9.644477E-04	4.428495E-05
6.434185E+03	9.595441E-04	4.407008E-05
6.444008E+03	9.547961E-04	4.386245E-05
6.453831E+03	9.500957E-04	4.365708E-05
6.463654E+03	9.455600E-04	4.345936E-05
6.473477E+03	9.410802E-04	4.326429E-05
6.483301E+03	9.367171E-04	4.307465E-05
6.493124E+03	9.325299E-04	4.289318E-05
6.502947E+03	9.284097E-04	4.271487E-05
6.512770E+03	9.244161E-04	4.254244E-05
6.522593E+03	9.206056E-04	4.237851E-05
6.532417E+03	9.168721E-04	4.221820E-05
6.542240E+03	9.132715E-04	4.206407E-05
6.552063E+03	9.098074E-04	4.191631E-05
6.561886E+03	9.064806E-04	4.177493E-05
6.571709E+03	9.032941E-04	4.164009E-05
6.581532E+03	9.002485E-04	4.151182E-05
6.591356E+03	8.973448E-04	4.139016E-05
6.601179E+03	8.945857E-04	4.127524E-05
6.611002E+03	8.919715E-04	4.116709E-05
6.620825E+03	8.895029E-04	4.106573E-05
6.630648E+03	8.871816E-04	4.097124E-05
6.640472E+03	8.850075E-04	4.088364E-05
6.650295E+03	8.829823E-04	4.080300E-05
6.660118E+03	8.811053E-04	4.072929E-05
6.669941E+03	8.793781E-04	4.066260E-05
6.679764E+03	8.777466E-04	4.060043E-05
6.689587E+03	8.763181E-04	4.054773E-05
6.699411E+03	8.750398E-04	4.050209E-05
6.709234E+03	8.739112E-04	4.046347E-05
6.719057E+03	8.728787E-04	4.042942E-05
6.728880E+03	8.720491E-04	4.040487E-05
6.738703E+03	8.713690E-04	4.038736E-05
6.748527E+03	8.708370E-04	4.037684E-05
6.758350E+03	8.704010E-04	4.037089E-05
6.768173E+03	8.701658E-04	4.037438E-05
6.777996E+03	8.700777E-04	4.038483E-05
6.787819E+03	8.700826E-04	4.039974E-05
6.797642E+03	8.702859E-04	4.042400E-05
6.807466E+03	8.705809E-04	4.045267E-05
6.817289E+03	8.710720E-04	4.049061E-05
6.827112E+03	8.716522E-04	4.053285E-05
6.836935E+03	8.724267E-04	4.058429E-05
6.846758E+03	8.732864E-04	4.063987E-05
6.856582E+03	8.743379E-04	4.070455E-05
6.866405E+03	8.754713E-04	4.077323E-05
6.876228E+03	8.767926E-04	4.085086E-05
6.886051E+03	8.781919E-04	4.093231E-05
6.895874E+03	8.797212E-04	4.102003E-05
6.905697E+03	8.814319E-04	4.111642E-05
6.915521E+03	8.832132E-04	4.121632E-05
6.925344E+03	8.851165E-04	4.132213E-05
6.935167E+03	8.871938E-04	4.143631E-05
6.944990E+03	8.893316E-04	4.155355E-05
6.954813E+03	8.915827E-04	4.167632E-05
6.964637E+03	8.939422E-04	4.180442E-05
6.974460E+03	8.964061E-04	4.193766E-05
6.984283E+03	8.989709E-04	4.207589E-05
6.994106E+03	9.016319E-04	4.221889E-05
7.003929E+03	9.043850E-04	4.236648E-05
7.013752E+03	9.072239E-04	4.251839E-05
7.023576E+03	9.101438E-04	4.267439E-05
7.033399E+03	9.130830E-04	4.283159E-05
7.043222E+03	9.161477E-04	4.299499E-05
7.053045E+03	9.192755E-04	4.316166E-05
7.062868E+03	9.224594E-04	4.333130E-05
7.072692E+03	9.256340E-04	4.350082E-05
7.082515E+03	9.289079E-04	4.367534E-05
7.092338E+03	9.321564E-04	4.384902E-05
7.102161E+03	9.354296E-04	4.402420E-05
7.111984E+03	9.387763E-04	4.420319E-05
7.121807E+03	9.420710E-04	4.438009E-05
7.131631E+03	9.453610E-04	4.455713E-05
7.141454E+03	9.486373E-04	4.473389E-05
7.151277E+03	9.518879E-04	4.490980E-05
7.161100E+03	9.551022E-04	4.508438E-05
7.170923E+03	9.582677E-04	4.525703E-05
7.180747E+03	9.613729E-04	4.542722E-05
7.190570E+03	9.644047E-04	4.559431E-05
7.200393E+03	9.672886E-04	4.575480E-05
7.210216E+03	9.701331E-04	4.591379E-05
7.220039E+03	9.728015E-04	4.606484E-05
7.229862E+03	9.754014E-04	4.621303E-05
7.239686E+03	9.777963E-04	4.635188E-05
7.249509E+03	9.800313E-04	4.648353E-05
7.259332E+03	9.820911E-04	4.660724E-05
7.269155E+03	9.839606E-04	4.672228E-05
7.278978E+03	9.856241E-04	4.682791E-05
7.288802E+03	9.870032E-04	4.692037E-05
7.298625E+03	9.882067E-04	4.700483E-05
7.308448E+03	9.891588E-04	4.707767E-05
7.318271E+03	9.897800E-04	4.713509E-05
7.328094E+03	9.901190E-04	4.717939E-05
7.337917E+03	9.901631E-04	4.720993E-05
7.347741E+03	9.899007E-04	4.722614E-05
7.357564E+03	9.893203E-04	4.722746E-05
7.367387E+03	9.884146E-04	4.721351E-05
7.377210E+03	9.871785E-04	4.718401E-05
7.387033E+03	9.855476E-04	4.713587E-05
7.396857E+03	9.836518E-04	4.707526E-05
7.406680E+03	9.813712E-04	4.699643E-05
7.416503E+03	9.787774E-04	4.690276E-05
7.426326E+03	9.758813E-04	4.679476E-05
7.436149E+03	9.726947E-04	4.667296E-05
7.445972E+03	9.692300E-04	4.653792E-05
7.455796E+03	9.654386E-04	4.638729E-05
7.465619E+03	9.614595E-04	4.622772E-05
7.475442E+03	9.571815E-04	4.605381E-05
7.485265E+03	9.526813E-04	4.586922E-05
7.495088E+03	9.479735E-04	4.567463E-05
7.504912E+03	9.430715E-04	4.547064E-05
7.514735E+03	9.379286E-04	4.525498E-05
7.524558E+03	9.326801E-04	4.503415E-05
7.534381E+03	9.272175E-04	4.480288E-05
7.544204E+03	9.216154E-04	4.456474E-05
7.554028E+03	9.158859E-04	4.432030E-05
7.563851E+03	9.100408E-04	4.407010E-05
7.573674E+03	9.040922E-04	4.381471E-05
7.583497E+03	8.979914E-04	4.355174E-05
7.593320E+03	8.918682E-04	4.328748E-05
7.603143E+03	8.856155E-04	4.301670E-05
7.612967E+03	8.793009E-04	4.274267E-05
7.622790E+03	8.729337E-04	4.246582E-05
