#wls	flux	fluxerr
1.600000E+03	9.776037E-16	5.644086E-17
1.640000E+03	9.687967E-16	5.530575E-17
1.680000E+03	9.585878E-16	5.409541E-17
1.720000E+03	9.473425E-16	5.283347E-17
1.760000E+03	9.354309E-16	5.154286E-17
1.800000E+03	9.232711E-16	5.024824E-17
1.840000E+03	9.117033E-16	4.899582E-17
1.880000E+03	9.018141E-16	4.784257E-17
1.920000E+03	8.949498E-16	4.685604E-17
1.960000E+03	8.923022E-16	4.609198E-17
2.000000E+03	8.953969E-16	4.561969E-17
2.040000E+03	9.044394E-16	4.543770E-17
2.080000E+03	9.173471E-16	4.543054E-17
2.120000E+03	9.319082E-16	4.548230E-17
2.160000E+03	9.525847E-16	4.580436E-17
2.200000E+03	9.841399E-16	4.660947E-17
2.240000E+03	1.029069E-15	4.799076E-17
2.280000E+03	1.090180E-15	5.004851E-17
2.320000E+03	1.167871E-15	5.276578E-17
2.360000E+03	1.260786E-15	5.604607E-17
2.400000E+03	1.368179E-15	5.982316E-17
2.440000E+03	1.488756E-15	6.400920E-17
2.480000E+03	1.620679E-15	6.849701E-17
2.520000E+03	1.760436E-15	7.311517E-17
2.560000E+03	1.902164E-15	7.760657E-17
2.600000E+03	2.035166E-15	8.153760E-17
2.640000E+03	2.142512E-15	8.426104E-17
2.680000E+03	2.221789E-15	8.574003E-17
2.720000E+03	2.282906E-15	8.641152E-17
2.760000E+03	2.332630E-15	8.656705E-17
2.800000E+03	2.375322E-15	8.639073E-17
2.840000E+03	2.414265E-15	8.601559E-17
2.880000E+03	2.452017E-15	8.553991E-17
2.920000E+03	2.491400E-15	8.506302E-17
2.960000E+03	2.534810E-15	8.466030E-17
3.000000E+03	2.584816E-15	8.440541E-17
3.010000E+03	2.598642E-15	8.437248E-17
3.020000E+03	2.613159E-15	8.435641E-17
3.030000E+03	2.628252E-15	8.435317E-17
3.040000E+03	2.644099E-15	8.436805E-17
3.050000E+03	2.660590E-15	8.439716E-17
3.060000E+03	2.678046E-15	8.445021E-17
3.070000E+03	2.696220E-15	8.451893E-17
3.080000E+03	2.715295E-15	8.460858E-17
3.090000E+03	2.735445E-15	8.472407E-17
3.100000E+03	2.756444E-15	8.485780E-17
3.110000E+03	2.778473E-15	8.501483E-17
3.120000E+03	2.801717E-15	8.520019E-17
3.130000E+03	2.825958E-15	8.540663E-17
3.140000E+03	2.851520E-15	8.564325E-17
3.150000E+03	2.878329E-15	8.590712E-17
3.160000E+03	2.906575E-15	8.620319E-17
3.170000E+03	2.936065E-15	8.652493E-17
3.180000E+03	2.967129E-15	8.688129E-17
3.190000E+03	2.999839E-15	8.727349E-17
3.200000E+03	3.034017E-15	8.769547E-17
3.210000E+03	3.070003E-15	8.815610E-17
3.220000E+03	3.107884E-15	8.865693E-17
3.230000E+03	3.147625E-15	8.919584E-17
3.240000E+03	3.189329E-15	8.977466E-17
3.250000E+03	3.233098E-15	9.039521E-17
3.260000E+03	3.279170E-15	9.106289E-17
3.270000E+03	3.327664E-15	9.177971E-17
3.280000E+03	3.378580E-15	9.254431E-17
3.290000E+03	3.432052E-15	9.335897E-17
3.300000E+03	3.488350E-15	9.422956E-17
3.310000E+03	3.547501E-15	9.515525E-17
3.320000E+03	3.609797E-15	9.614220E-17
3.330000E+03	3.675292E-15	9.719010E-17
3.340000E+03	3.744179E-15	9.830224E-17
3.350000E+03	3.816795E-15	9.948553E-17
3.360000E+03	3.893366E-15	1.007437E-16
3.370000E+03	3.974008E-15	1.020777E-16
3.380000E+03	4.059100E-15	1.034948E-16
3.390000E+03	4.148778E-15	1.049961E-16
3.400000E+03	4.243299E-15	1.065854E-16
3.410000E+03	4.343048E-15	1.082698E-16
3.420000E+03	4.448265E-15	1.100523E-16
3.430000E+03	4.559025E-15	1.119319E-16
3.440000E+03	4.675630E-15	1.139128E-16
3.450000E+03	4.798193E-15	1.159946E-16
3.460000E+03	4.926613E-15	1.181718E-16
3.470000E+03	5.060974E-15	1.204432E-16
3.480000E+03	5.201133E-15	1.228022E-16
3.490000E+03	5.346699E-15	1.252368E-16
3.500000E+03	5.497569E-15	1.277417E-16
3.510000E+03	5.652812E-15	1.302928E-16
3.520000E+03	5.811508E-15	1.328669E-16
3.530000E+03	5.971989E-15	1.354246E-16
3.540000E+03	6.131944E-15	1.379132E-16
3.550000E+03	6.287638E-15	1.402502E-16
3.560000E+03	6.434756E-15	1.423427E-16
3.570000E+03	6.568081E-15	1.440817E-16
3.580000E+03	6.681315E-15	1.453380E-16
3.590000E+03	6.768625E-15	1.459973E-16
3.600000E+03	6.825478E-15	1.459773E-16
3.610000E+03	6.857394E-15	1.454121E-16
3.620000E+03	6.874577E-15	1.445301E-16
3.630000E+03	6.886283E-15	1.435326E-16
3.640000E+03	6.900999E-15	1.425980E-16
3.650000E+03	6.924983E-15	1.418533E-16
3.660000E+03	6.962268E-15	1.413757E-16
3.670000E+03	7.014288E-15	1.411871E-16
3.680000E+03	7.080021E-15	1.412591E-16
3.690000E+03	7.155712E-15	1.415101E-16
3.700000E+03	7.236266E-15	1.418350E-16
3.710000E+03	7.315205E-15	1.421053E-16
3.720000E+03	7.385952E-15	1.421953E-16
3.730000E+03	7.442640E-15	1.419971E-16
3.740000E+03	7.480925E-15	1.414360E-16
3.750000E+03	7.498500E-15	1.404781E-16
3.760000E+03	7.495163E-15	1.391301E-16
3.770000E+03	7.473230E-15	1.374454E-16
3.780000E+03	7.436632E-15	1.355049E-16
3.790000E+03	7.391311E-15	1.334232E-16
3.800000E+03	7.344181E-15	1.313281E-16
3.810000E+03	7.302481E-15	1.293487E-16
3.820000E+03	7.274104E-15	1.276206E-16
3.830000E+03	7.265638E-15	1.262514E-16
3.840000E+03	7.283752E-15	1.253457E-16
3.850000E+03	7.333443E-15	1.249753E-16
3.860000E+03	7.418625E-15	1.251907E-16
3.870000E+03	7.541636E-15	1.260131E-16
3.880000E+03	7.702961E-15	1.274320E-16
3.890000E+03	7.900818E-15	1.293994E-16
3.900000E+03	8.131302E-15	1.318342E-16
3.910000E+03	8.387637E-15	1.346122E-16
3.920000E+03	8.660972E-15	1.375803E-16
3.930000E+03	8.940219E-15	1.405567E-16
3.940000E+03	9.212748E-15	1.433425E-16
3.950000E+03	9.465682E-15	1.457436E-16
3.960000E+03	9.687123E-15	1.475889E-16
3.970000E+03	9.867469E-15	1.487498E-16
3.980000E+03	1.000088E-14	1.491599E-16
3.990000E+03	1.008584E-14	1.488199E-16
4.000000E+03	1.012518E-14	1.477954E-16
4.010000E+03	1.012536E-14	1.462017E-16
4.020000E+03	1.009564E-14	1.441905E-16
4.030000E+03	1.004590E-14	1.419159E-16
4.040000E+03	9.985912E-15	1.395244E-16
4.050000E+03	9.923511E-15	1.371297E-16
4.060000E+03	9.863423E-15	1.347981E-16
4.070000E+03	9.807478E-15	1.325540E-16
4.080000E+03	9.753449E-15	1.303666E-16
4.090000E+03	9.696890E-15	1.281770E-16
4.100000E+03	9.630521E-15	1.258921E-16
4.110000E+03	9.546888E-15	1.234205E-16
4.120000E+03	9.439317E-15	1.206853E-16
4.130000E+03	9.303854E-15	1.176473E-16
4.140000E+03	9.139745E-15	1.143093E-16
4.150000E+03	8.950093E-15	1.107219E-16
4.160000E+03	8.741883E-15	1.069810E-16
4.170000E+03	8.524787E-15	1.032110E-16
4.180000E+03	8.310358E-15	9.955334E-17
4.190000E+03	8.110675E-15	9.614997E-17
4.200000E+03	7.937002E-15	9.312716E-17
4.210000E+03	7.798969E-15	9.058713E-17
4.220000E+03	7.703438E-15	8.859631E-17
4.230000E+03	7.654872E-15	8.719149E-17
4.240000E+03	7.654580E-15	8.637291E-17
4.250000E+03	7.701310E-15	8.611284E-17
4.260000E+03	7.791434E-15	8.635895E-17
4.270000E+03	7.919068E-15	8.703683E-17
4.280000E+03	8.076625E-15	8.805689E-17
4.290000E+03	8.254970E-15	8.931657E-17
4.300000E+03	8.443698E-15	9.070359E-17
4.310000E+03	8.631433E-15	9.209910E-17
4.320000E+03	8.806139E-15	9.338078E-17
4.330000E+03	8.955514E-15	9.442641E-17
4.340000E+03	9.067608E-15	9.511979E-17
4.350000E+03	9.131205E-15	9.535371E-17
4.360000E+03	9.136896E-15	9.504013E-17
4.370000E+03	9.077988E-15	9.411842E-17
4.380000E+03	8.950610E-15	9.255537E-17
4.390000E+03	8.755174E-15	9.035934E-17
4.400000E+03	8.511958E-15	8.773885E-17
4.410000E+03	8.256915E-15	8.505912E-17
4.420000E+03	8.021663E-15	8.263887E-17
4.430000E+03	7.830707E-15	8.072404E-17
4.440000E+03	7.701770E-15	7.949271E-17
4.450000E+03	7.645215E-15	7.904988E-17
4.460000E+03	7.665037E-15	7.943773E-17
4.470000E+03	7.760104E-15	8.064798E-17
4.480000E+03	7.924689E-15	8.262650E-17
4.490000E+03	8.149603E-15	8.528408E-17
4.500000E+03	8.422839E-15	8.850199E-17
4.510000E+03	8.730803E-15	9.214373E-17
4.520000E+03	9.059500E-15	9.606660E-17
4.530000E+03	9.395113E-15	1.001272E-16
4.540000E+03	9.724088E-15	1.041820E-16
4.550000E+03	1.003357E-14	1.080915E-16
4.560000E+03	1.031123E-14	1.117181E-16
4.570000E+03	1.054526E-14	1.149268E-16
4.580000E+03	1.072473E-14	1.175877E-16
4.590000E+03	1.084019E-14	1.195842E-16
4.600000E+03	1.088547E-14	1.208329E-16
4.610000E+03	1.085829E-14	1.212912E-16
4.620000E+03	1.076085E-14	1.209663E-16
4.630000E+03	1.059965E-14	1.199140E-16
4.640000E+03	1.038489E-14	1.182342E-16
4.650000E+03	1.012932E-14	1.160593E-16
4.660000E+03	9.847531E-15	1.135461E-16
4.670000E+03	9.554335E-15	1.108592E-16
4.680000E+03	9.264282E-15	1.081644E-16
4.690000E+03	8.991228E-15	1.056238E-16
4.700000E+03	8.747775E-15	1.033890E-16
4.710000E+03	8.544758E-15	1.015943E-16
4.720000E+03	8.390673E-15	1.003493E-16
4.730000E+03	8.291590E-15	9.973633E-17
4.740000E+03	8.250783E-15	9.980585E-17
4.750000E+03	8.268535E-15	1.005723E-16
4.760000E+03	8.342247E-15	1.020146E-16
4.770000E+03	8.466541E-15	1.040765E-16
4.780000E+03	8.633244E-15	1.066655E-16
4.790000E+03	8.831746E-15	1.096562E-16
4.800000E+03	9.049483E-15	1.128960E-16
4.810000E+03	9.272213E-15	1.162081E-16
4.820000E+03	9.485178E-15	1.194057E-16
4.830000E+03	9.674385E-15	1.223085E-16
4.840000E+03	9.827951E-15	1.247602E-16
4.850000E+03	9.937566E-15	1.266479E-16
4.860000E+03	9.999841E-15	1.279206E-16
4.870000E+03	1.001648E-14	1.285926E-16
4.880000E+03	9.993510E-15	1.287347E-16
4.890000E+03	9.939875E-15	1.284571E-16
4.900000E+03	9.865288E-15	1.278821E-16
4.910000E+03	9.777727E-15	1.271111E-16
4.920000E+03	9.682564E-15	1.262131E-16
4.930000E+03	9.582063E-15	1.252173E-16
4.940000E+03	9.475042E-15	1.241085E-16
4.950000E+03	9.358159E-15	1.228426E-16
4.960000E+03	9.226965E-15	1.213612E-16
4.970000E+03	9.077496E-15	1.196119E-16
4.980000E+03	8.907362E-15	1.175627E-16
4.990000E+03	8.716810E-15	1.152170E-16
5.000000E+03	8.509181E-15	1.126190E-16
5.010000E+03	8.290845E-15	1.098539E-16
5.020000E+03	8.070155E-15	1.070335E-16
5.030000E+03	7.856560E-15	1.042848E-16
5.040000E+03	7.659347E-15	1.017330E-16
5.050000E+03	7.486876E-15	9.949112E-17
5.060000E+03	7.345257E-15	9.764218E-17
5.070000E+03	7.238472E-15	9.624070E-17
5.080000E+03	7.168140E-15	9.530943E-17
5.090000E+03	7.133744E-15	9.484230E-17
5.100000E+03	7.133036E-15	9.480983E-17
5.110000E+03	7.162320E-15	9.516300E-17
5.120000E+03	7.217004E-15	9.584061E-17
5.130000E+03	7.291825E-15	9.677247E-17
5.140000E+03	7.381295E-15	9.788540E-17
5.150000E+03	7.480168E-15	9.910949E-17
5.160000E+03	7.583686E-15	1.003816E-16
5.170000E+03	7.688068E-15	1.016515E-16
5.180000E+03	7.790482E-15	1.028821E-16
5.190000E+03	7.889384E-15	1.040532E-16
5.200000E+03	7.983839E-15	1.051532E-16
5.210000E+03	8.073559E-15	1.061787E-16
5.220000E+03	8.158321E-15	1.071277E-16
5.230000E+03	8.237721E-15	1.079955E-16
5.240000E+03	8.311061E-15	1.087742E-16
5.250000E+03	8.377173E-15	1.094493E-16
5.260000E+03	8.434642E-15	1.100038E-16
5.270000E+03	8.482036E-15	1.104204E-16
5.280000E+03	8.517845E-15	1.106811E-16
5.290000E+03	8.540642E-15	1.107690E-16
5.300000E+03	8.549206E-15	1.106703E-16
5.310000E+03	8.542726E-15	1.103766E-16
5.320000E+03	8.521131E-15	1.098891E-16
5.330000E+03	8.485175E-15	1.092195E-16
5.340000E+03	8.436672E-15	1.083933E-16
5.350000E+03	8.378533E-15	1.074496E-16
5.360000E+03	8.314544E-15	1.064386E-16
5.370000E+03	8.248943E-15	1.054158E-16
5.380000E+03	8.185540E-15	1.044307E-16
5.390000E+03	8.127092E-15	1.035193E-16
5.400000E+03	8.075132E-15	1.027015E-16
5.410000E+03	8.029597E-15	1.019771E-16
5.420000E+03	7.989092E-15	1.013288E-16
5.430000E+03	7.951515E-15	1.007306E-16
5.440000E+03	7.914147E-15	1.001487E-16
5.450000E+03	7.871939E-15	9.951976E-17
5.460000E+03	7.821602E-15	9.880313E-17
5.470000E+03	7.763176E-15	9.799997E-17
5.480000E+03	7.700317E-15	9.715647E-17
5.490000E+03	7.640048E-15	9.636019E-17
5.500000E+03	7.589737E-15	9.570286E-17
5.510000E+03	7.551925E-15	9.521536E-17
5.520000E+03	7.528866E-15	9.492501E-17
5.530000E+03	7.522521E-15	9.485560E-17
5.540000E+03	7.533920E-15	9.501931E-17
5.550000E+03	7.562537E-15	9.540880E-17
5.560000E+03	7.606074E-15	9.599450E-17
5.570000E+03	7.660062E-15	9.671944E-17
5.580000E+03	7.718889E-15	9.751217E-17
5.590000E+03	7.775857E-15	9.828736E-17
5.600000E+03	7.824270E-15	9.895955E-17
5.610000E+03	7.858100E-15	9.945143E-17
5.620000E+03	7.872447E-15	9.969979E-17
5.630000E+03	7.864373E-15	9.966607E-17
5.640000E+03	7.832768E-15	9.933478E-17
5.650000E+03	7.778391E-15	9.871412E-17
5.660000E+03	7.703525E-15	9.783170E-17
5.670000E+03	7.612177E-15	9.673719E-17
5.680000E+03	7.509139E-15	9.549042E-17
5.690000E+03	7.400106E-15	9.416299E-17
5.700000E+03	7.291164E-15	9.283173E-17
5.710000E+03	7.188339E-15	9.157294E-17
5.720000E+03	7.097415E-15	9.046005E-17
5.730000E+03	7.023183E-15	8.955401E-17
5.740000E+03	6.969228E-15	8.890047E-17
5.750000E+03	6.937480E-15	8.852400E-17
5.760000E+03	6.928255E-15	8.842855E-17
5.770000E+03	6.940225E-15	8.859695E-17
5.780000E+03	6.970576E-15	8.899298E-17
5.790000E+03	7.015287E-15	8.956492E-17
5.800000E+03	7.069817E-15	9.025428E-17
5.810000E+03	7.129136E-15	9.099634E-17
5.820000E+03	7.188839E-15	9.173434E-17
5.830000E+03	7.244606E-15	9.241269E-17
5.840000E+03	7.293277E-15	9.299070E-17
5.850000E+03	7.332369E-15	9.343645E-17
5.860000E+03	7.360591E-15	9.373340E-17
5.870000E+03	7.377734E-15	9.387889E-17
5.880000E+03	7.384219E-15	9.387841E-17
5.890000E+03	7.381306E-15	9.374824E-17
5.900000E+03	7.370545E-15	9.350834E-17
5.910000E+03	7.353459E-15	9.317842E-17
5.920000E+03	7.331753E-15	9.278039E-17
5.930000E+03	7.306892E-15	9.233318E-17
5.940000E+03	7.280158E-15	9.185333E-17
5.950000E+03	7.252538E-15	9.135361E-17
5.960000E+03	7.225199E-15	9.084904E-17
5.970000E+03	7.198883E-15	9.034921E-17
5.980000E+03	7.174373E-15	8.986422E-17
5.990000E+03	7.152061E-15	8.939918E-17
6.000000E+03	7.132078E-15	8.895595E-17
6.010000E+03	7.114162E-15	8.853150E-17
6.020000E+03	7.097582E-15	8.811704E-17
6.030000E+03	7.081504E-15	8.770258E-17
6.040000E+03	7.064904E-15	8.727596E-17
6.050000E+03	7.047010E-15	8.682824E-17
6.060000E+03	7.027367E-15	8.635456E-17
6.070000E+03	7.005916E-15	8.585500E-17
6.080000E+03	6.982769E-15	8.533176E-17
6.090000E+03	6.958404E-15	8.479154E-17
6.100000E+03	6.932793E-15	8.423488E-17
6.110000E+03	6.905357E-15	8.365565E-17
6.120000E+03	6.874969E-15	8.304124E-17
6.130000E+03	6.840011E-15	8.237330E-17
6.140000E+03	6.798689E-15	8.163166E-17
6.150000E+03	6.749504E-15	8.079992E-17
6.160000E+03	6.692035E-15	7.987480E-17
6.170000E+03	6.627248E-15	7.886955E-17
6.180000E+03	6.557682E-15	7.781598E-17
6.190000E+03	6.487036E-15	7.675921E-17
6.200000E+03	6.419718E-15	7.575223E-17
6.210000E+03	6.360131E-15	7.484740E-17
6.220000E+03	6.311788E-15	7.408611E-17
6.230000E+03	6.276653E-15	7.349123E-17
6.240000E+03	6.254975E-15	7.306550E-17
6.250000E+03	6.245843E-15	7.279822E-17
6.260000E+03	6.246923E-15	7.266243E-17
6.270000E+03	6.255258E-15	7.262424E-17
6.280000E+03	6.267773E-15	7.264880E-17
6.290000E+03	6.281519E-15	7.270308E-17
6.300000E+03	6.293867E-15	7.275796E-17
6.310000E+03	6.302895E-15	7.279265E-17
6.320000E+03	6.307088E-15	7.279111E-17
6.330000E+03	6.306226E-15	7.275220E-17
6.340000E+03	6.301458E-15	7.269048E-17
6.350000E+03	6.295894E-15	7.264302E-17
6.360000E+03	6.294318E-15	7.266617E-17
6.370000E+03	6.303063E-15	7.283436E-17
6.380000E+03	6.329086E-15	7.322967E-17
6.390000E+03	6.378897E-15	7.392978E-17
6.400000E+03	6.456533E-15	7.498472E-17
6.410000E+03	6.562443E-15	7.640386E-17
6.420000E+03	6.691879E-15	7.813666E-17
6.430000E+03	6.834353E-15	8.006438E-17
6.440000E+03	6.973484E-15	8.199689E-17
6.450000E+03	7.089523E-15	8.370142E-17
6.460000E+03	7.162671E-15	8.494019E-17
6.470000E+03	7.178060E-15	8.552898E-17
6.480000E+03	7.130384E-15	8.539332E-17
6.490000E+03	7.027019E-15	8.460865E-17
6.500000E+03	6.888072E-15	8.340515E-17
6.510000E+03	6.743009E-15	8.213162E-17
6.520000E+03	6.625162E-15	8.119246E-17
6.530000E+03	6.566835E-15	8.098974E-17
6.540000E+03	6.580600E-15	8.169165E-17
6.550000E+03	6.651126E-15	8.312287E-17
6.560000E+03	6.759174E-15	8.505483E-17
6.570000E+03	6.884614E-15	8.724158E-17
6.580000E+03	7.008245E-15	8.944225E-17
6.590000E+03	7.114342E-15	9.145366E-17
6.600000E+03	7.191641E-15	9.312437E-17
6.610000E+03	7.233450E-15	9.435809E-17
6.620000E+03	7.237985E-15	9.512010E-17
6.630000E+03	7.207181E-15	9.542392E-17
6.640000E+03	7.145579E-15	9.531842E-17
6.650000E+03	7.059587E-15	9.487918E-17
6.660000E+03	6.955663E-15	9.418499E-17
6.670000E+03	6.840478E-15	9.332014E-17
6.680000E+03	6.719569E-15	9.235610E-17
6.690000E+03	6.597550E-15	9.135388E-17
6.700000E+03	6.477553E-15	9.035584E-17
6.710000E+03	6.361948E-15	8.939495E-17
6.720000E+03	6.251756E-15	8.848623E-17
6.730000E+03	6.147523E-15	8.763835E-17
6.740000E+03	6.049161E-15	8.685123E-17
6.750000E+03	5.956272E-15	8.612030E-17
6.760000E+03	5.868252E-15	8.543790E-17
6.770000E+03	5.784627E-15	8.479807E-17
6.780000E+03	5.705162E-15	8.419823E-17
6.790000E+03	5.629599E-15	8.363544E-17
6.800000E+03	5.558258E-15	8.311525E-17
6.810000E+03	5.491406E-15	8.264264E-17
6.820000E+03	5.429511E-15	8.222570E-17
6.830000E+03	5.372977E-15	8.187178E-17
6.840000E+03	5.322295E-15	8.158967E-17
6.850000E+03	5.277719E-15	8.138470E-17
6.860000E+03	5.239133E-15	8.125650E-17
6.870000E+03	5.206580E-15	8.120716E-17
6.880000E+03	5.179404E-15	8.122777E-17
6.890000E+03	5.157144E-15	8.131221E-17
6.900000E+03	5.138855E-15	8.144654E-17
6.910000E+03	5.123785E-15	8.161955E-17
6.920000E+03	5.110797E-15	8.181360E-17
6.930000E+03	5.098972E-15	8.201418E-17
6.940000E+03	5.087274E-15	8.220462E-17
6.950000E+03	5.074920E-15	8.237205E-17
6.960000E+03	5.061114E-15	8.250319E-17
6.970000E+03	5.045409E-15	8.259027E-17
6.980000E+03	5.027341E-15	8.262515E-17
6.990000E+03	5.007003E-15	8.260883E-17
7.000000E+03	4.984487E-15	8.254235E-17
7.010000E+03	4.960183E-15	8.243175E-17
7.020000E+03	4.934572E-15	8.228475E-17
7.030000E+03	4.908401E-15	8.211363E-17
7.040000E+03	4.882375E-15	8.193020E-17
7.050000E+03	4.857099E-15	8.174470E-17
7.060000E+03	4.833245E-15	8.156863E-17
7.070000E+03	4.811204E-15	8.140892E-17
7.080000E+03	4.791305E-15	8.127139E-17
7.090000E+03	4.773812E-15	8.116091E-17
7.100000E+03	4.758633E-15	8.107620E-17
7.110000E+03	4.745869E-15	8.101929E-17
7.120000E+03	4.735212E-15	8.098522E-17
7.130000E+03	4.726503E-15	8.097145E-17
7.140000E+03	4.719445E-15	8.097309E-17
7.150000E+03	4.713689E-15	8.098430E-17
7.160000E+03	4.708789E-15	8.099751E-17
7.170000E+03	4.704372E-15	8.100635E-17
7.180000E+03	4.700161E-15	8.100612E-17
7.190000E+03	4.695760E-15	8.099003E-17
7.200000E+03	4.690977E-15	8.095479E-17
7.210000E+03	4.685503E-15	8.089512E-17
7.220000E+03	4.679158E-15	8.080797E-17
7.230000E+03	4.671808E-15	8.069110E-17
7.240000E+03	4.663288E-15	8.054173E-17
7.250000E+03	4.653713E-15	8.036201E-17
7.260000E+03	4.643007E-15	8.015076E-17
7.270000E+03	4.631134E-15	7.990754E-17
7.280000E+03	4.618247E-15	7.963519E-17
7.290000E+03	4.604364E-15	7.933427E-17
7.300000E+03	4.589750E-15	7.900958E-17
7.310000E+03	4.574276E-15	7.865915E-17
7.320000E+03	4.558201E-15	7.828773E-17
7.330000E+03	4.541613E-15	7.789714E-17
7.340000E+03	4.524425E-15	7.748619E-17
7.350000E+03	4.506837E-15	7.705862E-17
7.360000E+03	4.488770E-15	7.661342E-17
7.370000E+03	4.470255E-15	7.615149E-17
7.380000E+03	4.451030E-15	7.566873E-17
7.390000E+03	4.431013E-15	7.516417E-17
7.400000E+03	4.410070E-15	7.463597E-17
7.410000E+03	4.387796E-15	7.407778E-17
7.420000E+03	4.364081E-15	7.348829E-17
7.430000E+03	4.338512E-15	7.286118E-17
7.440000E+03	4.310934E-15	7.219453E-17
7.450000E+03	4.281156E-15	7.148588E-17
7.460000E+03	4.249056E-15	7.073397E-17
7.470000E+03	4.214505E-15	6.993752E-17
7.480000E+03	4.177628E-15	6.909950E-17
7.490000E+03	4.138574E-15	6.822325E-17
7.500000E+03	4.097689E-15	6.731535E-17
7.510000E+03	4.055213E-15	6.638062E-17
7.520000E+03	4.011749E-15	6.542972E-17
7.530000E+03	3.967959E-15	6.447413E-17
7.540000E+03	3.924714E-15	6.352861E-17
7.550000E+03	3.882857E-15	6.260721E-17
7.560000E+03	3.843455E-15	6.172735E-17
7.570000E+03	3.807449E-15	6.090420E-17
7.580000E+03	3.775808E-15	6.015310E-17
7.590000E+03	3.749525E-15	5.948947E-17
7.600000E+03	3.729117E-15	5.892101E-17
7.610000E+03	3.715068E-15	5.845476E-17
7.620000E+03	3.707520E-15	5.809220E-17
7.630000E+03	3.706394E-15	5.783143E-17
7.640000E+03	3.711122E-15	5.766298E-17
7.650000E+03	3.721176E-15	5.757813E-17
7.660000E+03	3.735603E-15	5.756185E-17
7.670000E+03	3.753452E-15	5.759942E-17
7.680000E+03	3.773617E-15	5.767404E-17
7.690000E+03	3.794912E-15	5.776804E-17
7.700000E+03	3.816351E-15	5.786709E-17
7.710000E+03	3.836990E-15	5.795779E-17
7.720000E+03	3.856033E-15	5.802924E-17
7.730000E+03	3.872868E-15	5.807348E-17
7.740000E+03	3.887139E-15	5.808655E-17
7.750000E+03	3.898433E-15	5.806364E-17
7.760000E+03	3.906794E-15	5.800689E-17
