#wls	flux	fluxerr
1.600000E+03	1.080122E-17	1.815326E-18
1.640000E+03	1.122590E-17	1.873720E-18
1.680000E+03	1.167450E-17	1.934799E-18
1.720000E+03	1.214005E-17	1.997288E-18
1.760000E+03	1.262161E-17	2.060932E-18
1.800000E+03	1.312506E-17	2.126583E-18
1.840000E+03	1.364192E-17	2.192749E-18
1.880000E+03	1.417384E-17	2.259592E-18
1.920000E+03	1.471850E-17	2.326640E-18
1.960000E+03	1.527314E-17	2.393352E-18
2.000000E+03	1.583444E-17	2.459126E-18
2.040000E+03	1.639862E-17	2.523293E-18
2.080000E+03	1.696546E-17	2.585753E-18
2.120000E+03	1.752207E-17	2.644497E-18
2.160000E+03	1.807147E-17	2.699964E-18
2.200000E+03	1.860399E-17	2.750704E-18
2.240000E+03	1.911808E-17	2.796513E-18
2.280000E+03	1.960360E-17	2.835960E-18
2.320000E+03	2.005894E-17	2.868905E-18
2.360000E+03	2.047846E-17	2.894649E-18
2.400000E+03	2.085265E-17	2.912002E-18
2.440000E+03	2.118554E-17	2.921714E-18
2.480000E+03	2.146918E-17	2.922880E-18
2.520000E+03	2.170107E-17	2.915397E-18
2.560000E+03	2.188420E-17	2.899915E-18
2.600000E+03	2.201469E-17	2.876177E-18
2.640000E+03	2.210257E-17	2.845755E-18
2.680000E+03	2.214715E-17	2.808795E-18
2.720000E+03	2.215740E-17	2.766665E-18
2.760000E+03	2.213975E-17	2.720356E-18
2.800000E+03	2.210213E-17	2.670999E-18
2.840000E+03	2.206094E-17	2.620671E-18
2.880000E+03	2.201913E-17	2.569747E-18
2.920000E+03	2.199844E-17	2.520732E-18
2.960000E+03	2.200737E-17	2.474458E-18
3.000000E+03	2.206226E-17	2.432542E-18
3.010000E+03	2.208397E-17	2.422799E-18
3.020000E+03	2.211126E-17	2.413600E-18
3.030000E+03	2.214435E-17	2.404959E-18
3.040000E+03	2.218029E-17	2.396548E-18
3.050000E+03	2.222248E-17	2.388730E-18
3.060000E+03	2.226804E-17	2.381184E-18
3.070000E+03	2.232037E-17	2.374266E-18
3.080000E+03	2.237660E-17	2.367662E-18
3.090000E+03	2.244324E-17	2.362051E-18
3.100000E+03	2.251124E-17	2.356466E-18
3.110000E+03	2.259019E-17	2.351904E-18
3.120000E+03	2.267420E-17	2.347737E-18
3.130000E+03	2.276666E-17	2.344305E-18
3.140000E+03	2.286789E-17	2.341625E-18
3.150000E+03	2.297516E-17	2.339405E-18
3.160000E+03	2.309187E-17	2.337979E-18
3.170000E+03	2.321838E-17	2.337364E-18
3.180000E+03	2.335506E-17	2.337582E-18
3.190000E+03	2.349926E-17	2.338351E-18
3.200000E+03	2.365746E-17	2.340298E-18
3.210000E+03	2.382402E-17	2.342845E-18
3.220000E+03	2.400244E-17	2.346316E-18
3.230000E+03	2.419317E-17	2.350737E-18
3.240000E+03	2.439371E-17	2.355842E-18
3.250000E+03	2.461064E-17	2.362245E-18
3.260000E+03	2.483845E-17	2.369391E-18
3.270000E+03	2.508381E-17	2.377893E-18
3.280000E+03	2.534129E-17	2.387207E-18
3.290000E+03	2.561460E-17	2.397657E-18
3.300000E+03	2.590752E-17	2.409568E-18
3.310000E+03	2.621474E-17	2.422412E-18
3.320000E+03	2.654013E-17	2.436517E-18
3.330000E+03	2.688460E-17	2.451933E-18
3.340000E+03	2.725226E-17	2.468997E-18
3.350000E+03	2.763792E-17	2.487200E-18
3.360000E+03	2.804902E-17	2.507172E-18
3.370000E+03	2.848369E-17	2.528701E-18
3.380000E+03	2.894010E-17	2.551581E-18
3.390000E+03	2.942615E-17	2.576463E-18
3.400000E+03	2.994030E-17	2.603158E-18
3.410000E+03	3.048769E-17	2.632057E-18
3.420000E+03	3.106375E-17	2.662706E-18
3.430000E+03	3.167735E-17	2.695807E-18
3.440000E+03	3.232767E-17	2.731218E-18
3.450000E+03	3.301743E-17	2.769100E-18
3.460000E+03	3.375318E-17	2.809924E-18
3.470000E+03	3.453491E-17	2.853602E-18
3.480000E+03	3.536638E-17	2.900355E-18
3.490000E+03	3.625545E-17	2.950730E-18
3.500000E+03	3.720322E-17	3.004708E-18
3.510000E+03	3.821488E-17	3.062593E-18
3.520000E+03	3.930002E-17	3.125027E-18
3.530000E+03	4.046126E-17	3.192078E-18
3.540000E+03	4.170958E-17	3.264462E-18
3.550000E+03	4.304878E-17	3.342309E-18
3.560000E+03	4.449131E-17	3.426407E-18
3.570000E+03	4.604206E-17	3.516933E-18
3.580000E+03	4.771474E-17	3.614723E-18
3.590000E+03	4.951458E-17	3.719938E-18
3.600000E+03	5.145509E-17	3.833343E-18
3.610000E+03	5.354422E-17	3.955262E-18
3.620000E+03	5.578864E-17	4.085901E-18
3.630000E+03	5.818886E-17	4.225005E-18
3.640000E+03	6.074924E-17	4.372593E-18
3.650000E+03	6.348438E-17	4.529406E-18
3.660000E+03	6.638679E-17	4.694584E-18
3.670000E+03	6.946429E-17	4.868362E-18
3.680000E+03	7.271842E-17	5.050518E-18
3.690000E+03	7.614325E-17	5.240313E-18
3.700000E+03	7.975036E-17	5.438220E-18
3.710000E+03	8.352453E-17	5.642870E-18
3.720000E+03	8.746804E-17	5.854108E-18
3.730000E+03	9.157510E-17	6.071237E-18
3.740000E+03	9.583758E-17	6.293423E-18
3.750000E+03	1.002452E-16	6.519713E-18
3.760000E+03	1.047846E-16	6.748990E-18
3.770000E+03	1.094403E-16	6.980022E-18
3.780000E+03	1.141933E-16	7.211415E-18
3.790000E+03	1.190127E-16	7.441055E-18
3.800000E+03	1.238902E-16	7.668323E-18
3.810000E+03	1.287869E-16	7.890755E-18
3.820000E+03	1.336677E-16	8.106203E-18
3.830000E+03	1.385025E-16	8.312907E-18
3.840000E+03	1.432272E-16	8.507176E-18
3.850000E+03	1.478150E-16	8.687664E-18
3.860000E+03	1.521983E-16	8.850721E-18
3.870000E+03	1.563547E-16	8.995467E-18
3.880000E+03	1.602375E-16	9.119703E-18
3.890000E+03	1.638215E-16	9.222538E-18
3.900000E+03	1.671050E-16	9.304464E-18
3.910000E+03	1.700773E-16	9.365478E-18
3.920000E+03	1.727394E-16	9.406247E-18
3.930000E+03	1.751474E-16	9.430384E-18
3.940000E+03	1.772958E-16	9.438101E-18
3.950000E+03	1.792392E-16	9.432777E-18
3.960000E+03	1.809994E-16	9.415948E-18
3.970000E+03	1.826217E-16	9.390315E-18
3.980000E+03	1.841288E-16	9.357313E-18
3.990000E+03	1.855563E-16	9.318972E-18
4.000000E+03	1.869417E-16	9.277340E-18
4.010000E+03	1.883362E-16	9.235031E-18
4.020000E+03	1.897694E-16	9.193513E-18
4.030000E+03	1.912915E-16	9.155159E-18
4.040000E+03	1.929254E-16	9.120943E-18
4.050000E+03	1.946958E-16	9.091874E-18
4.060000E+03	1.966249E-16	9.068792E-18
4.070000E+03	1.986959E-16	9.050718E-18
4.080000E+03	2.008957E-16	9.036877E-18
4.090000E+03	2.031702E-16	9.024727E-18
4.100000E+03	2.054607E-16	9.011633E-18
4.110000E+03	2.077084E-16	8.995102E-18
4.120000E+03	2.098298E-16	8.971715E-18
4.130000E+03	2.117688E-16	8.939395E-18
4.140000E+03	2.134597E-16	8.895792E-18
4.150000E+03	2.148675E-16	8.839946E-18
4.160000E+03	2.159797E-16	8.771889E-18
4.170000E+03	2.168185E-16	8.693060E-18
4.180000E+03	2.174170E-16	8.605282E-18
4.190000E+03	2.178063E-16	8.510217E-18
4.200000E+03	2.180757E-16	8.411710E-18
4.210000E+03	2.183052E-16	8.313062E-18
4.220000E+03	2.185629E-16	8.216981E-18
4.230000E+03	2.189638E-16	8.127778E-18
4.240000E+03	2.195947E-16	8.048523E-18
4.250000E+03	2.205624E-16	7.982857E-18
4.260000E+03	2.219396E-16	7.933038E-18
4.270000E+03	2.238313E-16	7.902347E-18
4.280000E+03	2.262997E-16	7.892433E-18
4.290000E+03	2.293980E-16	7.904557E-18
4.300000E+03	2.331622E-16	7.939363E-18
4.310000E+03	2.375645E-16	7.995335E-18
4.320000E+03	2.425763E-16	8.071035E-18
4.330000E+03	2.480844E-16	8.162330E-18
4.340000E+03	2.539675E-16	8.265053E-18
4.350000E+03	2.600154E-16	8.372385E-18
4.360000E+03	2.660167E-16	8.477798E-18
4.370000E+03	2.716872E-16	8.572751E-18
4.380000E+03	2.767721E-16	8.649971E-18
4.390000E+03	2.810634E-16	8.703910E-18
4.400000E+03	2.844912E-16	8.733434E-18
4.410000E+03	2.871374E-16	8.742024E-18
4.420000E+03	2.891675E-16	8.735533E-18
4.430000E+03	2.908158E-16	8.721654E-18
4.440000E+03	2.923282E-16	8.708160E-18
4.450000E+03	2.939459E-16	8.702470E-18
4.460000E+03	2.959268E-16	8.712311E-18
4.470000E+03	2.984935E-16	8.744230E-18
4.480000E+03	3.018702E-16	8.804731E-18
4.490000E+03	3.062333E-16	8.898781E-18
4.500000E+03	3.117478E-16	9.030942E-18
4.510000E+03	3.185133E-16	9.203939E-18
4.520000E+03	3.265853E-16	9.419292E-18
4.530000E+03	3.359497E-16	9.676629E-18
4.540000E+03	3.465193E-16	9.973566E-18
4.550000E+03	3.580730E-16	1.030398E-17
4.560000E+03	3.703305E-16	1.066009E-17
4.570000E+03	3.828749E-16	1.103024E-17
4.580000E+03	3.952017E-16	1.140020E-17
4.590000E+03	4.067887E-16	1.175510E-17
4.600000E+03	4.170537E-16	1.207816E-17
4.610000E+03	4.254922E-16	1.235460E-17
4.620000E+03	4.316713E-16	1.257142E-17
4.630000E+03	4.352636E-16	1.271841E-17
4.640000E+03	4.361107E-16	1.278999E-17
4.650000E+03	4.341923E-16	1.278445E-17
4.660000E+03	4.296185E-16	1.270376E-17
4.670000E+03	4.226397E-16	1.255396E-17
4.680000E+03	4.136159E-16	1.234443E-17
4.690000E+03	4.029490E-16	1.208592E-17
4.700000E+03	3.911016E-16	1.179119E-17
4.710000E+03	3.785174E-16	1.147272E-17
4.720000E+03	3.656830E-16	1.114455E-17
4.730000E+03	3.530351E-16	1.081956E-17
4.740000E+03	3.409934E-16	1.051042E-17
4.750000E+03	3.299286E-16	1.022864E-17
4.760000E+03	3.201895E-16	9.985345E-18
4.770000E+03	3.120393E-16	9.789278E-18
4.780000E+03	3.056753E-16	9.647354E-18
4.790000E+03	3.012407E-16	9.564965E-18
4.800000E+03	2.987985E-16	9.545084E-18
4.810000E+03	2.983389E-16	9.588427E-18
4.820000E+03	2.997720E-16	9.693145E-18
4.830000E+03	3.029566E-16	9.855656E-18
4.840000E+03	3.076760E-16	1.006982E-17
4.850000E+03	3.136694E-16	1.032787E-17
4.860000E+03	3.206443E-16	1.062078E-17
4.870000E+03	3.282775E-16	1.093830E-17
4.880000E+03	3.362238E-16	1.126913E-17
4.890000E+03	3.441798E-16	1.160316E-17
4.900000E+03	3.518419E-16	1.193000E-17
4.910000E+03	3.589579E-16	1.224079E-17
4.920000E+03	3.652914E-16	1.252700E-17
4.930000E+03	3.706754E-16	1.278235E-17
4.940000E+03	3.749884E-16	1.300198E-17
4.950000E+03	3.781379E-16	1.318199E-17
4.960000E+03	3.800781E-16	1.332005E-17
4.970000E+03	3.808346E-16	1.341634E-17
4.980000E+03	3.804360E-16	1.347116E-17
4.990000E+03	3.789667E-16	1.348686E-17
5.000000E+03	3.765239E-16	1.346632E-17
5.010000E+03	3.732213E-16	1.341309E-17
5.020000E+03	3.691864E-16	1.333133E-17
5.030000E+03	3.645512E-16	1.322547E-17
5.040000E+03	3.594783E-16	1.310114E-17
5.050000E+03	3.541347E-16	1.296425E-17
5.060000E+03	3.486919E-16	1.282103E-17
5.070000E+03	3.433428E-16	1.267857E-17
5.080000E+03	3.382704E-16	1.254374E-17
5.090000E+03	3.336404E-16	1.242290E-17
5.100000E+03	3.296137E-16	1.232228E-17
5.110000E+03	3.263159E-16	1.224691E-17
5.120000E+03	3.238246E-16	1.220006E-17
5.130000E+03	3.222128E-16	1.218488E-17
5.140000E+03	3.214786E-16	1.220169E-17
5.150000E+03	3.215921E-16	1.224972E-17
5.160000E+03	3.224917E-16	1.232699E-17
5.170000E+03	3.240701E-16	1.242970E-17
5.180000E+03	3.262076E-16	1.255352E-17
5.190000E+03	3.287559E-16	1.269293E-17
5.200000E+03	3.315695E-16	1.284247E-17
5.210000E+03	3.345157E-16	1.299707E-17
5.220000E+03	3.374682E-16	1.315188E-17
5.230000E+03	3.403051E-16	1.330213E-17
5.240000E+03	3.429504E-16	1.344481E-17
5.250000E+03	3.453263E-16	1.357683E-17
5.260000E+03	3.473840E-16	1.369618E-17
5.270000E+03	3.490732E-16	1.380080E-17
5.280000E+03	3.503606E-16	1.388926E-17
5.290000E+03	3.512280E-16	1.396076E-17
5.300000E+03	3.516513E-16	1.401424E-17
5.310000E+03	3.516207E-16	1.404920E-17
5.320000E+03	3.511413E-16	1.406576E-17
5.330000E+03	3.502078E-16	1.406361E-17
5.340000E+03	3.488525E-16	1.404395E-17
5.350000E+03	3.471069E-16	1.400801E-17
5.360000E+03	3.450039E-16	1.395702E-17
5.370000E+03	3.426161E-16	1.389389E-17
5.380000E+03	3.400090E-16	1.382125E-17
5.390000E+03	3.372641E-16	1.374241E-17
5.400000E+03	3.344731E-16	1.366111E-17
5.410000E+03	3.317134E-16	1.358057E-17
5.420000E+03	3.290624E-16	1.350403E-17
5.430000E+03	3.265890E-16	1.343440E-17
5.440000E+03	3.243532E-16	1.337424E-17
5.450000E+03	3.224074E-16	1.332584E-17
5.460000E+03	3.208037E-16	1.329149E-17
5.470000E+03	3.195784E-16	1.327284E-17
5.480000E+03	3.187685E-16	1.327159E-17
5.490000E+03	3.183966E-16	1.328886E-17
5.500000E+03	3.184492E-16	1.332426E-17
5.510000E+03	3.188639E-16	1.337531E-17
5.520000E+03	3.195444E-16	1.343804E-17
5.530000E+03	3.203819E-16	1.350791E-17
5.540000E+03	3.212398E-16	1.357917E-17
5.550000E+03	3.219939E-16	1.364652E-17
5.560000E+03	3.224914E-16	1.370341E-17
5.570000E+03	3.225991E-16	1.374403E-17
5.580000E+03	3.221675E-16	1.376184E-17
5.590000E+03	3.210844E-16	1.375181E-17
5.600000E+03	3.192391E-16	1.370893E-17
5.610000E+03	3.165670E-16	1.363011E-17
5.620000E+03	3.130356E-16	1.351365E-17
5.630000E+03	3.086286E-16	1.335849E-17
5.640000E+03	3.033735E-16	1.316551E-17
5.650000E+03	2.973151E-16	1.293634E-17
5.660000E+03	2.905118E-16	1.267321E-17
5.670000E+03	2.830483E-16	1.237957E-17
5.680000E+03	2.750263E-16	1.205962E-17
5.690000E+03	2.665462E-16	1.171758E-17
5.700000E+03	2.577539E-16	1.135971E-17
5.710000E+03	2.487906E-16	1.099214E-17
5.720000E+03	2.398257E-16	1.062231E-17
5.730000E+03	2.310363E-16	1.025811E-17
5.740000E+03	2.226034E-16	9.907627E-18
5.750000E+03	2.147132E-16	9.579310E-18
5.760000E+03	2.075532E-16	9.281723E-18
5.770000E+03	2.012805E-16	9.022152E-18
5.780000E+03	1.960548E-16	8.808049E-18
5.790000E+03	1.919928E-16	8.645008E-18
5.800000E+03	1.892018E-16	8.538225E-18
5.810000E+03	1.877547E-16	8.491384E-18
5.820000E+03	1.876949E-16	8.506835E-18
5.830000E+03	1.890411E-16	8.585825E-18
5.840000E+03	1.917832E-16	8.728282E-18
5.850000E+03	1.958839E-16	8.932862E-18
5.860000E+03	2.012658E-16	9.196385E-18
5.870000E+03	2.078176E-16	9.514054E-18
5.880000E+03	2.153891E-16	9.879252E-18
5.890000E+03	2.237956E-16	1.028370E-17
5.900000E+03	2.328080E-16	1.071701E-17
5.910000E+03	2.421844E-16	1.116812E-17
5.920000E+03	2.516570E-16	1.162468E-17
5.930000E+03	2.609606E-16	1.207439E-17
5.940000E+03	2.698399E-16	1.250531E-17
5.950000E+03	2.780813E-16	1.290739E-17
5.960000E+03	2.855003E-16	1.327185E-17
5.970000E+03	2.919675E-16	1.359244E-17
5.980000E+03	2.974035E-16	1.386523E-17
5.990000E+03	3.017988E-16	1.408955E-17
6.000000E+03	3.051778E-16	1.426630E-17
6.010000E+03	3.076258E-16	1.439927E-17
6.020000E+03	3.092613E-16	1.449383E-17
6.030000E+03	3.102317E-16	1.455676E-17
6.040000E+03	3.107018E-16	1.459569E-17
6.050000E+03	3.108443E-16	1.461865E-17
6.060000E+03	3.108251E-16	1.463342E-17
6.070000E+03	3.108097E-16	1.464778E-17
6.080000E+03	3.109427E-16	1.466857E-17
6.090000E+03	3.113438E-16	1.470147E-17
6.100000E+03	3.121250E-16	1.475181E-17
6.110000E+03	3.133566E-16	1.482300E-17
6.120000E+03	3.150967E-16	1.491783E-17
6.130000E+03	3.173930E-16	1.503864E-17
6.140000E+03	3.202557E-16	1.518598E-17
6.150000E+03	3.236941E-16	1.536037E-17
6.160000E+03	3.277001E-16	1.556148E-17
6.170000E+03	3.322511E-16	1.578830E-17
6.180000E+03	3.373281E-16	1.603999E-17
6.190000E+03	3.429030E-16	1.631526E-17
6.200000E+03	3.489464E-16	1.661276E-17
6.210000E+03	3.554229E-16	1.693086E-17
6.220000E+03	3.623122E-16	1.726863E-17
6.230000E+03	3.695717E-16	1.762408E-17
6.240000E+03	3.771672E-16	1.799562E-17
6.250000E+03	3.850754E-16	1.838219E-17
6.260000E+03	3.932487E-16	1.878155E-17
6.270000E+03	4.016663E-16	1.919275E-17
6.280000E+03	4.102902E-16	1.961403E-17
6.290000E+03	4.191142E-16	2.004511E-17
6.300000E+03	4.281460E-16	2.048644E-17
6.310000E+03	4.374195E-16	2.093968E-17
6.320000E+03	4.470007E-16	2.140805E-17
6.330000E+03	4.569892E-16	2.189640E-17
6.340000E+03	4.675193E-16	2.241126E-17
6.350000E+03	4.787576E-16	2.296072E-17
6.360000E+03	4.909002E-16	2.355429E-17
6.370000E+03	5.041754E-16	2.420308E-17
6.380000E+03	5.188095E-16	2.491813E-17
6.390000E+03	5.350790E-16	2.571291E-17
6.400000E+03	5.532562E-16	2.660077E-17
6.410000E+03	5.736433E-16	2.759651E-17
6.420000E+03	5.965808E-16	2.871683E-17
6.430000E+03	6.224293E-16	2.997951E-17
6.440000E+03	6.516046E-16	3.140502E-17
6.450000E+03	6.845840E-16	3.301692E-17
6.460000E+03	7.218758E-16	3.484037E-17
6.470000E+03	7.640550E-16	3.690390E-17
6.480000E+03	8.117068E-16	3.923667E-17
6.490000E+03	8.654638E-16	4.187033E-17
6.500000E+03	9.258771E-16	4.483277E-17
6.510000E+03	9.935192E-16	4.815316E-17
6.520000E+03	1.068723E-15	5.184928E-17
6.530000E+03	1.151323E-15	5.591490E-17
6.540000E+03	1.239831E-15	6.027963E-17
6.550000E+03	1.330957E-15	6.478525E-17
6.560000E+03	1.420069E-15	6.920743E-17
6.570000E+03	1.501699E-15	7.327999E-17
6.580000E+03	1.570254E-15	7.672923E-17
6.590000E+03	1.620797E-15	7.931179E-17
6.600000E+03	1.649543E-15	8.083876E-17
6.610000E+03	1.654428E-15	8.120410E-17
6.620000E+03	1.635302E-15	8.039483E-17
6.630000E+03	1.593850E-15	7.848779E-17
6.640000E+03	1.533154E-15	7.562908E-17
6.650000E+03	1.457270E-15	7.201341E-17
6.660000E+03	1.370671E-15	6.785748E-17
6.670000E+03	1.277709E-15	6.337345E-17
6.680000E+03	1.182324E-15	5.875448E-17
6.690000E+03	1.087837E-15	5.416446E-17
6.700000E+03	9.967351E-16	4.972701E-17
6.710000E+03	9.108791E-16	4.553546E-17
6.720000E+03	8.313939E-16	4.164718E-17
6.730000E+03	7.588969E-16	3.809460E-17
6.740000E+03	6.936042E-16	3.489034E-17
6.750000E+03	6.353743E-16	3.202916E-17
6.760000E+03	5.838880E-16	2.949691E-17
6.770000E+03	5.386817E-16	2.727205E-17
6.780000E+03	4.992213E-16	2.532932E-17
6.790000E+03	4.649480E-16	2.364203E-17
6.800000E+03	4.353035E-16	2.218334E-17
6.810000E+03	4.097792E-16	2.092869E-17
6.820000E+03	3.878858E-16	1.985435E-17
6.830000E+03	3.691886E-16	1.893916E-17
6.840000E+03	3.533011E-16	1.816428E-17
6.850000E+03	3.398832E-16	1.751310E-17
6.860000E+03	3.286386E-16	1.697112E-17
6.870000E+03	3.193154E-16	1.652600E-17
6.880000E+03	3.116858E-16	1.616655E-17
6.890000E+03	3.055583E-16	1.588338E-17
6.900000E+03	3.007673E-16	1.566833E-17
6.910000E+03	2.971743E-16	1.551462E-17
6.920000E+03	2.946491E-16	1.541581E-17
6.930000E+03	2.930875E-16	1.536676E-17
6.940000E+03	2.923834E-16	1.536222E-17
6.950000E+03	2.924665E-16	1.539873E-17
6.960000E+03	2.932516E-16	1.547204E-17
6.970000E+03	2.946711E-16	1.557878E-17
6.980000E+03	2.966689E-16	1.571616E-17
6.990000E+03	2.991849E-16	1.588113E-17
7.000000E+03	3.021730E-16	1.607140E-17
7.010000E+03	3.055814E-16	1.628430E-17
7.020000E+03	3.093723E-16	1.651793E-17
7.030000E+03	3.135071E-16	1.677029E-17
7.040000E+03	3.179463E-16	1.703935E-17
7.050000E+03	3.226662E-16	1.732388E-17
7.060000E+03	3.276385E-16	1.762240E-17
7.070000E+03	3.328523E-16	1.793436E-17
7.080000E+03	3.382986E-16	1.825931E-17
7.090000E+03	3.439759E-16	1.859717E-17
7.100000E+03	3.498845E-16	1.894799E-17
7.110000E+03	3.560434E-16	1.931282E-17
7.120000E+03	3.624716E-16	1.969271E-17
7.130000E+03	3.691854E-16	2.008857E-17
7.140000E+03	3.762149E-16	2.050206E-17
7.150000E+03	3.835833E-16	2.093447E-17
7.160000E+03	3.913092E-16	2.138687E-17
7.170000E+03	3.994048E-16	2.185993E-17
7.180000E+03	4.078654E-16	2.235344E-17
7.190000E+03	4.166878E-16	2.286725E-17
7.200000E+03	4.258467E-16	2.339998E-17
7.210000E+03	4.352968E-16	2.394917E-17
7.220000E+03	4.449704E-16	2.451107E-17
7.230000E+03	4.547651E-16	2.508004E-17
7.240000E+03	4.645645E-16	2.564960E-17
7.250000E+03	4.742117E-16	2.621102E-17
7.260000E+03	4.835165E-16	2.675371E-17
7.270000E+03	4.922555E-16	2.726518E-17
7.280000E+03	5.001760E-16	2.773127E-17
7.290000E+03	5.070048E-16	2.813665E-17
7.300000E+03	5.124517E-16	2.846499E-17
7.310000E+03	5.162525E-16	2.870139E-17
7.320000E+03	5.181707E-16	2.883243E-17
7.330000E+03	5.179879E-16	2.884567E-17
7.340000E+03	5.155772E-16	2.873380E-17
7.350000E+03	5.108770E-16	2.849310E-17
7.360000E+03	5.039060E-16	2.812439E-17
7.370000E+03	4.947532E-16	2.763242E-17
7.380000E+03	4.836068E-16	2.702752E-17
7.390000E+03	4.706782E-16	2.632139E-17
7.400000E+03	4.562591E-16	2.553024E-17
7.410000E+03	4.406343E-16	2.466996E-17
7.420000E+03	4.241264E-16	2.375860E-17
7.430000E+03	4.070550E-16	2.281409E-17
7.440000E+03	3.897033E-16	2.185237E-17
7.450000E+03	3.723572E-16	2.088953E-17
7.460000E+03	3.552678E-16	1.993977E-17
7.470000E+03	3.386516E-16	1.901535E-17
7.480000E+03	3.227145E-16	1.812794E-17
7.490000E+03	3.076137E-16	1.728651E-17
7.500000E+03	2.934782E-16	1.649842E-17
7.510000E+03	2.804254E-16	1.577041E-17
7.520000E+03	2.685293E-16	1.510676E-17
7.530000E+03	2.578407E-16	1.451045E-17
7.540000E+03	2.484001E-16	1.398386E-17
7.550000E+03	2.402307E-16	1.352842E-17
7.560000E+03	2.333304E-16	1.314411E-17
7.570000E+03	2.277037E-16	1.283128E-17
7.580000E+03	2.233459E-16	1.258978E-17
7.590000E+03	2.202484E-16	1.241920E-17
7.600000E+03	2.183970E-16	1.231886E-17
7.610000E+03	2.177695E-16	1.228757E-17
7.620000E+03	2.183316E-16	1.232352E-17
7.630000E+03	2.200322E-16	1.242390E-17
7.640000E+03	2.227945E-16	1.258450E-17
7.650000E+03	2.265315E-16	1.280049E-17
7.660000E+03	2.311188E-16	1.306495E-17
7.670000E+03	2.364088E-16	1.336964E-17
7.680000E+03	2.422474E-16	1.370595E-17
7.690000E+03	2.484477E-16	1.406340E-17
7.700000E+03	2.548348E-16	1.443218E-17
7.710000E+03	2.612139E-16	1.480136E-17
7.720000E+03	2.674141E-16	1.516130E-17
7.730000E+03	2.732804E-16	1.550330E-17
7.740000E+03	2.786622E-16	1.581884E-17
7.750000E+03	2.834496E-16	1.610173E-17
7.760000E+03	2.875531E-16	1.634688E-17
