#wls	flux	fluxerr
1.600000E+03	1.383582E-17	1.149241E-18
1.640000E+03	1.419111E-17	1.174063E-18
1.680000E+03	1.455210E-17	1.198999E-18
1.720000E+03	1.491730E-17	1.223907E-18
1.760000E+03	1.528493E-17	1.248627E-18
1.800000E+03	1.565776E-17	1.273368E-18
1.840000E+03	1.602407E-17	1.297165E-18
1.880000E+03	1.639091E-17	1.320581E-18
1.920000E+03	1.675569E-17	1.343393E-18
1.960000E+03	1.710580E-17	1.364586E-18
2.000000E+03	1.744787E-17	1.384690E-18
2.040000E+03	1.777874E-17	1.403454E-18
2.080000E+03	1.809017E-17	1.420233E-18
2.120000E+03	1.837882E-17	1.434778E-18
2.160000E+03	1.865125E-17	1.447618E-18
2.200000E+03	1.888943E-17	1.457373E-18
2.240000E+03	1.910519E-17	1.464987E-18
2.280000E+03	1.928593E-17	1.469523E-18
2.320000E+03	1.943907E-17	1.471584E-18
2.360000E+03	1.955299E-17	1.470332E-18
2.400000E+03	1.963127E-17	1.466086E-18
2.440000E+03	1.967323E-17	1.458847E-18
2.480000E+03	1.968350E-17	1.449009E-18
2.520000E+03	1.965369E-17	1.436010E-18
2.560000E+03	1.959450E-17	1.420690E-18
2.600000E+03	1.950816E-17	1.403260E-18
2.640000E+03	1.939345E-17	1.383682E-18
2.680000E+03	1.925859E-17	1.362590E-18
2.720000E+03	1.910416E-17	1.340066E-18
2.760000E+03	1.894350E-17	1.317076E-18
2.800000E+03	1.877466E-17	1.293507E-18
2.840000E+03	1.861187E-17	1.270349E-18
2.880000E+03	1.845839E-17	1.247820E-18
2.920000E+03	1.832202E-17	1.226428E-18
2.960000E+03	1.821453E-17	1.206928E-18
3.000000E+03	1.814160E-17	1.189640E-18
3.010000E+03	1.813250E-17	1.185900E-18
3.020000E+03	1.812247E-17	1.182090E-18
3.030000E+03	1.811821E-17	1.178647E-18
3.040000E+03	1.811666E-17	1.175369E-18
3.050000E+03	1.812121E-17	1.172474E-18
3.060000E+03	1.812564E-17	1.169558E-18
3.070000E+03	1.813657E-17	1.167047E-18
3.080000E+03	1.815415E-17	1.164946E-18
3.090000E+03	1.817229E-17	1.162864E-18
3.100000E+03	1.819751E-17	1.161215E-18
3.110000E+03	1.822693E-17	1.159813E-18
3.120000E+03	1.826078E-17	1.158670E-18
3.130000E+03	1.829935E-17	1.157801E-18
3.140000E+03	1.834598E-17	1.157416E-18
3.150000E+03	1.839788E-17	1.157333E-18
3.160000E+03	1.845534E-17	1.157570E-18
3.170000E+03	1.852177E-17	1.158334E-18
3.180000E+03	1.859442E-17	1.159451E-18
3.190000E+03	1.867365E-17	1.160940E-18
3.200000E+03	1.875984E-17	1.162820E-18
3.210000E+03	1.885646E-17	1.165301E-18
3.220000E+03	1.896086E-17	1.168214E-18
3.230000E+03	1.907350E-17	1.171584E-18
3.240000E+03	1.919793E-17	1.175624E-18
3.250000E+03	1.933160E-17	1.180170E-18
3.260000E+03	1.947507E-17	1.185251E-18
3.270000E+03	1.962890E-17	1.190897E-18
3.280000E+03	1.979683E-17	1.197326E-18
3.290000E+03	1.997644E-17	1.204386E-18
3.300000E+03	2.016844E-17	1.212111E-18
3.310000E+03	2.037674E-17	1.220729E-18
3.320000E+03	2.059904E-17	1.230094E-18
3.330000E+03	2.083622E-17	1.240249E-18
3.340000E+03	2.109243E-17	1.251432E-18
3.350000E+03	2.136552E-17	1.263504E-18
3.360000E+03	2.165659E-17	1.276522E-18
3.370000E+03	2.196682E-17	1.290542E-18
3.380000E+03	2.230075E-17	1.305820E-18
3.390000E+03	2.265982E-17	1.322426E-18
3.400000E+03	2.303889E-17	1.340046E-18
3.410000E+03	2.344620E-17	1.359146E-18
3.420000E+03	2.388013E-17	1.379615E-18
3.430000E+03	2.434597E-17	1.401742E-18
3.440000E+03	2.483872E-17	1.425222E-18
3.450000E+03	2.537111E-17	1.450765E-18
3.460000E+03	2.593475E-17	1.477871E-18
3.470000E+03	2.653928E-17	1.507068E-18
3.480000E+03	2.718365E-17	1.538273E-18
3.490000E+03	2.787450E-17	1.571835E-18
3.500000E+03	2.861098E-17	1.607680E-18
3.510000E+03	2.939621E-17	1.645954E-18
3.520000E+03	3.023757E-17	1.687041E-18
3.530000E+03	3.113455E-17	1.730879E-18
3.540000E+03	3.209080E-17	1.777635E-18
3.550000E+03	3.311448E-17	1.827726E-18
3.560000E+03	3.420531E-17	1.881095E-18
3.570000E+03	3.536730E-17	1.937923E-18
3.580000E+03	3.660930E-17	1.998649E-18
3.590000E+03	3.793090E-17	2.063205E-18
3.600000E+03	3.933616E-17	2.131761E-18
3.610000E+03	4.083432E-17	2.204769E-18
3.620000E+03	4.242431E-17	2.282115E-18
3.630000E+03	4.411545E-17	2.364243E-18
3.640000E+03	4.590594E-17	2.450998E-18
3.650000E+03	4.779899E-17	2.542493E-18
3.660000E+03	4.980368E-17	2.639148E-18
3.670000E+03	5.191670E-17	2.740723E-18
3.680000E+03	5.414679E-17	2.847614E-18
3.690000E+03	5.648928E-17	2.959509E-18
3.700000E+03	5.894514E-17	3.076393E-18
3.710000E+03	6.151469E-17	3.198218E-18
3.720000E+03	6.420524E-17	3.325297E-18
3.730000E+03	6.701643E-17	3.457544E-18
3.740000E+03	6.993045E-17	3.593974E-18
3.750000E+03	7.296931E-17	3.735658E-18
3.760000E+03	7.610405E-17	3.881050E-18
3.770000E+03	7.934730E-17	4.030739E-18
3.780000E+03	8.268440E-17	4.183926E-18
3.790000E+03	8.611818E-17	4.340704E-18
3.800000E+03	8.963127E-17	4.500151E-18
3.810000E+03	9.322519E-17	4.662305E-18
3.820000E+03	9.686901E-17	4.825586E-18
3.830000E+03	1.005849E-16	4.991073E-18
3.840000E+03	1.043285E-16	5.156543E-18
3.850000E+03	1.081110E-16	5.322543E-18
3.860000E+03	1.119216E-16	5.488526E-18
3.870000E+03	1.157239E-16	5.652717E-18
3.880000E+03	1.195447E-16	5.816434E-18
3.890000E+03	1.233349E-16	5.977296E-18
3.900000E+03	1.271105E-16	6.136117E-18
3.910000E+03	1.308494E-16	6.291850E-18
3.920000E+03	1.345573E-16	6.444805E-18
3.930000E+03	1.382128E-16	6.593998E-18
3.940000E+03	1.418238E-16	6.739851E-18
3.950000E+03	1.453700E-16	6.881438E-18
3.960000E+03	1.488456E-16	7.018547E-18
3.970000E+03	1.522454E-16	7.150987E-18
3.980000E+03	1.555807E-16	7.279354E-18
3.990000E+03	1.588485E-16	7.403554E-18
4.000000E+03	1.620291E-16	7.522733E-18
4.010000E+03	1.651194E-16	7.636814E-18
4.020000E+03	1.681162E-16	7.745721E-18
4.030000E+03	1.710328E-16	7.850133E-18
4.040000E+03	1.738482E-16	7.949157E-18
4.050000E+03	1.765737E-16	8.043380E-18
4.060000E+03	1.791841E-16	8.131725E-18
4.070000E+03	1.816858E-16	8.214565E-18
4.080000E+03	1.840299E-16	8.289774E-18
4.090000E+03	1.862353E-16	8.358306E-18
4.100000E+03	1.882844E-16	8.419456E-18
4.110000E+03	1.901408E-16	8.471712E-18
4.120000E+03	1.917879E-16	8.514445E-18
4.130000E+03	1.932305E-16	8.547992E-18
4.140000E+03	1.944253E-16	8.570560E-18
4.150000E+03	1.954261E-16	8.584653E-18
4.160000E+03	1.961880E-16	8.588403E-18
4.170000E+03	1.967646E-16	8.584279E-18
4.180000E+03	1.971821E-16	8.573522E-18
4.190000E+03	1.974388E-16	8.556143E-18
4.200000E+03	1.976103E-16	8.535489E-18
4.210000E+03	1.977400E-16	8.513478E-18
4.220000E+03	1.978377E-16	8.490570E-18
4.230000E+03	1.979832E-16	8.470195E-18
4.240000E+03	1.982008E-16	8.453394E-18
4.250000E+03	1.985455E-16	8.442485E-18
4.260000E+03	1.990316E-16	8.438046E-18
4.270000E+03	1.996835E-16	8.441071E-18
4.280000E+03	2.005351E-16	8.452943E-18
4.290000E+03	2.015762E-16	8.473189E-18
4.300000E+03	2.028050E-16	8.501684E-18
4.310000E+03	2.042092E-16	8.537881E-18
4.320000E+03	2.057844E-16	8.581556E-18
4.330000E+03	2.074819E-16	8.630667E-18
4.340000E+03	2.092623E-16	8.683567E-18
4.350000E+03	2.110955E-16	8.739019E-18
4.360000E+03	2.129127E-16	8.794195E-18
4.370000E+03	2.146597E-16	8.846901E-18
4.380000E+03	2.162864E-16	8.895131E-18
4.390000E+03	2.177781E-16	8.938343E-18
4.400000E+03	2.191212E-16	8.976042E-18
4.410000E+03	2.203559E-16	9.009943E-18
4.420000E+03	2.215428E-16	9.042567E-18
4.430000E+03	2.227668E-16	9.077413E-18
4.440000E+03	2.240797E-16	9.116613E-18
4.450000E+03	2.255485E-16	9.162894E-18
4.460000E+03	2.272345E-16	9.218748E-18
4.470000E+03	2.292082E-16	9.287016E-18
4.480000E+03	2.314764E-16	9.367940E-18
4.490000E+03	2.341015E-16	9.464022E-18
4.500000E+03	2.370774E-16	9.574987E-18
4.510000E+03	2.404147E-16	9.701248E-18
4.520000E+03	2.440509E-16	9.840280E-18
4.530000E+03	2.479746E-16	9.991622E-18
4.540000E+03	2.520996E-16	1.015181E-17
4.550000E+03	2.563374E-16	1.031732E-17
4.560000E+03	2.605815E-16	1.048388E-17
4.570000E+03	2.647100E-16	1.064663E-17
4.580000E+03	2.686105E-16	1.080108E-17
4.590000E+03	2.721095E-16	1.094029E-17
4.600000E+03	2.751155E-16	1.106063E-17
4.610000E+03	2.774926E-16	1.115663E-17
4.620000E+03	2.791455E-16	1.122449E-17
4.630000E+03	2.800080E-16	1.126153E-17
4.640000E+03	2.800473E-16	1.126641E-17
4.650000E+03	2.792664E-16	1.123919E-17
4.660000E+03	2.777223E-16	1.118213E-17
4.670000E+03	2.754471E-16	1.109644E-17
4.680000E+03	2.725762E-16	1.098750E-17
4.690000E+03	2.692097E-16	1.085927E-17
4.700000E+03	2.654641E-16	1.071635E-17
4.710000E+03	2.615181E-16	1.056588E-17
4.720000E+03	2.574984E-16	1.041294E-17
4.730000E+03	2.535469E-16	1.026318E-17
4.740000E+03	2.497975E-16	1.012202E-17
4.750000E+03	2.463558E-16	9.993703E-18
4.760000E+03	2.433605E-16	9.883878E-18
4.770000E+03	2.408835E-16	9.795490E-18
4.780000E+03	2.389925E-16	9.731341E-18
4.790000E+03	2.377334E-16	9.693376E-18
4.800000E+03	2.371287E-16	9.682596E-18
4.810000E+03	2.371772E-16	9.699053E-18
4.820000E+03	2.378548E-16	9.741864E-18
4.830000E+03	2.391146E-16	9.809225E-18
4.840000E+03	2.408894E-16	9.898484E-18
4.850000E+03	2.430946E-16	1.000626E-17
4.860000E+03	2.456168E-16	1.012799E-17
4.870000E+03	2.483788E-16	1.026055E-17
4.880000E+03	2.512544E-16	1.039878E-17
4.890000E+03	2.541182E-16	1.053752E-17
4.900000E+03	2.568972E-16	1.067373E-17
4.910000E+03	2.594673E-16	1.080224E-17
4.920000E+03	2.617638E-16	1.092030E-17
4.930000E+03	2.637223E-16	1.102516E-17
4.940000E+03	2.652949E-16	1.111472E-17
4.950000E+03	2.664499E-16	1.118754E-17
4.960000E+03	2.671710E-16	1.124282E-17
4.970000E+03	2.674561E-16	1.128035E-17
4.980000E+03	2.673002E-16	1.129977E-17
4.990000E+03	2.667400E-16	1.130252E-17
5.000000E+03	2.658214E-16	1.129040E-17
5.010000E+03	2.645527E-16	1.126364E-17
5.020000E+03	2.629815E-16	1.122417E-17
5.030000E+03	2.611930E-16	1.117550E-17
5.040000E+03	2.592347E-16	1.111961E-17
5.050000E+03	2.571611E-16	1.105874E-17
5.060000E+03	2.550606E-16	1.099667E-17
5.070000E+03	2.530087E-16	1.093662E-17
5.080000E+03	2.510655E-16	1.088122E-17
5.090000E+03	2.493277E-16	1.083467E-17
5.100000E+03	2.478268E-16	1.079841E-17
5.110000E+03	2.466235E-16	1.077517E-17
5.120000E+03	2.457360E-16	1.076583E-17
5.130000E+03	2.452058E-16	1.077232E-17
5.140000E+03	2.450029E-16	1.079344E-17
5.150000E+03	2.451205E-16	1.082901E-17
5.160000E+03	2.455098E-16	1.087698E-17
5.170000E+03	2.461488E-16	1.093648E-17
5.180000E+03	2.469539E-16	1.100386E-17
5.190000E+03	2.478628E-16	1.107642E-17
5.200000E+03	2.488387E-16	1.115253E-17
5.210000E+03	2.497948E-16	1.122832E-17
5.220000E+03	2.506901E-16	1.130195E-17
5.230000E+03	2.514650E-16	1.137069E-17
5.240000E+03	2.520953E-16	1.143339E-17
5.250000E+03	2.525527E-16	1.148870E-17
5.260000E+03	2.528042E-16	1.153505E-17
5.270000E+03	2.528504E-16	1.157239E-17
5.280000E+03	2.526848E-16	1.160031E-17
5.290000E+03	2.523062E-16	1.161868E-17
5.300000E+03	2.516918E-16	1.162634E-17
5.310000E+03	2.508867E-16	1.162529E-17
5.320000E+03	2.498752E-16	1.161469E-17
5.330000E+03	2.486829E-16	1.159567E-17
5.340000E+03	2.473138E-16	1.156831E-17
5.350000E+03	2.458004E-16	1.153405E-17
5.360000E+03	2.441657E-16	1.149391E-17
5.370000E+03	2.424241E-16	1.144851E-17
5.380000E+03	2.406168E-16	1.139974E-17
5.390000E+03	2.387624E-16	1.134845E-17
5.400000E+03	2.369042E-16	1.129668E-17
5.410000E+03	2.350726E-16	1.124587E-17
5.420000E+03	2.332855E-16	1.119689E-17
5.430000E+03	2.315699E-16	1.115104E-17
5.440000E+03	2.299615E-16	1.111010E-17
5.450000E+03	2.284815E-16	1.107511E-17
5.460000E+03	2.271363E-16	1.104647E-17
5.470000E+03	2.259512E-16	1.102545E-17
5.480000E+03	2.249235E-16	1.101200E-17
5.490000E+03	2.240637E-16	1.100671E-17
5.500000E+03	2.233441E-16	1.100828E-17
5.510000E+03	2.227391E-16	1.101552E-17
5.520000E+03	2.221884E-16	1.102548E-17
5.530000E+03	2.216471E-16	1.103594E-17
5.540000E+03	2.210476E-16	1.104351E-17
5.550000E+03	2.203442E-16	1.104587E-17
5.560000E+03	2.194734E-16	1.103977E-17
5.570000E+03	2.183876E-16	1.102270E-17
5.580000E+03	2.170562E-16	1.099299E-17
5.590000E+03	2.154459E-16	1.094882E-17
5.600000E+03	2.135231E-16	1.088832E-17
5.610000E+03	2.112837E-16	1.081110E-17
5.620000E+03	2.087134E-16	1.071625E-17
5.630000E+03	2.058176E-16	1.060387E-17
5.640000E+03	2.026199E-16	1.047498E-17
5.650000E+03	1.991333E-16	1.033010E-17
5.660000E+03	1.953966E-16	1.017107E-17
5.670000E+03	1.914374E-16	9.999197E-18
5.680000E+03	1.873076E-16	9.817063E-18
5.690000E+03	1.830478E-16	9.626703E-18
5.700000E+03	1.787133E-16	9.430953E-18
5.710000E+03	1.743730E-16	9.233412E-18
5.720000E+03	1.700848E-16	9.037140E-18
5.730000E+03	1.659261E-16	8.846287E-18
5.740000E+03	1.619619E-16	8.664389E-18
5.750000E+03	1.582658E-16	8.495493E-18
5.760000E+03	1.549172E-16	8.344018E-18
5.770000E+03	1.519843E-16	8.213832E-18
5.780000E+03	1.495162E-16	8.107822E-18
5.790000E+03	1.475812E-16	8.029944E-18
5.800000E+03	1.462232E-16	7.982893E-18
5.810000E+03	1.454685E-16	7.968421E-18
5.820000E+03	1.453363E-16	7.987914E-18
5.830000E+03	1.458315E-16	8.041981E-18
5.840000E+03	1.469499E-16	8.130726E-18
5.850000E+03	1.486645E-16	8.253005E-18
5.860000E+03	1.509191E-16	8.406006E-18
5.870000E+03	1.536673E-16	8.587436E-18
5.880000E+03	1.568353E-16	8.793423E-18
5.890000E+03	1.603286E-16	9.018892E-18
5.900000E+03	1.640501E-16	9.258531E-18
5.910000E+03	1.678963E-16	9.506608E-18
5.920000E+03	1.717701E-16	9.757663E-18
5.930000E+03	1.755635E-16	1.000557E-17
5.940000E+03	1.791926E-16	1.024547E-17
5.950000E+03	1.825717E-16	1.047236E-17
5.960000E+03	1.856393E-16	1.068256E-17
5.970000E+03	1.883620E-16	1.087396E-17
5.980000E+03	1.907103E-16	1.104466E-17
5.990000E+03	1.926829E-16	1.119437E-17
6.000000E+03	1.943058E-16	1.132440E-17
6.010000E+03	1.956048E-16	1.143606E-17
6.020000E+03	1.966353E-16	1.153241E-17
6.030000E+03	1.974381E-16	1.161571E-17
6.040000E+03	1.980935E-16	1.169057E-17
6.050000E+03	1.986684E-16	1.176086E-17
6.060000E+03	1.992204E-16	1.182995E-17
6.070000E+03	1.998128E-16	1.190160E-17
6.080000E+03	2.005037E-16	1.197930E-17
6.090000E+03	2.013528E-16	1.206668E-17
6.100000E+03	2.023960E-16	1.216598E-17
6.110000E+03	2.036782E-16	1.228001E-17
6.120000E+03	2.052114E-16	1.240962E-17
6.130000E+03	2.070446E-16	1.255792E-17
6.140000E+03	2.091691E-16	1.272453E-17
6.150000E+03	2.116153E-16	1.291147E-17
6.160000E+03	2.143841E-16	1.311895E-17
6.170000E+03	2.174920E-16	1.334817E-17
6.180000E+03	2.209269E-16	1.359855E-17
6.190000E+03	2.247220E-16	1.387231E-17
6.200000E+03	2.288546E-16	1.416823E-17
6.210000E+03	2.333490E-16	1.448800E-17
6.220000E+03	2.382009E-16	1.483152E-17
6.230000E+03	2.434252E-16	1.519993E-17
6.240000E+03	2.490171E-16	1.559310E-17
6.250000E+03	2.549818E-16	1.601154E-17
6.260000E+03	2.613358E-16	1.645649E-17
6.270000E+03	2.680771E-16	1.692800E-17
6.280000E+03	2.752173E-16	1.742702E-17
6.290000E+03	2.827867E-16	1.795565E-17
6.300000E+03	2.908008E-16	1.851511E-17
6.310000E+03	2.993099E-16	1.910881E-17
6.320000E+03	3.083402E-16	1.973868E-17
6.330000E+03	3.179825E-16	2.041080E-17
6.340000E+03	3.283179E-16	2.113070E-17
6.350000E+03	3.394285E-16	2.190400E-17
6.360000E+03	3.514225E-16	2.273810E-17
6.370000E+03	3.644345E-16	2.364216E-17
6.380000E+03	3.785794E-16	2.462414E-17
6.390000E+03	3.939916E-16	2.569336E-17
6.400000E+03	4.108249E-16	2.686051E-17
6.410000E+03	4.291986E-16	2.813409E-17
6.420000E+03	4.492399E-16	2.952320E-17
6.430000E+03	4.710808E-16	3.103736E-17
6.440000E+03	4.948125E-16	3.268344E-17
6.450000E+03	5.204463E-16	3.446310E-17
6.460000E+03	5.480220E-16	3.637988E-17
6.470000E+03	5.774652E-16	3.842975E-17
6.480000E+03	6.085762E-16	4.060026E-17
6.490000E+03	6.410496E-16	4.287175E-17
6.500000E+03	6.744543E-16	4.521593E-17
6.510000E+03	7.081323E-16	4.758898E-17
6.520000E+03	7.412681E-16	4.993604E-17
6.530000E+03	7.729025E-16	5.219199E-17
6.540000E+03	8.018662E-16	5.427693E-17
6.550000E+03	8.269660E-16	5.610853E-17
6.560000E+03	8.469464E-16	5.759952E-17
6.570000E+03	8.607367E-16	5.867439E-17
6.580000E+03	8.674228E-16	5.926774E-17
6.590000E+03	8.664494E-16	5.933811E-17
6.600000E+03	8.576832E-16	5.887274E-17
6.610000E+03	8.413255E-16	5.788181E-17
6.620000E+03	8.180290E-16	5.640678E-17
6.630000E+03	7.886902E-16	5.450640E-17
6.640000E+03	7.544931E-16	5.225992E-17
6.650000E+03	7.166701E-16	4.975068E-17
6.660000E+03	6.765287E-16	4.706804E-17
6.670000E+03	6.352429E-16	4.429288E-17
6.680000E+03	5.938826E-16	4.149950E-17
6.690000E+03	5.533665E-16	3.875229E-17
6.700000E+03	5.143958E-16	3.610091E-17
6.710000E+03	4.774657E-16	3.358097E-17
6.720000E+03	4.429257E-16	3.121808E-17
6.730000E+03	4.109961E-16	2.902896E-17
6.740000E+03	3.817400E-16	2.701930E-17
6.750000E+03	3.551624E-16	2.519070E-17
6.760000E+03	3.311819E-16	2.353861E-17
6.770000E+03	3.096440E-16	2.205321E-17
6.780000E+03	2.904327E-16	2.072737E-17
6.790000E+03	2.733495E-16	1.954792E-17
6.800000E+03	2.582178E-16	1.850317E-17
6.810000E+03	2.448734E-16	1.758223E-17
6.820000E+03	2.331380E-16	1.677305E-17
6.830000E+03	2.228646E-16	1.606574E-17
6.840000E+03	2.139082E-16	1.545049E-17
6.850000E+03	2.061286E-16	1.491773E-17
6.860000E+03	1.994089E-16	1.445950E-17
6.870000E+03	1.936616E-16	1.406989E-17
6.880000E+03	1.887693E-16	1.374079E-17
6.890000E+03	1.846672E-16	1.346783E-17
6.900000E+03	1.812833E-16	1.324609E-17
6.910000E+03	1.785468E-16	1.307070E-17
6.920000E+03	1.764097E-16	1.293839E-17
6.930000E+03	1.748224E-16	1.284578E-17
6.940000E+03	1.737332E-16	1.278931E-17
6.950000E+03	1.731029E-16	1.276626E-17
6.960000E+03	1.729029E-16	1.277472E-17
6.970000E+03	1.731007E-16	1.281246E-17
6.980000E+03	1.736591E-16	1.287688E-17
6.990000E+03	1.745580E-16	1.296662E-17
7.000000E+03	1.757718E-16	1.307993E-17
7.010000E+03	1.772692E-16	1.321458E-17
7.020000E+03	1.790356E-16	1.336959E-17
7.030000E+03	1.810428E-16	1.354295E-17
7.040000E+03	1.832798E-16	1.373394E-17
7.050000E+03	1.857216E-16	1.394076E-17
7.060000E+03	1.883695E-16	1.416358E-17
7.070000E+03	1.911860E-16	1.439965E-17
7.080000E+03	1.941852E-16	1.465010E-17
7.090000E+03	1.973419E-16	1.491307E-17
7.100000E+03	2.006494E-16	1.518812E-17
7.110000E+03	2.041197E-16	1.547622E-17
7.120000E+03	2.077228E-16	1.577513E-17
7.130000E+03	2.114819E-16	1.608666E-17
7.140000E+03	2.153754E-16	1.640922E-17
7.150000E+03	2.194076E-16	1.674318E-17
7.160000E+03	2.235717E-16	1.708806E-17
7.170000E+03	2.278481E-16	1.744241E-17
7.180000E+03	2.322326E-16	1.780592E-17
7.190000E+03	2.366962E-16	1.817641E-17
7.200000E+03	2.412241E-16	1.855276E-17
7.210000E+03	2.457852E-16	1.893258E-17
7.220000E+03	2.503402E-16	1.931285E-17
7.230000E+03	2.548308E-16	1.968906E-17
7.240000E+03	2.592119E-16	2.005768E-17
7.250000E+03	2.634081E-16	2.041282E-17
7.260000E+03	2.673589E-16	2.074972E-17
7.270000E+03	2.709867E-16	2.106225E-17
7.280000E+03	2.742097E-16	2.134393E-17
7.290000E+03	2.769328E-16	2.158721E-17
7.300000E+03	2.790881E-16	2.178659E-17
7.310000E+03	2.806019E-16	2.193615E-17
7.320000E+03	2.813987E-16	2.202974E-17
7.330000E+03	2.814425E-16	2.206429E-17
7.340000E+03	2.807025E-16	2.203715E-17
7.350000E+03	2.791672E-16	2.194715E-17
7.360000E+03	2.768335E-16	2.179379E-17
7.370000E+03	2.737438E-16	2.158016E-17
7.380000E+03	2.699471E-16	2.130988E-17
7.390000E+03	2.654965E-16	2.098694E-17
7.400000E+03	2.604953E-16	2.061930E-17
7.410000E+03	2.550082E-16	2.021194E-17
7.420000E+03	2.491312E-16	1.977233E-17
7.430000E+03	2.429855E-16	1.930997E-17
7.440000E+03	2.366460E-16	1.883077E-17
7.450000E+03	2.302193E-16	1.834316E-17
7.460000E+03	2.237841E-16	1.785343E-17
7.470000E+03	2.174444E-16	1.736986E-17
7.480000E+03	2.112548E-16	1.689689E-17
7.490000E+03	2.052920E-16	1.644069E-17
7.500000E+03	1.996137E-16	1.600599E-17
7.510000E+03	1.942601E-16	1.559610E-17
7.520000E+03	1.892812E-16	1.521516E-17
7.530000E+03	1.847097E-16	1.486591E-17
7.540000E+03	1.805708E-16	1.455052E-17
7.550000E+03	1.768832E-16	1.427061E-17
7.560000E+03	1.736506E-16	1.402665E-17
7.570000E+03	1.708882E-16	1.381999E-17
7.580000E+03	1.685976E-16	1.365091E-17
7.590000E+03	1.667674E-16	1.351860E-17
7.600000E+03	1.654055E-16	1.342386E-17
7.610000E+03	1.644835E-16	1.336452E-17
7.620000E+03	1.639923E-16	1.333995E-17
7.630000E+03	1.639100E-16	1.334850E-17
7.640000E+03	1.642098E-16	1.338811E-17
7.650000E+03	1.648524E-16	1.345565E-17
7.660000E+03	1.658090E-16	1.354888E-17
7.670000E+03	1.670386E-16	1.366453E-17
7.680000E+03	1.684965E-16	1.379900E-17
7.690000E+03	1.701348E-16	1.394843E-17
7.700000E+03	1.718950E-16	1.410807E-17
7.710000E+03	1.737346E-16	1.427446E-17
7.720000E+03	1.756032E-16	1.444346E-17
7.730000E+03	1.774529E-16	1.461115E-17
7.740000E+03	1.792384E-16	1.477377E-17
7.750000E+03	1.809106E-16	1.492725E-17
7.760000E+03	1.824517E-16	1.507011E-17
