#wls	flux	fluxerr
1.600000E+03	1.189796E-17	1.550443E-18
1.640000E+03	1.215633E-17	1.576853E-18
1.680000E+03	1.241324E-17	1.602577E-18
1.720000E+03	1.267570E-17	1.628501E-18
1.760000E+03	1.293400E-17	1.653360E-18
1.800000E+03	1.319499E-17	1.678016E-18
1.840000E+03	1.344856E-17	1.701165E-18
1.880000E+03	1.369707E-17	1.723105E-18
1.920000E+03	1.394293E-17	1.744132E-18
1.960000E+03	1.417548E-17	1.762907E-18
2.000000E+03	1.440124E-17	1.780251E-18
2.040000E+03	1.460940E-17	1.794832E-18
2.080000E+03	1.480651E-17	1.807475E-18
2.120000E+03	1.498610E-17	1.817407E-18
2.160000E+03	1.515047E-17	1.824932E-18
2.200000E+03	1.528912E-17	1.828818E-18
2.240000E+03	1.540898E-17	1.829940E-18
2.280000E+03	1.550436E-17	1.827664E-18
2.320000E+03	1.557837E-17	1.822410E-18
2.360000E+03	1.562604E-17	1.813649E-18
2.400000E+03	1.565122E-17	1.801889E-18
2.440000E+03	1.564991E-17	1.786732E-18
2.480000E+03	1.562284E-17	1.768334E-18
2.520000E+03	1.557912E-17	1.747790E-18
2.560000E+03	1.551246E-17	1.724451E-18
2.600000E+03	1.542903E-17	1.699067E-18
2.640000E+03	1.532784E-17	1.671587E-18
2.680000E+03	1.521954E-17	1.643222E-18
2.720000E+03	1.510415E-17	1.614001E-18
2.760000E+03	1.498252E-17	1.584044E-18
2.800000E+03	1.486627E-17	1.554596E-18
2.840000E+03	1.475394E-17	1.525492E-18
2.880000E+03	1.465781E-17	1.497982E-18
2.920000E+03	1.458089E-17	1.472319E-18
2.960000E+03	1.453316E-17	1.449434E-18
3.000000E+03	1.451631E-17	1.429388E-18
3.010000E+03	1.451970E-17	1.425079E-18
3.020000E+03	1.452552E-17	1.420988E-18
3.030000E+03	1.453392E-17	1.417123E-18
3.040000E+03	1.454802E-17	1.413787E-18
3.050000E+03	1.456210E-17	1.410421E-18
3.060000E+03	1.458220E-17	1.407607E-18
3.070000E+03	1.460557E-17	1.405074E-18
3.080000E+03	1.463239E-17	1.402838E-18
3.090000E+03	1.466288E-17	1.400915E-18
3.100000E+03	1.469724E-17	1.399321E-18
3.110000E+03	1.473568E-17	1.398071E-18
3.120000E+03	1.478131E-17	1.397457E-18
3.130000E+03	1.483149E-17	1.397220E-18
3.140000E+03	1.488646E-17	1.397381E-18
3.150000E+03	1.494650E-17	1.397959E-18
3.160000E+03	1.501187E-17	1.398974E-18
3.170000E+03	1.508289E-17	1.400450E-18
3.180000E+03	1.516269E-17	1.402670E-18
3.190000E+03	1.524877E-17	1.405395E-18
3.200000E+03	1.534147E-17	1.408650E-18
3.210000E+03	1.544114E-17	1.412458E-18
3.220000E+03	1.554818E-17	1.416850E-18
3.230000E+03	1.566588E-17	1.422117E-18
3.240000E+03	1.578890E-17	1.427763E-18
3.250000E+03	1.592350E-17	1.434346E-18
3.260000E+03	1.606728E-17	1.441640E-18
3.270000E+03	1.622075E-17	1.449679E-18
3.280000E+03	1.638742E-17	1.458765E-18
3.290000E+03	1.656200E-17	1.468416E-18
3.300000E+03	1.675103E-17	1.479199E-18
3.310000E+03	1.695223E-17	1.490898E-18
3.320000E+03	1.716632E-17	1.503563E-18
3.330000E+03	1.739407E-17	1.517245E-18
3.340000E+03	1.763935E-17	1.532268E-18
3.350000E+03	1.789692E-17	1.548157E-18
3.360000E+03	1.817387E-17	1.565509E-18
3.370000E+03	1.846811E-17	1.584125E-18
3.380000E+03	1.878393E-17	1.604348E-18
3.390000E+03	1.911603E-17	1.625706E-18
3.400000E+03	1.947210E-17	1.648832E-18
3.410000E+03	1.984684E-17	1.673249E-18
3.420000E+03	2.024825E-17	1.699611E-18
3.430000E+03	2.067448E-17	1.727730E-18
3.440000E+03	2.113058E-17	1.757998E-18
3.450000E+03	2.161118E-17	1.789939E-18
3.460000E+03	2.212511E-17	1.824250E-18
3.470000E+03	2.267069E-17	1.860755E-18
3.480000E+03	2.324983E-17	1.899576E-18
3.490000E+03	2.386843E-17	1.941152E-18
3.500000E+03	2.452096E-17	1.984991E-18
3.510000E+03	2.521749E-17	2.031865E-18
3.520000E+03	2.595650E-17	2.081600E-18
3.530000E+03	2.674039E-17	2.134342E-18
3.540000E+03	2.757173E-17	2.190240E-18
3.550000E+03	2.845757E-17	2.249798E-18
3.560000E+03	2.939637E-17	2.312831E-18
3.570000E+03	3.039086E-17	2.379493E-18
3.580000E+03	3.144384E-17	2.449936E-18
3.590000E+03	3.255813E-17	2.524312E-18
3.600000E+03	3.374172E-17	2.603167E-18
3.610000E+03	3.498720E-17	2.685850E-18
3.620000E+03	3.630790E-17	2.773309E-18
3.630000E+03	3.770131E-17	2.865267E-18
3.640000E+03	3.917595E-17	2.962284E-18
3.650000E+03	4.072268E-17	3.063578E-18
3.660000E+03	4.235583E-17	3.170140E-18
3.670000E+03	4.407161E-17	3.281587E-18
3.680000E+03	4.587190E-17	3.397964E-18
3.690000E+03	4.776532E-17	3.519810E-18
3.700000E+03	4.973935E-17	3.646102E-18
3.710000E+03	5.180921E-17	3.777857E-18
3.720000E+03	5.396841E-17	3.914496E-18
3.730000E+03	5.621705E-17	4.055926E-18
3.740000E+03	5.856313E-17	4.202621E-18
3.750000E+03	6.098925E-17	4.353230E-18
3.760000E+03	6.351109E-17	4.508778E-18
3.770000E+03	6.611825E-17	4.668426E-18
3.780000E+03	6.880818E-17	4.831902E-18
3.790000E+03	7.158771E-17	4.999593E-18
3.800000E+03	7.443343E-17	5.169780E-18
3.810000E+03	7.736138E-17	5.343501E-18
3.820000E+03	8.035671E-17	5.519652E-18
3.830000E+03	8.341403E-17	5.697797E-18
3.840000E+03	8.653928E-17	5.878282E-18
3.850000E+03	8.970297E-17	6.059047E-18
3.860000E+03	9.292240E-17	6.241226E-18
3.870000E+03	9.617885E-17	6.423521E-18
3.880000E+03	9.946514E-17	6.605426E-18
3.890000E+03	1.027876E-16	6.787342E-18
3.900000E+03	1.061117E-16	6.966988E-18
3.910000E+03	1.094577E-16	7.145699E-18
3.920000E+03	1.128045E-16	7.322094E-18
3.930000E+03	1.161443E-16	7.495708E-18
3.940000E+03	1.194852E-16	7.667083E-18
3.950000E+03	1.227893E-16	7.833825E-18
3.960000E+03	1.260805E-16	7.997520E-18
3.970000E+03	1.293361E-16	8.156778E-18
3.980000E+03	1.325488E-16	8.311204E-18
3.990000E+03	1.357286E-16	8.461512E-18
4.000000E+03	1.388344E-16	8.605214E-18
4.010000E+03	1.418936E-16	8.744112E-18
4.020000E+03	1.448820E-16	8.876811E-18
4.030000E+03	1.477923E-16	9.002973E-18
4.040000E+03	1.506174E-16	9.122292E-18
4.050000E+03	1.533687E-16	9.235577E-18
4.060000E+03	1.560019E-16	9.340296E-18
4.070000E+03	1.585477E-16	9.438439E-18
4.080000E+03	1.609809E-16	9.528645E-18
4.090000E+03	1.633152E-16	9.611865E-18
4.100000E+03	1.655064E-16	9.685672E-18
4.110000E+03	1.675705E-16	9.751166E-18
4.120000E+03	1.695249E-16	9.809534E-18
4.130000E+03	1.713498E-16	9.859776E-18
4.140000E+03	1.730469E-16	9.902167E-18
4.150000E+03	1.746203E-16	9.937096E-18
4.160000E+03	1.760970E-16	9.966255E-18
4.170000E+03	1.774454E-16	9.987998E-18
4.180000E+03	1.787175E-16	1.000540E-17
4.190000E+03	1.799063E-16	1.001818E-17
4.200000E+03	1.810265E-16	1.002726E-17
4.210000E+03	1.820942E-16	1.003364E-17
4.220000E+03	1.831465E-16	1.003945E-17
4.230000E+03	1.841587E-16	1.004338E-17
4.240000E+03	1.851874E-16	1.004859E-17
4.250000E+03	1.862266E-16	1.005479E-17
4.260000E+03	1.872886E-16	1.006266E-17
4.270000E+03	1.883836E-16	1.007280E-17
4.280000E+03	1.895190E-16	1.008560E-17
4.290000E+03	1.906988E-16	1.010132E-17
4.300000E+03	1.919451E-16	1.012112E-17
4.310000E+03	1.932352E-16	1.014382E-17
4.320000E+03	1.945432E-16	1.016810E-17
4.330000E+03	1.959034E-16	1.019578E-17
4.340000E+03	1.972857E-16	1.022533E-17
4.350000E+03	1.987006E-16	1.025733E-17
4.360000E+03	2.000961E-16	1.028915E-17
4.370000E+03	2.014841E-16	1.032148E-17
4.380000E+03	2.028797E-16	1.035515E-17
4.390000E+03	2.042601E-16	1.038905E-17
4.400000E+03	2.056070E-16	1.042234E-17
4.410000E+03	2.069699E-16	1.045759E-17
4.420000E+03	2.083391E-16	1.049437E-17
4.430000E+03	2.097292E-16	1.053347E-17
4.440000E+03	2.111559E-16	1.057573E-17
4.450000E+03	2.126558E-16	1.062304E-17
4.460000E+03	2.141998E-16	1.067398E-17
4.470000E+03	2.158413E-16	1.073123E-17
4.480000E+03	2.175435E-16	1.079295E-17
4.490000E+03	2.193507E-16	1.086134E-17
4.500000E+03	2.212370E-16	1.093511E-17
4.510000E+03	2.231697E-16	1.101265E-17
4.520000E+03	2.251754E-16	1.109528E-17
4.530000E+03	2.272094E-16	1.118080E-17
4.540000E+03	2.292428E-16	1.126782E-17
4.550000E+03	2.312419E-16	1.135470E-17
4.560000E+03	2.331694E-16	1.143962E-17
4.570000E+03	2.350079E-16	1.152177E-17
4.580000E+03	2.366725E-16	1.159701E-17
4.590000E+03	2.381466E-16	1.166452E-17
4.600000E+03	2.394166E-16	1.172367E-17
4.610000E+03	2.404070E-16	1.177076E-17
4.620000E+03	2.411161E-16	1.180570E-17
4.630000E+03	2.415506E-16	1.182880E-17
4.640000E+03	2.416594E-16	1.183753E-17
4.650000E+03	2.414905E-16	1.183419E-17
4.660000E+03	2.410349E-16	1.181829E-17
4.670000E+03	2.402939E-16	1.178983E-17
4.680000E+03	2.393425E-16	1.175243E-17
4.690000E+03	2.381765E-16	1.170579E-17
4.700000E+03	2.368830E-16	1.165412E-17
4.710000E+03	2.354888E-16	1.159867E-17
4.720000E+03	2.340233E-16	1.154082E-17
4.730000E+03	2.325782E-16	1.148503E-17
4.740000E+03	2.311809E-16	1.143260E-17
4.750000E+03	2.298560E-16	1.138472E-17
4.760000E+03	2.286841E-16	1.134535E-17
4.770000E+03	2.276786E-16	1.131514E-17
4.780000E+03	2.268467E-16	1.129445E-17
4.790000E+03	2.262473E-16	1.128624E-17
4.800000E+03	2.258523E-16	1.128913E-17
4.810000E+03	2.257039E-16	1.130525E-17
4.820000E+03	2.257587E-16	1.133249E-17
4.830000E+03	2.260430E-16	1.137220E-17
4.840000E+03	2.264995E-16	1.142155E-17
4.850000E+03	2.271413E-16	1.148125E-17
4.860000E+03	2.279005E-16	1.154790E-17
4.870000E+03	2.287625E-16	1.162079E-17
4.880000E+03	2.297106E-16	1.169910E-17
4.890000E+03	2.306694E-16	1.177900E-17
4.900000E+03	2.316217E-16	1.185959E-17
4.910000E+03	2.325325E-16	1.193907E-17
4.920000E+03	2.333694E-16	1.201573E-17
4.930000E+03	2.341042E-16	1.208808E-17
4.940000E+03	2.346942E-16	1.215385E-17
4.950000E+03	2.351588E-16	1.221397E-17
4.960000E+03	2.354663E-16	1.226671E-17
4.970000E+03	2.355903E-16	1.231061E-17
4.980000E+03	2.355675E-16	1.234747E-17
4.990000E+03	2.353642E-16	1.237545E-17
5.000000E+03	2.350084E-16	1.239592E-17
5.010000E+03	2.345140E-16	1.240951E-17
5.020000E+03	2.338986E-16	1.241708E-17
5.030000E+03	2.331833E-16	1.241966E-17
5.040000E+03	2.323913E-16	1.241843E-17
5.050000E+03	2.315474E-16	1.241466E-17
5.060000E+03	2.306589E-16	1.240869E-17
5.070000E+03	2.297867E-16	1.240377E-17
5.080000E+03	2.289185E-16	1.239923E-17
5.090000E+03	2.280934E-16	1.239717E-17
5.100000E+03	2.273293E-16	1.239860E-17
5.110000E+03	2.266405E-16	1.240431E-17
5.120000E+03	2.260197E-16	1.241393E-17
5.130000E+03	2.255070E-16	1.242970E-17
5.140000E+03	2.250686E-16	1.244980E-17
5.150000E+03	2.247182E-16	1.247504E-17
5.160000E+03	2.244475E-16	1.250498E-17
5.170000E+03	2.242448E-16	1.253903E-17
5.180000E+03	2.240956E-16	1.257639E-17
5.190000E+03	2.239828E-16	1.261615E-17
5.200000E+03	2.238713E-16	1.265633E-17
5.210000E+03	2.237590E-16	1.269680E-17
5.220000E+03	2.236269E-16	1.273649E-17
5.230000E+03	2.234569E-16	1.277433E-17
5.240000E+03	2.232162E-16	1.280844E-17
5.250000E+03	2.229229E-16	1.283979E-17
5.260000E+03	2.225323E-16	1.286577E-17
5.270000E+03	2.220510E-16	1.288670E-17
5.280000E+03	2.214559E-16	1.290116E-17
5.290000E+03	2.207748E-16	1.291070E-17
5.300000E+03	2.199741E-16	1.291330E-17
5.310000E+03	2.190708E-16	1.290987E-17
5.320000E+03	2.180684E-16	1.290053E-17
5.330000E+03	2.169725E-16	1.288557E-17
5.340000E+03	2.157754E-16	1.286444E-17
5.350000E+03	2.145022E-16	1.283858E-17
5.360000E+03	2.131640E-16	1.280859E-17
5.370000E+03	2.117730E-16	1.277516E-17
5.380000E+03	2.103425E-16	1.273905E-17
5.390000E+03	2.088718E-16	1.270019E-17
5.400000E+03	2.073897E-16	1.266031E-17
5.410000E+03	2.058961E-16	1.261938E-17
5.420000E+03	2.044335E-16	1.258001E-17
5.430000E+03	2.029860E-16	1.254122E-17
5.440000E+03	2.015797E-16	1.250465E-17
5.450000E+03	2.002246E-16	1.247095E-17
5.460000E+03	1.989153E-16	1.243982E-17
5.470000E+03	1.976711E-16	1.241249E-17
5.480000E+03	1.964939E-16	1.238914E-17
5.490000E+03	1.953817E-16	1.236966E-17
5.500000E+03	1.943128E-16	1.235272E-17
5.510000E+03	1.932864E-16	1.233828E-17
5.520000E+03	1.922707E-16	1.232431E-17
5.530000E+03	1.912701E-16	1.231110E-17
5.540000E+03	1.902363E-16	1.229550E-17
5.550000E+03	1.891595E-16	1.227686E-17
5.560000E+03	1.880064E-16	1.225293E-17
5.570000E+03	1.867829E-16	1.222404E-17
5.580000E+03	1.854476E-16	1.218738E-17
5.590000E+03	1.839880E-16	1.214202E-17
5.600000E+03	1.824195E-16	1.208887E-17
5.610000E+03	1.807128E-16	1.202587E-17
5.620000E+03	1.788677E-16	1.195287E-17
5.630000E+03	1.769119E-16	1.187160E-17
5.640000E+03	1.748302E-16	1.178093E-17
5.650000E+03	1.726357E-16	1.168163E-17
5.660000E+03	1.703680E-16	1.157627E-17
5.670000E+03	1.680249E-16	1.146462E-17
5.680000E+03	1.656413E-16	1.134901E-17
5.690000E+03	1.632330E-16	1.123046E-17
5.700000E+03	1.608398E-16	1.111170E-17
5.710000E+03	1.584917E-16	1.099480E-17
5.720000E+03	1.562199E-16	1.088197E-17
5.730000E+03	1.540459E-16	1.077476E-17
5.740000E+03	1.520011E-16	1.067545E-17
5.750000E+03	1.501347E-16	1.058761E-17
5.760000E+03	1.484551E-16	1.051200E-17
5.770000E+03	1.469974E-16	1.045123E-17
5.780000E+03	1.457737E-16	1.040638E-17
5.790000E+03	1.448118E-16	1.037963E-17
5.800000E+03	1.441255E-16	1.037219E-17
5.810000E+03	1.437144E-16	1.038427E-17
5.820000E+03	1.435919E-16	1.041706E-17
5.830000E+03	1.437566E-16	1.047073E-17
5.840000E+03	1.441927E-16	1.054435E-17
5.850000E+03	1.448974E-16	1.063795E-17
5.860000E+03	1.458535E-16	1.075049E-17
5.870000E+03	1.470301E-16	1.087991E-17
5.880000E+03	1.484102E-16	1.102512E-17
5.890000E+03	1.499550E-16	1.118340E-17
5.900000E+03	1.516417E-16	1.135318E-17
5.910000E+03	1.534364E-16	1.153204E-17
5.920000E+03	1.553053E-16	1.171750E-17
5.930000E+03	1.572054E-16	1.190639E-17
5.940000E+03	1.591053E-16	1.209632E-17
5.950000E+03	1.609966E-16	1.228665E-17
5.960000E+03	1.628358E-16	1.247404E-17
5.970000E+03	1.646040E-16	1.265699E-17
5.980000E+03	1.662979E-16	1.283515E-17
5.990000E+03	1.679102E-16	1.300792E-17
6.000000E+03	1.694395E-16	1.317509E-17
6.010000E+03	1.708792E-16	1.333608E-17
6.020000E+03	1.722384E-16	1.349152E-17
6.030000E+03	1.735520E-16	1.364407E-17
6.040000E+03	1.748159E-16	1.379337E-17
6.050000E+03	1.760500E-16	1.394095E-17
6.060000E+03	1.772981E-16	1.409025E-17
6.070000E+03	1.785503E-16	1.424049E-17
6.080000E+03	1.798628E-16	1.439618E-17
6.090000E+03	1.812369E-16	1.455745E-17
6.100000E+03	1.827056E-16	1.472703E-17
6.110000E+03	1.842788E-16	1.490577E-17
6.120000E+03	1.859873E-16	1.509626E-17
6.130000E+03	1.878373E-16	1.529913E-17
6.140000E+03	1.898679E-16	1.551767E-17
6.150000E+03	1.920588E-16	1.575037E-17
6.160000E+03	1.944578E-16	1.600129E-17
6.170000E+03	1.970529E-16	1.626959E-17
6.180000E+03	1.998662E-16	1.655728E-17
6.190000E+03	2.028947E-16	1.686427E-17
6.200000E+03	2.061587E-16	1.719244E-17
6.210000E+03	2.096539E-16	1.754159E-17
6.220000E+03	2.133997E-16	1.791355E-17
6.230000E+03	2.174040E-16	1.830917E-17
6.240000E+03	2.216743E-16	1.872929E-17
6.250000E+03	2.262051E-16	1.917365E-17
6.260000E+03	2.310046E-16	1.964314E-17
6.270000E+03	2.361102E-16	2.014118E-17
6.280000E+03	2.414904E-16	2.066527E-17
6.290000E+03	2.472002E-16	2.122038E-17
6.300000E+03	2.532249E-16	2.180548E-17
6.310000E+03	2.595948E-16	2.242342E-17
6.320000E+03	2.663115E-16	2.307460E-17
6.330000E+03	2.734095E-16	2.376228E-17
6.340000E+03	2.809087E-16	2.448848E-17
6.350000E+03	2.888120E-16	2.525376E-17
6.360000E+03	2.971558E-16	2.606160E-17
6.370000E+03	3.059579E-16	2.691391E-17
6.380000E+03	3.152144E-16	2.781067E-17
6.390000E+03	3.249535E-16	2.875471E-17
6.400000E+03	3.351585E-16	2.974491E-17
6.410000E+03	3.458432E-16	3.078285E-17
6.420000E+03	3.569919E-16	3.186743E-17
6.430000E+03	3.685536E-16	3.299446E-17
6.440000E+03	3.805051E-16	3.416213E-17
6.450000E+03	3.927860E-16	3.536527E-17
6.460000E+03	4.052928E-16	3.659478E-17
6.470000E+03	4.179508E-16	3.784401E-17
6.480000E+03	4.306178E-16	3.910015E-17
6.490000E+03	4.432109E-16	4.035562E-17
6.500000E+03	4.555032E-16	4.158962E-17
6.510000E+03	4.674137E-16	4.279449E-17
6.520000E+03	4.787149E-16	4.394902E-17
6.530000E+03	4.892331E-16	4.503673E-17
6.540000E+03	4.986783E-16	4.603025E-17
6.550000E+03	5.067578E-16	4.690167E-17
6.560000E+03	5.131334E-16	4.761857E-17
6.570000E+03	5.174652E-16	4.814805E-17
6.580000E+03	5.195295E-16	4.846771E-17
6.590000E+03	5.191462E-16	4.855903E-17
6.600000E+03	5.161898E-16	4.840845E-17
6.610000E+03	5.106881E-16	4.801669E-17
6.620000E+03	5.027278E-16	4.739007E-17
6.630000E+03	4.924485E-16	4.654002E-17
6.640000E+03	4.801207E-16	4.549052E-17
6.650000E+03	4.660380E-16	4.426800E-17
6.660000E+03	4.505029E-16	4.290003E-17
6.670000E+03	4.338902E-16	4.142139E-17
6.680000E+03	4.165206E-16	3.986204E-17
6.690000E+03	3.987746E-16	3.825799E-17
6.700000E+03	3.809062E-16	3.663345E-17
6.710000E+03	3.631856E-16	3.501442E-17
6.720000E+03	3.458841E-16	3.342728E-17
6.730000E+03	3.291446E-16	3.188618E-17
6.740000E+03	3.131142E-16	3.040588E-17
6.750000E+03	2.979373E-16	2.900095E-17
6.760000E+03	2.836492E-16	2.767547E-17
6.770000E+03	2.702948E-16	2.643448E-17
6.780000E+03	2.579248E-16	2.528363E-17
6.790000E+03	2.465055E-16	2.422031E-17
6.800000E+03	2.360353E-16	2.324505E-17
6.810000E+03	2.264716E-16	2.235432E-17
6.820000E+03	2.177917E-16	2.154651E-17
6.830000E+03	2.099532E-16	2.081803E-17
6.840000E+03	2.029106E-16	2.016495E-17
6.850000E+03	1.966051E-16	1.958196E-17
6.860000E+03	1.910029E-16	1.906620E-17
6.870000E+03	1.860585E-16	1.861360E-17
6.880000E+03	1.817169E-16	1.821909E-17
6.890000E+03	1.779483E-16	1.788009E-17
6.900000E+03	1.747136E-16	1.759304E-17
6.910000E+03	1.719659E-16	1.735356E-17
6.920000E+03	1.696924E-16	1.716069E-17
6.930000E+03	1.678409E-16	1.700946E-17
6.940000E+03	1.663828E-16	1.689721E-17
6.950000E+03	1.653115E-16	1.682356E-17
6.960000E+03	1.645820E-16	1.678416E-17
6.970000E+03	1.641717E-16	1.677692E-17
6.980000E+03	1.640792E-16	1.680187E-17
6.990000E+03	1.642648E-16	1.685519E-17
7.000000E+03	1.647203E-16	1.693617E-17
7.010000E+03	1.654286E-16	1.704323E-17
7.020000E+03	1.663636E-16	1.717384E-17
7.030000E+03	1.675307E-16	1.732867E-17
7.040000E+03	1.688955E-16	1.750432E-17
7.050000E+03	1.704448E-16	1.769952E-17
7.060000E+03	1.721868E-16	1.791524E-17
7.070000E+03	1.740890E-16	1.814820E-17
7.080000E+03	1.761504E-16	1.839839E-17
7.090000E+03	1.783491E-16	1.866361E-17
7.100000E+03	1.806963E-16	1.894511E-17
7.110000E+03	1.831593E-16	1.923953E-17
7.120000E+03	1.857378E-16	1.954692E-17
7.130000E+03	1.884090E-16	1.986492E-17
7.140000E+03	1.911835E-16	2.019470E-17
7.150000E+03	1.940245E-16	2.053241E-17
7.160000E+03	1.969289E-16	2.087778E-17
7.170000E+03	1.998679E-16	2.122775E-17
7.180000E+03	2.028476E-16	2.158301E-17
7.190000E+03	2.058227E-16	2.193872E-17
7.200000E+03	2.087824E-16	2.229374E-17
7.210000E+03	2.117017E-16	2.264537E-17
7.220000E+03	2.145395E-16	2.298916E-17
7.230000E+03	2.172785E-16	2.332323E-17
7.240000E+03	2.198873E-16	2.364412E-17
7.250000E+03	2.223322E-16	2.394814E-17
7.260000E+03	2.245790E-16	2.423149E-17
7.270000E+03	2.265789E-16	2.448878E-17
7.280000E+03	2.283121E-16	2.471774E-17
7.290000E+03	2.297467E-16	2.491475E-17
7.300000E+03	2.308535E-16	2.507647E-17
7.310000E+03	2.316070E-16	2.519996E-17
7.320000E+03	2.319723E-16	2.528122E-17
7.330000E+03	2.319493E-16	2.532002E-17
7.340000E+03	2.315299E-16	2.531528E-17
7.350000E+03	2.307133E-16	2.526669E-17
7.360000E+03	2.294910E-16	2.517313E-17
7.370000E+03	2.279061E-16	2.503911E-17
7.380000E+03	2.259499E-16	2.486351E-17
7.390000E+03	2.236502E-16	2.464918E-17
7.400000E+03	2.210682E-16	2.440272E-17
7.410000E+03	2.182269E-16	2.412653E-17
7.420000E+03	2.151540E-16	2.382355E-17
7.430000E+03	2.119070E-16	2.350005E-17
7.440000E+03	2.085312E-16	2.316098E-17
7.450000E+03	2.050719E-16	2.281131E-17
7.460000E+03	2.015610E-16	2.245459E-17
7.470000E+03	1.980678E-16	2.209852E-17
7.480000E+03	1.946077E-16	2.174482E-17
7.490000E+03	1.912321E-16	2.139929E-17
7.500000E+03	1.879756E-16	2.106586E-17
7.510000E+03	1.848698E-16	2.074813E-17
7.520000E+03	1.819303E-16	2.044796E-17
7.530000E+03	1.791933E-16	2.016948E-17
7.540000E+03	1.766788E-16	1.991507E-17
7.550000E+03	1.744025E-16	1.968662E-17
7.560000E+03	1.723772E-16	1.948568E-17
7.570000E+03	1.706116E-16	1.931338E-17
7.580000E+03	1.690999E-16	1.916920E-17
7.590000E+03	1.678669E-16	1.905605E-17
7.600000E+03	1.668893E-16	1.897143E-17
7.610000E+03	1.661744E-16	1.891631E-17
7.620000E+03	1.657153E-16	1.889002E-17
7.630000E+03	1.654917E-16	1.889037E-17
7.640000E+03	1.655138E-16	1.891862E-17
7.650000E+03	1.657452E-16	1.897074E-17
7.660000E+03	1.661806E-16	1.904622E-17
7.670000E+03	1.668021E-16	1.914308E-17
7.680000E+03	1.675898E-16	1.925915E-17
7.690000E+03	1.685230E-16	1.939211E-17
7.700000E+03	1.695800E-16	1.953951E-17
7.710000E+03	1.707272E-16	1.969756E-17
7.720000E+03	1.719657E-16	1.986641E-17
7.730000E+03	1.732508E-16	2.004092E-17
7.740000E+03	1.745734E-16	2.022008E-17
7.750000E+03	1.759145E-16	2.040169E-17
7.760000E+03	1.772567E-16	2.058375E-17
