#wls	flux	fluxerr
1.594277E+03	3.355433E-01	1.367382E-02
1.634133E+03	3.510789E-01	1.406110E-02
1.673990E+03	3.661219E-01	1.440534E-02
1.713847E+03	3.804696E-01	1.469976E-02
1.753704E+03	3.939337E-01	1.493876E-02
1.793561E+03	4.063589E-01	1.511860E-02
1.833418E+03	4.176481E-01	1.523819E-02
1.873275E+03	4.277955E-01	1.530008E-02
1.913132E+03	4.369209E-01	1.531130E-02
1.952989E+03	4.453010E-01	1.528401E-02
1.992846E+03	4.533814E-01	1.523532E-02
2.032703E+03	4.616513E-01	1.518256E-02
2.072560E+03	4.694604E-01	1.510507E-02
2.112416E+03	4.738651E-01	1.491187E-02
2.152273E+03	4.765938E-01	1.466390E-02
2.192130E+03	4.769588E-01	1.434453E-02
2.231987E+03	4.729288E-01	1.389954E-02
2.271844E+03	4.626372E-01	1.328481E-02
2.311701E+03	4.469124E-01	1.253642E-02
2.351558E+03	4.276607E-01	1.171737E-02
2.391415E+03	4.064801E-01	1.087715E-02
2.431272E+03	3.847618E-01	1.005547E-02
2.471129E+03	3.637057E-01	9.283544E-03
2.510986E+03	3.443836E-01	8.586382E-03
2.550842E+03	3.278873E-01	7.986992E-03
2.590699E+03	3.157626E-01	7.516497E-03
2.630556E+03	3.109629E-01	7.235070E-03
2.670413E+03	3.122288E-01	7.101339E-03
2.710270E+03	3.165663E-01	7.038620E-03
2.750127E+03	3.226574E-01	7.013109E-03
2.789984E+03	3.297729E-01	7.006299E-03
2.829841E+03	3.373782E-01	7.005244E-03
2.869698E+03	3.449835E-01	6.999006E-03
2.909555E+03	3.520990E-01	6.977639E-03
2.949412E+03	3.582214E-01	6.931930E-03
2.989269E+03	3.628399E-01	6.853537E-03
2.999233E+03	3.637000E-01	6.827961E-03
3.009197E+03	3.644269E-01	6.799788E-03
3.019161E+03	3.650130E-01	6.768928E-03
3.029125E+03	3.654505E-01	6.735286E-03
3.039090E+03	3.657320E-01	6.698780E-03
3.049054E+03	3.658513E-01	6.659355E-03
3.059018E+03	3.658006E-01	6.616930E-03
3.068982E+03	3.655747E-01	6.571472E-03
3.078947E+03	3.651666E-01	6.522919E-03
3.088911E+03	3.645707E-01	6.471241E-03
3.098875E+03	3.637821E-01	6.416418E-03
3.108839E+03	3.627952E-01	6.358423E-03
3.118803E+03	3.616062E-01	6.297264E-03
3.128768E+03	3.602117E-01	6.232955E-03
3.138732E+03	3.586076E-01	6.165498E-03
3.148696E+03	3.567910E-01	6.094924E-03
3.158660E+03	3.547601E-01	6.021275E-03
3.168625E+03	3.525137E-01	5.944613E-03
3.178589E+03	3.500516E-01	5.865007E-03
3.188553E+03	3.473733E-01	5.782530E-03
3.198517E+03	3.444801E-01	5.697277E-03
3.208482E+03	3.413729E-01	5.609340E-03
3.218446E+03	3.380544E-01	5.518837E-03
3.228410E+03	3.345270E-01	5.425880E-03
3.238374E+03	3.307958E-01	5.330622E-03
3.248338E+03	3.268636E-01	5.233177E-03
3.258303E+03	3.227371E-01	5.133718E-03
3.268267E+03	3.184222E-01	5.032401E-03
3.278231E+03	3.139248E-01	4.929380E-03
3.288195E+03	3.092516E-01	4.824816E-03
3.298160E+03	3.044124E-01	4.718911E-03
3.308124E+03	2.994142E-01	4.611827E-03
3.318088E+03	2.942664E-01	4.503749E-03
3.328052E+03	2.889794E-01	4.394875E-03
3.338017E+03	2.835642E-01	4.285410E-03
3.347981E+03	2.780318E-01	4.175550E-03
3.357945E+03	2.723974E-01	4.065545E-03
3.367909E+03	2.666747E-01	3.955620E-03
3.377873E+03	2.608834E-01	3.846078E-03
3.387838E+03	2.550449E-01	3.737241E-03
3.397802E+03	2.491876E-01	3.629520E-03
3.407766E+03	2.433492E-01	3.523441E-03
3.417730E+03	2.375823E-01	3.419715E-03
3.427695E+03	2.319682E-01	3.319453E-03
3.437659E+03	2.266415E-01	3.224490E-03
3.447623E+03	2.218291E-01	3.137937E-03
3.457587E+03	2.178885E-01	3.064661E-03
3.467551E+03	2.150791E-01	3.008055E-03
3.477516E+03	2.131516E-01	2.964359E-03
3.487480E+03	2.117404E-01	2.928290E-03
3.497444E+03	2.106318E-01	2.896771E-03
3.507408E+03	2.097223E-01	2.868301E-03
3.517373E+03	2.089621E-01	2.842142E-03
3.527337E+03	2.083237E-01	2.817871E-03
3.537301E+03	2.077731E-01	2.794992E-03
3.547265E+03	2.072439E-01	2.772579E-03
3.557230E+03	2.066010E-01	2.748811E-03
3.567194E+03	2.055870E-01	2.720289E-03
3.577158E+03	2.038197E-01	2.682045E-03
3.587122E+03	2.011712E-01	2.632554E-03
3.597086E+03	1.980355E-01	2.577118E-03
3.607051E+03	1.947825E-01	2.520613E-03
3.617015E+03	1.916236E-01	2.465769E-03
3.626979E+03	1.886610E-01	2.413862E-03
3.636943E+03	1.859381E-01	2.365387E-03
3.646908E+03	1.834682E-01	2.320449E-03
3.656872E+03	1.812491E-01	2.278953E-03
3.666836E+03	1.792704E-01	2.240705E-03
3.676800E+03	1.775180E-01	2.205466E-03
3.686765E+03	1.759766E-01	2.172988E-03
3.696729E+03	1.746305E-01	2.143024E-03
3.706693E+03	1.734635E-01	2.115322E-03
3.716657E+03	1.724614E-01	2.089662E-03
3.726621E+03	1.716076E-01	2.065799E-03
3.736586E+03	1.708887E-01	2.043531E-03
3.746550E+03	1.702905E-01	2.022653E-03
3.756514E+03	1.697981E-01	2.002950E-03
3.766478E+03	1.693989E-01	1.984247E-03
3.776443E+03	1.690794E-01	1.966356E-03
3.786407E+03	1.688258E-01	1.949094E-03
3.796371E+03	1.686237E-01	1.932274E-03
3.806335E+03	1.684602E-01	1.915731E-03
3.816299E+03	1.683199E-01	1.899280E-03
3.826264E+03	1.681885E-01	1.882749E-03
3.836228E+03	1.680504E-01	1.865960E-03
3.846192E+03	1.678899E-01	1.848741E-03
3.856156E+03	1.676897E-01	1.830906E-03
3.866121E+03	1.674332E-01	1.812287E-03
3.876085E+03	1.671037E-01	1.792721E-03
3.886049E+03	1.666844E-01	1.772051E-03
3.896013E+03	1.661611E-01	1.750156E-03
3.905978E+03	1.655229E-01	1.726954E-03
3.915942E+03	1.647694E-01	1.702482E-03
3.925906E+03	1.639164E-01	1.676939E-03
3.935870E+03	1.629942E-01	1.650671E-03
3.945834E+03	1.620482E-01	1.624160E-03
3.955799E+03	1.611272E-01	1.597905E-03
3.965763E+03	1.602764E-01	1.572350E-03
3.975727E+03	1.595361E-01	1.547873E-03
3.985691E+03	1.589390E-01	1.524760E-03
3.995656E+03	1.585076E-01	1.503186E-03
4.005620E+03	1.582533E-01	1.483214E-03
4.015584E+03	1.581757E-01	1.464791E-03
4.025548E+03	1.582620E-01	1.447749E-03
4.035513E+03	1.584901E-01	1.431844E-03
4.045477E+03	1.588338E-01	1.416806E-03
4.055441E+03	1.592651E-01	1.402360E-03
4.065405E+03	1.597464E-01	1.388161E-03
4.075369E+03	1.602263E-01	1.373767E-03
4.085334E+03	1.606312E-01	1.358569E-03
4.095298E+03	1.608799E-01	1.341934E-03
4.105262E+03	1.608989E-01	1.323331E-03
4.115226E+03	1.606376E-01	1.302448E-03
4.125191E+03	1.600774E-01	1.279255E-03
4.135155E+03	1.592396E-01	1.254048E-03
4.145119E+03	1.581820E-01	1.227393E-03
4.155083E+03	1.569801E-01	1.199967E-03
4.165047E+03	1.557108E-01	1.172424E-03
4.175012E+03	1.544314E-01	1.145235E-03
4.184976E+03	1.531815E-01	1.118717E-03
4.194940E+03	1.519809E-01	1.093029E-03
4.204904E+03	1.508386E-01	1.068243E-03
4.214869E+03	1.497557E-01	1.044374E-03
4.224833E+03	1.487331E-01	1.021438E-03
4.234797E+03	1.477788E-01	9.994980E-04
4.244761E+03	1.469096E-01	9.786727E-04
4.254726E+03	1.461550E-01	9.591598E-04
4.264690E+03	1.455492E-01	9.411785E-04
4.274654E+03	1.451288E-01	9.249503E-04
4.284618E+03	1.449075E-01	9.105445E-04
4.294582E+03	1.448633E-01	8.978083E-04
4.304547E+03	1.449132E-01	8.862247E-04
4.314511E+03	1.448945E-01	8.748032E-04
4.324475E+03	1.445969E-01	8.622960E-04
4.334439E+03	1.438450E-01	8.477189E-04
4.344404E+03	1.426377E-01	8.311428E-04
4.354368E+03	1.412122E-01	8.140037E-04
4.364332E+03	1.398705E-01	7.980415E-04
4.374296E+03	1.383651E-01	7.818196E-04
4.384261E+03	1.369375E-01	7.666950E-04
4.394225E+03	1.360277E-01	7.550771E-04
4.404189E+03	1.353017E-01	7.450381E-04
4.414153E+03	1.344527E-01	7.348668E-04
4.424117E+03	1.334193E-01	7.242330E-04
4.434082E+03	1.322813E-01	7.135780E-04
4.444046E+03	1.311388E-01	7.034384E-04
4.454010E+03	1.300579E-01	6.941577E-04
4.463974E+03	1.290628E-01	6.858531E-04
4.473939E+03	1.281448E-01	6.784674E-04
4.483903E+03	1.272754E-01	6.718428E-04
4.493867E+03	1.264177E-01	6.657811E-04
4.503831E+03	1.255372E-01	6.601008E-04
4.513795E+03	1.246088E-01	6.546711E-04
4.523760E+03	1.236169E-01	6.494105E-04
4.533724E+03	1.225566E-01	6.442937E-04
4.543688E+03	1.214379E-01	6.393719E-04
4.553652E+03	1.202777E-01	6.347311E-04
4.563617E+03	1.190991E-01	6.304894E-04
4.573581E+03	1.179241E-01	6.267585E-04
4.583545E+03	1.167584E-01	6.235646E-04
4.593509E+03	1.155952E-01	6.208658E-04
4.603474E+03	1.144213E-01	6.185844E-04
4.613438E+03	1.132256E-01	6.166376E-04
4.623402E+03	1.120016E-01	6.149357E-04
4.633366E+03	1.107252E-01	6.132823E-04
4.643330E+03	1.093268E-01	6.112230E-04
4.653295E+03	1.076950E-01	6.080542E-04
4.663259E+03	1.057360E-01	6.031446E-04
4.673223E+03	1.034636E-01	5.964609E-04
4.683187E+03	1.010627E-01	5.889707E-04
4.693152E+03	9.885754E-02	5.825086E-04
4.703116E+03	9.694596E-02	5.776511E-04
4.713080E+03	9.526634E-02	5.740453E-04
4.723044E+03	9.410645E-02	5.734563E-04
4.733008E+03	9.327403E-02	5.747744E-04
4.742973E+03	9.258544E-02	5.768952E-04
4.752937E+03	9.200256E-02	5.795827E-04
4.762901E+03	9.155771E-02	5.830415E-04
4.772865E+03	9.127856E-02	5.874565E-04
4.782830E+03	9.116464E-02	5.928383E-04
4.792794E+03	9.119634E-02	5.990725E-04
4.802758E+03	9.134427E-02	6.059750E-04
4.812722E+03	9.157091E-02	6.132997E-04
4.822687E+03	9.183073E-02	6.207377E-04
4.832651E+03	9.206661E-02	6.278897E-04
4.842615E+03	9.222100E-02	6.343410E-04
4.852579E+03	9.224313E-02	6.397121E-04
4.862543E+03	9.210406E-02	6.437667E-04
4.872508E+03	9.179575E-02	6.464127E-04
4.882472E+03	9.133989E-02	6.477701E-04
4.892436E+03	9.078021E-02	6.481238E-04
4.902400E+03	9.017147E-02	6.478489E-04
4.912365E+03	8.956173E-02	6.472842E-04
4.922329E+03	8.897996E-02	6.466390E-04
4.932293E+03	8.843996E-02	6.460173E-04
4.942257E+03	8.793879E-02	6.454021E-04
4.952222E+03	8.746915E-02	6.447446E-04
4.962186E+03	8.701796E-02	6.439520E-04
4.972150E+03	8.657551E-02	6.429554E-04
4.982114E+03	8.613690E-02	6.417214E-04
4.992078E+03	8.570275E-02	6.402581E-04
5.002043E+03	8.527724E-02	6.386003E-04
5.012007E+03	8.487018E-02	6.368263E-04
5.021971E+03	8.449129E-02	6.350145E-04
5.031935E+03	8.414631E-02	6.332140E-04
5.041900E+03	8.383880E-02	6.314576E-04
5.051864E+03	8.356817E-02	6.297469E-04
5.061828E+03	8.333096E-02	6.280619E-04
5.071792E+03	8.312571E-02	6.263975E-04
5.081756E+03	8.294455E-02	6.247005E-04
5.091721E+03	8.277745E-02	6.229015E-04
5.101685E+03	8.260629E-02	6.208709E-04
5.111649E+03	8.241211E-02	6.184740E-04
5.121613E+03	8.218363E-02	6.156353E-04
5.131578E+03	8.192087E-02	6.123651E-04
5.141542E+03	8.163198E-02	6.087355E-04
5.151506E+03	8.133011E-02	6.048559E-04
5.161470E+03	8.102219E-02	6.007896E-04
5.171435E+03	8.071217E-02	5.965771E-04
5.181399E+03	8.039419E-02	5.921875E-04
5.191363E+03	8.005608E-02	5.875442E-04
5.201327E+03	7.968034E-02	5.825339E-04
5.211291E+03	7.925243E-02	5.770671E-04
5.221256E+03	7.876433E-02	5.711044E-04
5.231220E+03	7.821454E-02	5.646547E-04
5.241184E+03	7.760862E-02	5.577789E-04
5.251148E+03	7.695779E-02	5.505776E-04
5.261113E+03	7.627370E-02	5.431538E-04
5.271077E+03	7.557081E-02	5.356285E-04
5.281041E+03	7.486189E-02	5.281092E-04
5.291005E+03	7.415358E-02	5.206583E-04
5.300970E+03	7.345190E-02	5.133331E-04
5.310934E+03	7.275385E-02	5.061270E-04
5.320898E+03	7.205361E-02	4.990139E-04
5.330862E+03	7.134403E-02	4.919592E-04
5.340826E+03	7.061744E-02	4.849248E-04
5.350791E+03	6.986855E-02	4.778893E-04
5.360755E+03	6.909995E-02	4.708847E-04
5.370719E+03	6.832319E-02	4.640026E-04
5.380683E+03	6.756645E-02	4.574452E-04
5.390648E+03	6.688130E-02	4.515691E-04
5.400612E+03	6.634595E-02	4.469060E-04
5.410576E+03	6.606246E-02	4.441432E-04
5.420540E+03	6.607263E-02	4.435610E-04
5.430504E+03	6.629956E-02	4.446385E-04
5.440469E+03	6.664378E-02	4.466952E-04
5.450433E+03	6.707961E-02	4.495469E-04
5.460397E+03	6.762314E-02	4.532906E-04
5.470361E+03	6.811447E-02	4.568437E-04
5.480326E+03	6.828516E-02	4.583919E-04
5.490290E+03	6.841196E-02	4.597755E-04
5.500254E+03	6.853369E-02	4.612402E-04
5.510218E+03	6.856585E-02	4.622017E-04
5.520183E+03	6.845860E-02	4.623056E-04
5.530147E+03	6.821413E-02	4.615468E-04
5.540111E+03	6.786132E-02	4.601005E-04
5.550075E+03	6.743466E-02	4.581818E-04
5.560039E+03	6.696052E-02	4.559533E-04
5.570004E+03	6.645576E-02	4.535144E-04
5.579968E+03	6.593018E-02	4.509183E-04
5.589932E+03	6.538119E-02	4.481349E-04
5.599896E+03	6.479558E-02	4.450619E-04
5.609861E+03	6.415402E-02	4.415549E-04
5.619825E+03	6.343955E-02	4.374861E-04
5.629789E+03	6.265641E-02	4.328746E-04
5.639753E+03	6.183460E-02	4.279192E-04
5.649718E+03	6.102292E-02	4.229516E-04
5.659682E+03	6.027017E-02	4.183069E-04
5.669646E+03	5.961729E-02	4.142678E-04
5.679610E+03	5.908188E-02	4.109563E-04
5.689574E+03	5.865577E-02	4.083156E-04
5.699539E+03	5.830723E-02	4.061242E-04
5.709503E+03	5.799621E-02	4.041022E-04
5.719467E+03	5.769825E-02	4.020782E-04
5.729431E+03	5.741806E-02	4.000844E-04
5.739396E+03	5.718714E-02	3.983400E-04
5.749360E+03	5.704637E-02	3.971295E-04
5.759324E+03	5.703823E-02	3.967481E-04
5.769288E+03	5.719030E-02	3.973853E-04
5.779252E+03	5.750770E-02	3.990737E-04
5.789217E+03	5.796729E-02	4.016487E-04
5.799181E+03	5.852714E-02	4.048161E-04
5.809145E+03	5.914336E-02	4.082698E-04
5.819109E+03	5.978134E-02	4.117704E-04
5.829074E+03	6.042102E-02	4.151812E-04
5.839038E+03	6.106026E-02	4.184905E-04
5.849002E+03	6.170712E-02	4.217574E-04
5.858966E+03	6.237438E-02	4.250738E-04
5.868931E+03	6.306508E-02	4.284655E-04
5.878895E+03	6.376342E-02	4.318313E-04
5.888859E+03	6.443649E-02	4.349575E-04
5.898823E+03	6.503401E-02	4.375175E-04
5.908787E+03	6.549657E-02	4.391297E-04
5.918752E+03	6.577029E-02	4.394566E-04
5.928716E+03	6.582380E-02	4.383165E-04
5.938680E+03	6.565309E-02	4.357129E-04
5.948644E+03	6.527892E-02	4.318142E-04
5.958609E+03	6.473766E-02	4.268893E-04
5.968573E+03	6.406312E-02	4.211870E-04
5.978537E+03	6.329193E-02	4.149707E-04
5.988501E+03	6.245651E-02	4.084730E-04
5.998466E+03	6.158953E-02	4.019244E-04
6.008430E+03	6.072014E-02	3.955302E-04
6.018394E+03	5.987645E-02	3.894861E-04
6.028358E+03	5.908038E-02	3.839467E-04
6.038322E+03	5.835237E-02	3.790558E-04
6.048287E+03	5.770399E-02	3.748999E-04
6.058251E+03	5.714305E-02	3.715419E-04
6.068215E+03	5.666980E-02	3.689964E-04
6.078179E+03	5.628152E-02	3.672601E-04
6.088144E+03	5.597109E-02	3.663019E-04
6.098108E+03	5.572017E-02	3.660178E-04
6.108072E+03	5.550207E-02	3.662476E-04
6.118036E+03	5.528447E-02	3.667909E-04
6.128000E+03	5.504781E-02	3.675211E-04
6.137965E+03	5.480733E-02	3.685245E-04
6.147929E+03	5.462076E-02	3.701738E-04
6.157893E+03	5.452145E-02	3.726879E-04
6.167857E+03	5.427767E-02	3.744666E-04
6.177822E+03	5.375932E-02	3.745564E-04
6.187786E+03	5.329636E-02	3.752009E-04
6.197750E+03	5.288327E-02	3.763505E-04
6.207714E+03	5.242714E-02	3.773270E-04
6.217679E+03	5.186908E-02	3.776699E-04
6.227643E+03	5.119925E-02	3.772598E-04
6.237607E+03	5.044730E-02	3.762668E-04
6.247571E+03	4.966299E-02	3.750234E-04
6.257535E+03	4.889469E-02	3.738702E-04
6.267500E+03	4.818122E-02	3.730936E-04
6.277464E+03	4.754510E-02	3.728687E-04
6.287428E+03	4.699164E-02	3.732450E-04
6.297392E+03	4.651183E-02	3.741606E-04
6.307357E+03	4.609092E-02	3.755046E-04
6.317321E+03	4.571764E-02	3.771900E-04
6.327285E+03	4.538472E-02	3.791598E-04
6.337249E+03	4.509257E-02	3.814197E-04
6.347214E+03	4.484194E-02	3.839793E-04
6.357178E+03	4.463061E-02	3.868234E-04
6.367142E+03	4.445512E-02	3.899257E-04
6.377106E+03	4.430714E-02	3.932153E-04
6.387070E+03	4.417771E-02	3.966130E-04
6.397035E+03	4.406010E-02	4.000565E-04
6.406999E+03	4.395169E-02	4.035185E-04
6.416963E+03	4.385629E-02	4.070312E-04
6.426927E+03	4.378322E-02	4.106797E-04
6.436892E+03	4.374187E-02	4.145542E-04
6.446856E+03	4.374302E-02	4.187614E-04
6.456820E+03	4.379325E-02	4.233720E-04
6.466784E+03	4.390127E-02	4.284793E-04
6.476748E+03	4.407334E-02	4.341557E-04
6.486713E+03	4.431628E-02	4.404807E-04
6.496677E+03	4.463692E-02	4.475355E-04
6.506641E+03	4.503755E-02	4.553573E-04
6.516605E+03	4.550971E-02	4.638733E-04
6.526570E+03	4.602798E-02	4.728328E-04
6.536534E+03	4.654418E-02	4.817407E-04
6.546498E+03	4.699534E-02	4.899325E-04
6.556462E+03	4.731776E-02	4.967179E-04
6.566427E+03	4.746366E-02	5.015583E-04
6.576391E+03	4.740959E-02	5.041629E-04
6.586355E+03	4.715922E-02	5.045282E-04
6.596319E+03	4.675078E-02	5.030270E-04
6.606283E+03	4.623621E-02	5.001929E-04
6.616248E+03	4.566716E-02	4.965709E-04
6.626212E+03	4.508479E-02	4.926044E-04
6.636176E+03	4.451335E-02	4.885604E-04
6.646140E+03	4.396593E-02	4.845882E-04
6.656105E+03	4.344126E-02	4.806802E-04
6.666069E+03	4.293834E-02	4.768314E-04
6.676033E+03	4.245331E-02	4.730047E-04
6.685997E+03	4.198831E-02	4.692290E-04
6.695961E+03	4.154940E-02	4.655774E-04
6.705926E+03	4.114077E-02	4.621027E-04
6.715890E+03	4.076546E-02	4.588441E-04
6.725854E+03	4.042008E-02	4.557687E-04
6.735818E+03	4.009992E-02	4.528274E-04
6.745783E+03	3.979390E-02	4.498989E-04
6.755747E+03	3.948985E-02	4.468483E-04
6.765711E+03	3.917267E-02	4.435072E-04
6.775675E+03	3.883105E-02	4.397500E-04
6.785640E+03	3.845662E-02	4.354848E-04
6.795604E+03	3.804687E-02	4.306868E-04
6.805568E+03	3.760651E-02	4.254138E-04
6.815532E+03	3.714728E-02	4.198035E-04
6.825496E+03	3.668592E-02	4.140503E-04
6.835461E+03	3.624449E-02	4.084078E-04
6.845425E+03	3.584379E-02	4.031136E-04
6.855389E+03	3.550197E-02	3.983730E-04
6.865353E+03	3.522958E-02	3.943035E-04
6.875318E+03	3.502783E-02	3.909160E-04
6.885282E+03	3.489335E-02	3.881687E-04
6.895246E+03	3.481138E-02	3.858928E-04
6.905210E+03	3.476617E-02	3.839096E-04
6.915175E+03	3.473821E-02	3.820014E-04
6.925139E+03	3.471319E-02	3.800103E-04
6.935103E+03	3.467872E-02	3.778021E-04
6.945067E+03	3.462870E-02	3.753138E-04
6.955031E+03	3.456207E-02	3.725384E-04
6.964996E+03	3.448428E-02	3.695396E-04
6.974960E+03	3.440006E-02	3.663720E-04
6.984924E+03	3.431689E-02	3.631188E-04
6.994888E+03	3.424162E-02	3.598545E-04
7.004853E+03	3.418061E-02	3.566466E-04
7.014817E+03	3.414065E-02	3.535652E-04
7.024781E+03	3.412764E-02	3.506688E-04
7.034745E+03	3.414299E-02	3.479685E-04
7.044709E+03	3.418214E-02	3.454135E-04
7.054674E+03	3.423577E-02	3.429078E-04
7.064638E+03	3.429011E-02	3.403139E-04
7.074602E+03	3.432898E-02	3.374759E-04
7.084566E+03	3.433852E-02	3.342677E-04
7.094531E+03	3.431343E-02	3.306509E-04
7.104495E+03	3.425641E-02	3.266668E-04
7.114459E+03	3.417886E-02	3.224383E-04
7.124423E+03	3.409171E-02	3.180799E-04
7.134388E+03	3.399816E-02	3.136309E-04
7.144352E+03	3.390136E-02	3.091292E-04
7.154316E+03	3.379888E-02	3.045617E-04
7.164280E+03	3.369109E-02	2.999418E-04
7.174244E+03	3.357766E-02	2.952770E-04
7.184209E+03	3.346029E-02	2.905932E-04
7.194173E+03	3.333879E-02	2.859001E-04
7.204137E+03	3.321316E-02	2.812095E-04
7.214101E+03	3.308318E-02	2.765322E-04
7.224066E+03	3.294635E-02	2.718605E-04
7.234030E+03	3.280090E-02	2.671949E-04
7.243994E+03	3.264696E-02	2.625521E-04
7.253958E+03	3.248441E-02	2.579475E-04
7.263923E+03	3.231777E-02	2.534336E-04
7.273887E+03	3.215330E-02	2.490748E-04
7.283851E+03	3.199943E-02	2.449505E-04
7.293815E+03	3.186555E-02	2.411451E-04
7.303779E+03	3.176042E-02	2.377359E-04
7.313744E+03	3.168981E-02	2.347763E-04
7.323708E+03	3.165600E-02	2.322939E-04
7.333672E+03	3.165626E-02	2.302811E-04
7.343636E+03	3.168128E-02	2.286851E-04
7.353601E+03	3.171818E-02	2.274311E-04
7.363565E+03	3.176001E-02	2.264898E-04
7.373529E+03	3.180386E-02	2.258619E-04
7.383493E+03	3.185280E-02	2.255903E-04
7.393457E+03	3.191078E-02	2.257235E-04
7.403422E+03	3.198288E-02	2.263172E-04
7.413386E+03	3.206775E-02	2.273810E-04
7.423350E+03	3.216207E-02	2.289096E-04
7.433314E+03	3.225891E-02	2.308707E-04
7.443279E+03	3.235301E-02	2.332348E-04
7.453243E+03	3.245064E-02	2.360447E-04
7.463207E+03	3.256218E-02	2.393716E-04
7.473171E+03	3.267180E-02	2.430938E-04
7.483136E+03	3.259543E-02	2.458138E-04
7.493100E+03	3.228648E-02	2.471022E-04
7.503064E+03	3.198550E-02	2.487262E-04
7.513028E+03	3.172775E-02	2.509429E-04
7.522992E+03	3.148396E-02	2.535103E-04
7.532957E+03	3.122395E-02	2.561638E-04
7.542921E+03	3.093043E-02	2.587288E-04
7.552885E+03	3.059974E-02	2.611351E-04
7.562849E+03	3.023742E-02	2.633892E-04
7.572814E+03	2.985648E-02	2.655674E-04
7.582778E+03	2.946933E-02	2.677506E-04
7.592742E+03	2.908962E-02	2.700412E-04
7.602706E+03	2.872733E-02	2.725191E-04
7.612671E+03	2.839350E-02	2.752840E-04
7.622635E+03	2.809456E-02	2.784016E-04
7.632599E+03	2.783579E-02	2.819327E-04
7.642563E+03	2.761807E-02	2.859003E-04
7.652527E+03	2.744120E-02	2.903179E-04
7.662492E+03	2.730121E-02	2.951601E-04
7.672456E+03	2.719291E-02	3.003863E-04
7.682420E+03	2.711107E-02	3.059513E-04
7.692384E+03	2.705006E-02	3.118017E-04
7.702349E+03	2.700441E-02	3.178815E-04
7.712313E+03	2.697083E-02	3.241564E-04
7.722277E+03	2.694453E-02	3.305708E-04
7.732241E+03	2.692164E-02	3.370764E-04
