#wls	flux	fluxerr
1.594277E+03	1.045844E-03	5.037917E-05
1.634133E+03	1.062536E-03	5.089270E-05
1.673990E+03	1.082473E-03	5.154415E-05
1.713847E+03	1.105715E-03	5.233303E-05
1.753704E+03	1.133388E-03	5.330890E-05
1.793561E+03	1.165206E-03	5.445364E-05
1.833418E+03	1.202625E-03	5.583033E-05
1.873275E+03	1.245103E-03	5.740774E-05
1.913132E+03	1.292893E-03	5.919156E-05
1.952989E+03	1.345371E-03	6.114700E-05
1.992846E+03	1.401680E-03	6.322926E-05
2.032703E+03	1.459947E-03	6.534917E-05
2.072560E+03	1.518224E-03	6.741652E-05
2.112416E+03	1.576051E-03	6.940948E-05
2.152273E+03	1.633902E-03	7.134766E-05
2.192130E+03	1.694736E-03	7.335737E-05
2.231987E+03	1.762130E-03	7.558698E-05
2.271844E+03	1.838530E-03	7.813079E-05
2.311701E+03	1.926930E-03	8.110185E-05
2.351558E+03	2.029804E-03	8.458608E-05
2.391415E+03	2.148482E-03	8.861728E-05
2.431272E+03	2.283375E-03	9.318862E-05
2.471129E+03	2.433974E-03	9.825460E-05
2.510986E+03	2.597059E-03	1.036614E-04
2.550842E+03	2.764416E-03	1.090633E-04
2.590699E+03	2.919966E-03	1.138228E-04
2.630556E+03	3.042816E-03	1.171475E-04
2.670413E+03	3.132188E-03	1.190516E-04
2.710270E+03	3.200961E-03	1.200648E-04
2.750127E+03	3.263423E-03	1.207445E-04
2.789984E+03	3.326413E-03	1.213481E-04
2.829841E+03	3.394624E-03	1.220415E-04
2.869698E+03	3.470566E-03	1.229034E-04
2.909555E+03	3.555377E-03	1.239590E-04
2.949412E+03	3.649845E-03	1.252184E-04
2.989269E+03	3.754004E-03	1.266639E-04
2.999233E+03	3.781200E-03	1.270401E-04
3.009197E+03	3.808892E-03	1.274229E-04
3.019161E+03	3.837039E-03	1.278106E-04
3.029125E+03	3.866139E-03	1.282195E-04
3.039090E+03	3.895594E-03	1.286294E-04
3.049054E+03	3.925353E-03	1.290384E-04
3.059018E+03	3.955363E-03	1.294445E-04
3.068982E+03	3.985569E-03	1.298459E-04
3.078947E+03	4.016443E-03	1.302576E-04
3.088911E+03	4.047913E-03	1.306770E-04
3.098875E+03	4.079382E-03	1.310846E-04
3.108839E+03	4.111300E-03	1.314948E-04
3.118803E+03	4.143067E-03	1.318881E-04
3.128768E+03	4.175122E-03	1.322785E-04
3.138732E+03	4.207370E-03	1.326628E-04
3.148696E+03	4.239714E-03	1.330378E-04
3.158660E+03	4.271552E-03	1.333847E-04
3.168625E+03	4.303775E-03	1.337312E-04
3.178589E+03	4.335272E-03	1.340428E-04
3.188553E+03	4.366909E-03	1.343464E-04
3.198517E+03	4.398058E-03	1.346227E-04
3.208482E+03	4.429057E-03	1.348822E-04
3.218446E+03	4.458798E-03	1.350912E-04
3.228410E+03	4.488079E-03	1.352744E-04
3.238374E+03	4.516720E-03	1.354266E-04
3.248338E+03	4.544072E-03	1.355286E-04
3.258303E+03	4.570410E-03	1.355892E-04
3.268267E+03	4.595529E-03	1.356028E-04
3.278231E+03	4.618770E-03	1.355505E-04
3.288195E+03	4.640372E-03	1.354403E-04
3.298160E+03	4.660550E-03	1.352791E-04
3.308124E+03	4.678207E-03	1.350359E-04
3.318088E+03	4.693995E-03	1.347306E-04
3.328052E+03	4.707271E-03	1.343458E-04
3.338017E+03	4.717846E-03	1.338774E-04
3.347981E+03	4.725960E-03	1.333333E-04
3.357945E+03	4.731071E-03	1.326997E-04
3.367909E+03	4.733486E-03	1.319865E-04
3.377873E+03	4.732777E-03	1.311832E-04
3.387838E+03	4.729759E-03	1.303139E-04
3.397802E+03	4.723784E-03	1.293620E-04
3.407766E+03	4.715462E-03	1.283456E-04
3.417730E+03	4.705481E-03	1.272845E-04
3.427695E+03	4.693579E-03	1.261725E-04
3.437659E+03	4.681036E-03	1.250449E-04
3.447623E+03	4.668189E-03	1.239109E-04
3.457587E+03	4.656167E-03	1.228005E-04
3.467551E+03	4.645504E-03	1.217274E-04
3.477516E+03	4.637460E-03	1.207236E-04
3.487480E+03	4.632968E-03	1.198120E-04
3.497444E+03	4.632644E-03	1.190066E-04
3.507408E+03	4.637974E-03	1.183433E-04
3.517373E+03	4.649157E-03	1.178241E-04
3.527337E+03	4.667516E-03	1.174793E-04
3.537301E+03	4.693429E-03	1.173146E-04
3.547265E+03	4.727552E-03	1.173423E-04
3.557230E+03	4.770558E-03	1.175748E-04
3.567194E+03	4.823488E-03	1.180328E-04
3.577158E+03	4.887253E-03	1.187331E-04
3.587122E+03	4.962969E-03	1.196970E-04
3.597086E+03	5.051699E-03	1.209433E-04
3.607051E+03	5.155249E-03	1.225082E-04
3.617015E+03	5.275274E-03	1.244226E-04
3.626979E+03	5.413743E-03	1.267236E-04
3.636943E+03	5.571700E-03	1.294257E-04
3.646908E+03	5.751107E-03	1.325633E-04
3.656872E+03	5.953018E-03	1.361490E-04
3.666836E+03	6.177704E-03	1.401765E-04
3.676800E+03	6.425068E-03	1.446311E-04
3.686765E+03	6.694857E-03	1.494948E-04
3.696729E+03	6.985067E-03	1.547107E-04
3.706693E+03	7.292786E-03	1.602035E-04
3.716657E+03	7.615253E-03	1.659034E-04
3.726621E+03	7.947787E-03	1.717008E-04
3.736586E+03	8.286704E-03	1.775112E-04
3.746550E+03	8.627766E-03	1.832408E-04
3.756514E+03	8.966939E-03	1.888032E-04
3.766478E+03	9.301600E-03	1.941446E-04
3.776443E+03	9.631030E-03	1.992525E-04
3.786407E+03	9.955985E-03	2.041450E-04
3.796371E+03	1.027921E-02	2.088803E-04
3.806335E+03	1.060497E-02	2.135451E-04
3.816299E+03	1.094031E-02	2.182787E-04
3.826264E+03	1.129190E-02	2.232072E-04
3.836228E+03	1.166809E-02	2.284854E-04
3.846192E+03	1.207673E-02	2.342519E-04
3.856156E+03	1.252522E-02	2.406309E-04
3.866121E+03	1.301816E-02	2.476875E-04
3.876085E+03	1.355919E-02	2.554659E-04
3.886049E+03	1.414927E-02	2.639570E-04
3.896013E+03	1.478542E-02	2.730789E-04
3.905978E+03	1.546143E-02	2.826924E-04
3.915942E+03	1.616952E-02	2.926348E-04
3.925906E+03	1.689804E-02	3.026797E-04
3.935870E+03	1.763414E-02	3.125883E-04
3.945834E+03	1.836386E-02	3.221122E-04
3.955799E+03	1.907537E-02	3.310498E-04
3.965763E+03	1.975633E-02	3.392001E-04
3.975727E+03	2.039888E-02	3.464476E-04
3.985691E+03	2.099574E-02	3.526917E-04
3.995656E+03	2.154332E-02	3.578994E-04
4.005620E+03	2.204083E-02	3.620859E-04
4.015584E+03	2.248788E-02	3.652734E-04
4.025548E+03	2.288593E-02	3.675143E-04
4.035513E+03	2.323476E-02	3.688338E-04
4.045477E+03	2.353550E-02	3.692772E-04
4.055441E+03	2.378789E-02	3.688685E-04
4.065405E+03	2.399090E-02	3.676197E-04
4.075369E+03	2.414237E-02	3.655261E-04
4.085334E+03	2.423979E-02	3.625797E-04
4.095298E+03	2.428244E-02	3.588006E-04
4.105262E+03	2.426857E-02	3.541940E-04
4.115226E+03	2.419717E-02	3.487770E-04
4.125191E+03	2.407102E-02	3.426217E-04
4.135155E+03	2.389364E-02	3.358076E-04
4.145119E+03	2.367181E-02	3.284573E-04
4.155083E+03	2.341426E-02	3.207147E-04
4.165047E+03	2.313450E-02	3.127824E-04
4.175012E+03	2.284664E-02	3.048608E-04
4.184976E+03	2.256798E-02	2.971824E-04
4.194940E+03	2.231577E-02	2.899670E-04
4.204904E+03	2.210701E-02	2.834193E-04
4.214869E+03	2.195817E-02	2.777256E-04
4.224833E+03	2.188248E-02	2.730209E-04
4.234797E+03	2.189039E-02	2.693973E-04
4.244761E+03	2.198780E-02	2.668853E-04
4.254726E+03	2.217809E-02	2.654818E-04
4.264690E+03	2.245939E-02	2.651204E-04
4.274654E+03	2.282554E-02	2.656871E-04
4.284618E+03	2.326837E-02	2.670496E-04
4.294582E+03	2.377514E-02	2.690300E-04
4.304547E+03	2.433176E-02	2.714447E-04
4.314511E+03	2.492103E-02	2.740856E-04
4.324475E+03	2.552555E-02	2.767539E-04
4.334439E+03	2.612684E-02	2.792507E-04
4.344404E+03	2.670604E-02	2.813847E-04
4.354368E+03	2.724556E-02	2.829892E-04
4.364332E+03	2.773243E-02	2.839557E-04
4.374296E+03	2.815891E-02	2.842351E-04
4.384261E+03	2.852875E-02	2.838971E-04
4.394225E+03	2.885689E-02	2.831180E-04
4.404189E+03	2.916540E-02	2.821343E-04
4.414153E+03	2.947953E-02	2.812008E-04
4.424117E+03	2.982650E-02	2.805768E-04
4.434082E+03	3.023178E-02	2.804920E-04
4.444046E+03	3.071908E-02	2.811478E-04
4.454010E+03	3.130813E-02	2.826993E-04
4.463974E+03	3.201174E-02	2.852324E-04
4.473939E+03	3.283801E-02	2.887859E-04
4.483903E+03	3.378601E-02	2.933183E-04
4.493867E+03	3.484816E-02	2.987345E-04
4.503831E+03	3.600850E-02	3.048737E-04
4.513795E+03	3.724347E-02	3.115209E-04
4.523760E+03	3.852210E-02	3.184113E-04
4.533724E+03	3.981095E-02	3.252732E-04
4.543688E+03	4.107219E-02	3.318130E-04
4.553652E+03	4.226852E-02	3.377548E-04
4.563617E+03	4.336360E-02	3.428426E-04
4.573581E+03	4.432594E-02	3.468684E-04
4.583545E+03	4.512994E-02	3.496779E-04
4.593509E+03	4.575426E-02	3.511537E-04
4.603474E+03	4.618723E-02	3.512546E-04
4.613438E+03	4.642194E-02	3.499743E-04
4.623402E+03	4.646147E-02	3.473786E-04
4.633366E+03	4.631414E-02	3.435669E-04
4.643330E+03	4.599678E-02	3.386947E-04
4.653295E+03	4.553170E-02	3.329502E-04
4.663259E+03	4.494775E-02	3.265605E-04
4.673223E+03	4.427801E-02	3.197750E-04
4.683187E+03	4.356257E-02	3.128852E-04
4.693152E+03	4.284093E-02	3.061705E-04
4.703116E+03	4.215608E-02	2.999292E-04
4.713080E+03	4.154471E-02	2.944093E-04
4.723044E+03	4.103912E-02	2.898254E-04
4.733008E+03	4.066382E-02	2.863343E-04
4.742973E+03	4.043758E-02	2.840488E-04
4.752937E+03	4.037038E-02	2.830215E-04
4.762901E+03	4.046131E-02	2.832309E-04
4.772865E+03	4.070186E-02	2.846057E-04
4.782830E+03	4.107127E-02	2.869919E-04
4.792794E+03	4.154115E-02	2.901843E-04
4.802758E+03	4.207630E-02	2.939322E-04
4.812722E+03	4.263542E-02	2.979430E-04
4.822687E+03	4.317632E-02	3.019175E-04
4.832651E+03	4.365784E-02	3.055629E-04
4.842615E+03	4.404388E-02	3.086200E-04
4.852579E+03	4.430536E-02	3.108766E-04
4.862543E+03	4.442288E-02	3.121868E-04
4.872508E+03	4.438702E-02	3.124726E-04
4.882472E+03	4.419793E-02	3.117224E-04
4.892436E+03	4.386450E-02	3.099858E-04
4.902400E+03	4.340067E-02	3.073481E-04
4.912365E+03	4.282364E-02	3.039189E-04
4.922329E+03	4.214960E-02	2.998011E-04
4.932293E+03	4.139399E-02	2.950941E-04
4.942257E+03	4.056747E-02	2.898645E-04
4.952222E+03	3.967971E-02	2.841729E-04
4.962186E+03	3.873669E-02	2.780547E-04
4.972150E+03	3.774446E-02	2.715469E-04
4.982114E+03	3.671072E-02	2.646993E-04
4.992078E+03	3.564581E-02	2.575822E-04
5.002043E+03	3.456279E-02	2.502866E-04
5.012007E+03	3.347905E-02	2.429366E-04
5.021971E+03	3.241339E-02	2.356678E-04
5.031935E+03	3.138616E-02	2.286290E-04
5.041900E+03	3.041686E-02	2.219639E-04
5.051864E+03	2.952186E-02	2.157949E-04
5.061828E+03	2.871454E-02	2.102229E-04
5.071792E+03	2.800285E-02	2.053101E-04
5.081756E+03	2.739058E-02	2.010878E-04
5.091721E+03	2.687598E-02	1.975467E-04
5.101685E+03	2.645385E-02	1.946516E-04
5.111649E+03	2.611582E-02	1.923436E-04
5.121613E+03	2.585096E-02	1.905442E-04
5.131578E+03	2.564821E-02	1.891735E-04
5.141542E+03	2.549591E-02	1.881464E-04
5.151506E+03	2.538395E-02	1.873892E-04
5.161470E+03	2.530401E-02	1.868410E-04
5.171435E+03	2.524947E-02	1.864533E-04
5.181399E+03	2.521684E-02	1.862005E-04
5.191363E+03	2.520414E-02	1.860682E-04
5.201327E+03	2.521210E-02	1.860620E-04
5.211291E+03	2.524194E-02	1.861911E-04
5.221256E+03	2.529687E-02	1.864794E-04
5.231220E+03	2.538035E-02	1.869524E-04
5.241184E+03	2.549513E-02	1.876301E-04
5.251148E+03	2.564468E-02	1.885380E-04
5.261113E+03	2.583148E-02	1.896938E-04
5.271077E+03	2.605759E-02	1.911124E-04
5.281041E+03	2.632387E-02	1.927993E-04
5.291005E+03	2.663064E-02	1.947562E-04
5.300970E+03	2.697788E-02	1.969822E-04
5.310934E+03	2.736416E-02	1.994662E-04
5.320898E+03	2.778682E-02	2.021882E-04
5.330862E+03	2.824268E-02	2.051244E-04
5.340826E+03	2.872727E-02	2.082423E-04
5.350791E+03	2.923525E-02	2.115030E-04
5.360755E+03	2.976065E-02	2.148639E-04
5.370719E+03	3.029656E-02	2.182761E-04
5.380683E+03	3.083557E-02	2.216876E-04
5.390648E+03	3.137009E-02	2.250460E-04
5.400612E+03	3.189326E-02	2.283047E-04
5.410576E+03	3.239897E-02	2.314231E-04
5.420540E+03	3.288443E-02	2.343851E-04
5.430504E+03	3.335147E-02	2.372078E-04
5.440469E+03	3.380349E-02	2.399193E-04
5.450433E+03	3.424579E-02	2.425614E-04
5.460397E+03	3.468266E-02	2.451687E-04
5.470361E+03	3.511772E-02	2.477706E-04
5.480326E+03	3.555548E-02	2.504033E-04
5.490290E+03	3.600288E-02	2.531197E-04
5.500254E+03	3.646760E-02	2.559774E-04
5.510218E+03	3.695774E-02	2.590374E-04
5.520183E+03	3.747998E-02	2.623501E-04
5.530147E+03	3.804108E-02	2.659627E-04
5.540111E+03	3.864586E-02	2.699076E-04
5.550075E+03	3.929770E-02	2.742072E-04
5.560039E+03	3.999711E-02	2.788638E-04
5.570004E+03	4.074073E-02	2.838528E-04
5.579968E+03	4.152179E-02	2.891259E-04
5.589932E+03	4.233001E-02	2.946109E-04
5.599896E+03	4.315120E-02	3.002082E-04
5.609861E+03	4.396943E-02	3.058064E-04
5.619825E+03	4.476707E-02	3.112822E-04
5.629789E+03	4.552942E-02	3.165330E-04
5.639753E+03	4.624129E-02	3.214523E-04
5.649718E+03	4.689213E-02	3.259661E-04
5.659682E+03	4.747660E-02	3.300363E-04
5.669646E+03	4.799166E-02	3.336410E-04
5.679610E+03	4.844082E-02	3.368034E-04
5.689574E+03	4.883117E-02	3.395717E-04
5.699539E+03	4.917262E-02	3.420140E-04
5.709503E+03	4.947747E-02	3.442149E-04
5.719467E+03	4.975875E-02	3.462643E-04
5.729431E+03	5.002811E-02	3.482428E-04
5.739396E+03	5.029551E-02	3.502195E-04
5.749360E+03	5.056825E-02	3.522452E-04
5.759324E+03	5.084754E-02	3.543287E-04
5.769288E+03	5.113280E-02	3.564665E-04
5.779252E+03	5.141773E-02	3.586151E-04
5.789217E+03	5.169285E-02	3.607097E-04
5.799181E+03	5.194491E-02	3.626586E-04
5.809145E+03	5.216122E-02	3.643744E-04
5.819109E+03	5.232737E-02	3.657577E-04
5.829074E+03	5.243006E-02	3.667166E-04
5.839038E+03	5.245882E-02	3.671791E-04
5.849002E+03	5.240570E-02	3.670907E-04
5.858966E+03	5.226763E-02	3.664308E-04
5.868931E+03	5.204231E-02	3.651842E-04
5.878895E+03	5.173225E-02	3.633696E-04
5.888859E+03	5.134160E-02	3.610167E-04
5.898823E+03	5.087577E-02	3.581642E-04
5.908787E+03	5.033984E-02	3.548487E-04
5.918752E+03	4.974039E-02	3.511170E-04
5.928716E+03	4.908276E-02	3.470071E-04
5.938680E+03	4.837285E-02	3.425608E-04
5.948644E+03	4.761471E-02	3.378069E-04
5.958609E+03	4.681358E-02	3.327822E-04
5.968573E+03	4.597373E-02	3.275166E-04
5.978537E+03	4.509989E-02	3.220429E-04
5.988501E+03	4.419701E-02	3.163956E-04
5.998466E+03	4.326968E-02	3.106060E-04
6.008430E+03	4.232314E-02	3.047103E-04
6.018394E+03	4.136267E-02	2.987447E-04
6.028358E+03	4.039354E-02	2.927454E-04
6.038322E+03	3.942068E-02	2.867461E-04
6.048287E+03	3.844992E-02	2.807873E-04
6.058251E+03	3.748606E-02	2.749020E-04
6.068215E+03	3.653540E-02	2.691345E-04
6.078179E+03	3.560407E-02	2.635288E-04
6.088144E+03	3.469812E-02	2.581283E-04
6.098108E+03	3.382432E-02	2.529833E-04
6.108072E+03	3.298852E-02	2.481377E-04
6.118036E+03	3.219641E-02	2.436344E-04
6.128000E+03	3.145370E-02	2.395140E-04
6.137965E+03	3.076384E-02	2.358012E-04
6.147929E+03	3.013156E-02	2.325324E-04
6.157893E+03	2.955967E-02	2.297308E-04
6.167857E+03	2.904881E-02	2.274045E-04
6.177822E+03	2.859551E-02	2.255300E-04
6.187786E+03	2.819275E-02	2.240560E-04
6.197750E+03	2.783199E-02	2.229176E-04
6.207714E+03	2.750603E-02	2.220599E-04
6.217679E+03	2.720915E-02	2.214381E-04
6.227643E+03	2.693682E-02	2.210165E-04
6.237607E+03	2.668617E-02	2.207723E-04
6.247571E+03	2.645451E-02	2.206836E-04
6.257535E+03	2.623947E-02	2.207308E-04
6.267500E+03	2.603913E-02	2.208976E-04
6.277464E+03	2.585173E-02	2.211691E-04
6.287428E+03	2.567665E-02	2.215396E-04
6.297392E+03	2.551433E-02	2.220127E-04
6.307357E+03	2.536740E-02	2.226116E-04
6.317321E+03	2.524097E-02	2.233823E-04
6.327285E+03	2.514211E-02	2.243903E-04
6.337249E+03	2.508176E-02	2.257377E-04
6.347214E+03	2.507200E-02	2.275408E-04
6.357178E+03	2.512748E-02	2.299430E-04
6.367142E+03	2.526284E-02	2.330923E-04
6.377106E+03	2.549292E-02	2.371429E-04
6.387070E+03	2.583133E-02	2.422421E-04
6.397035E+03	2.628789E-02	2.485052E-04
6.406999E+03	2.686907E-02	2.560188E-04
6.416963E+03	2.757502E-02	2.648102E-04
6.426927E+03	2.840004E-02	2.748498E-04
6.436892E+03	2.933179E-02	2.860413E-04
6.446856E+03	3.034986E-02	2.982051E-04
6.456820E+03	3.142746E-02	3.110919E-04
6.466784E+03	3.253369E-02	3.244034E-04
6.476748E+03	3.363395E-02	3.377946E-04
6.486713E+03	3.469236E-02	3.508977E-04
6.496677E+03	3.567504E-02	3.633551E-04
6.506641E+03	3.655266E-02	3.748462E-04
6.516605E+03	3.729954E-02	3.850803E-04
6.526570E+03	3.789745E-02	3.938377E-04
6.536534E+03	3.833376E-02	4.009529E-04
6.546498E+03	3.860356E-02	4.063392E-04
6.556462E+03	3.870633E-02	4.099560E-04
6.566427E+03	3.864710E-02	4.118225E-04
6.576391E+03	3.843522E-02	4.120067E-04
6.586355E+03	3.808348E-02	4.106171E-04
6.596319E+03	3.760749E-02	4.077968E-04
6.606283E+03	3.702471E-02	4.037140E-04
6.616248E+03	3.635412E-02	3.985585E-04
6.626212E+03	3.561406E-02	3.925184E-04
6.636176E+03	3.482286E-02	3.857864E-04
6.646140E+03	3.399766E-02	3.785468E-04
6.656105E+03	3.315408E-02	3.709709E-04
6.666069E+03	3.230610E-02	3.632155E-04
6.676033E+03	3.146447E-02	3.554041E-04
6.685997E+03	3.063945E-02	3.476565E-04
6.695961E+03	2.983818E-02	3.400596E-04
6.705926E+03	2.906643E-02	3.326856E-04
6.715890E+03	2.832882E-02	3.255947E-04
6.725854E+03	2.762759E-02	3.188201E-04
6.735818E+03	2.696502E-02	3.123959E-04
6.745783E+03	2.634248E-02	3.063457E-04
6.755747E+03	2.575960E-02	3.006727E-04
6.765711E+03	2.521649E-02	2.953855E-04
6.775675E+03	2.471251E-02	2.904838E-04
6.785640E+03	2.424673E-02	2.859633E-04
6.795604E+03	2.381785E-02	2.818149E-04
6.805568E+03	2.342511E-02	2.780356E-04
6.815532E+03	2.306756E-02	2.746198E-04
6.825496E+03	2.274403E-02	2.715588E-04
6.835461E+03	2.245399E-02	2.688514E-04
6.845425E+03	2.219637E-02	2.664893E-04
6.855389E+03	2.197033E-02	2.644669E-04
6.865353E+03	2.177500E-02	2.627779E-04
6.875318E+03	2.160838E-02	2.614018E-04
6.885282E+03	2.146921E-02	2.603272E-04
6.895246E+03	2.135492E-02	2.595259E-04
6.905210E+03	2.126257E-02	2.589652E-04
6.915175E+03	2.118984E-02	2.586193E-04
6.925139E+03	2.113308E-02	2.584460E-04
6.935103E+03	2.108960E-02	2.584142E-04
6.945067E+03	2.105632E-02	2.584881E-04
6.955031E+03	2.103115E-02	2.586431E-04
6.964996E+03	2.101185E-02	2.588535E-04
6.974960E+03	2.099730E-02	2.591063E-04
6.984924E+03	2.098637E-02	2.593889E-04
6.994888E+03	2.097865E-02	2.596974E-04
7.004853E+03	2.097429E-02	2.600346E-04
7.014817E+03	2.097367E-02	2.604065E-04
7.024781E+03	2.097748E-02	2.608229E-04
7.034745E+03	2.098652E-02	2.612949E-04
7.044709E+03	2.100129E-02	2.618301E-04
7.054674E+03	2.102277E-02	2.624423E-04
7.064638E+03	2.105148E-02	2.631391E-04
7.074602E+03	2.108731E-02	2.639210E-04
7.084566E+03	2.113052E-02	2.647925E-04
7.094531E+03	2.118043E-02	2.657467E-04
7.104495E+03	2.123643E-02	2.667778E-04
7.114459E+03	2.129779E-02	2.678779E-04
7.124423E+03	2.136403E-02	2.690428E-04
7.134388E+03	2.143412E-02	2.702611E-04
7.144352E+03	2.150715E-02	2.715230E-04
7.154316E+03	2.158337E-02	2.728334E-04
7.164280E+03	2.166195E-02	2.741834E-04
7.174244E+03	2.174347E-02	2.755824E-04
7.184209E+03	2.182732E-02	2.770242E-04
7.194173E+03	2.191347E-02	2.785106E-04
7.204137E+03	2.200248E-02	2.800505E-04
7.214101E+03	2.209338E-02	2.816338E-04
7.224066E+03	2.218568E-02	2.832561E-04
7.234030E+03	2.227899E-02	2.849145E-04
7.243994E+03	2.237205E-02	2.865953E-04
7.253958E+03	2.246416E-02	2.882915E-04
7.263923E+03	2.255386E-02	2.899862E-04
7.273887E+03	2.263998E-02	2.916666E-04
7.283851E+03	2.272137E-02	2.933198E-04
7.293815E+03	2.279690E-02	2.949330E-04
7.303779E+03	2.286582E-02	2.964984E-04
7.313744E+03	2.292634E-02	2.979942E-04
7.323708E+03	2.297809E-02	2.994174E-04
7.333672E+03	2.301967E-02	3.007508E-04
7.343636E+03	2.304970E-02	3.019776E-04
7.353601E+03	2.306799E-02	3.030962E-04
7.363565E+03	2.307301E-02	3.040873E-04
7.373529E+03	2.306492E-02	3.049532E-04
7.383493E+03	2.304300E-02	3.056847E-04
7.393457E+03	2.300718E-02	3.062808E-04
7.403422E+03	2.295808E-02	3.067496E-04
7.413386E+03	2.289630E-02	3.070985E-04
7.423350E+03	2.282242E-02	3.073350E-04
7.433314E+03	2.273856E-02	3.074868E-04
7.443279E+03	2.264614E-02	3.075729E-04
7.453243E+03	2.254737E-02	3.076226E-04
7.463207E+03	2.244505E-02	3.076741E-04
7.473171E+03	2.234109E-02	3.077538E-04
7.483136E+03	2.223665E-02	3.078769E-04
7.493100E+03	2.213219E-02	3.080481E-04
7.503064E+03	2.202612E-02	3.082433E-04
7.513028E+03	2.191680E-02	3.084370E-04
7.522992E+03	2.180348E-02	3.086160E-04
7.532957E+03	2.168585E-02	3.087730E-04
7.542921E+03	2.156540E-02	3.089260E-04
7.552885E+03	2.144501E-02	3.091138E-04
7.562849E+03	2.132911E-02	3.093987E-04
7.572814E+03	2.122227E-02	3.098466E-04
7.582778E+03	2.113017E-02	3.105416E-04
7.592742E+03	2.105771E-02	3.115585E-04
7.602706E+03	2.100991E-02	3.129766E-04
7.612671E+03	2.099045E-02	3.148567E-04
7.622635E+03	2.100122E-02	3.172349E-04
7.632599E+03	2.104313E-02	3.201336E-04
7.642563E+03	2.111490E-02	3.235424E-04
7.652527E+03	2.121344E-02	3.274225E-04
7.662492E+03	2.133404E-02	3.317091E-04
7.672456E+03	2.147071E-02	3.363154E-04
7.682420E+03	2.161668E-02	3.411397E-04
7.692384E+03	2.176495E-02	3.460737E-04
7.702349E+03	2.190923E-02	3.510168E-04
7.712313E+03	2.204329E-02	3.558668E-04
7.722277E+03	2.216246E-02	3.605431E-04
7.732241E+03	2.226340E-02	3.649852E-04
