#wls	flux	fluxerr
1.594277E+03	1.112846E-04	8.358142E-06
1.634133E+03	1.165010E-04	8.710179E-06
1.673990E+03	1.220953E-04	9.085795E-06
1.713847E+03	1.280863E-04	9.485829E-06
1.753704E+03	1.344530E-04	9.908133E-06
1.793561E+03	1.412899E-04	1.035906E-05
1.833418E+03	1.485756E-04	1.083630E-05
1.873275E+03	1.563255E-04	1.134025E-05
1.913132E+03	1.645535E-04	1.187115E-05
1.952989E+03	1.732723E-04	1.242906E-05
1.992846E+03	1.825406E-04	1.301731E-05
2.032703E+03	1.922736E-04	1.362892E-05
2.072560E+03	2.025749E-04	1.427026E-05
2.112416E+03	2.133998E-04	1.493713E-05
2.152273E+03	2.247462E-04	1.562833E-05
2.192130E+03	2.366042E-04	1.634209E-05
2.231987E+03	2.490093E-04	1.707974E-05
2.271844E+03	2.618080E-04	1.782959E-05
2.311701E+03	2.750499E-04	1.859400E-05
2.351558E+03	2.885082E-04	1.935663E-05
2.391415E+03	3.021453E-04	2.011416E-05
2.431272E+03	3.156668E-04	2.084640E-05
2.471129E+03	3.286809E-04	2.152737E-05
2.510986E+03	3.408987E-04	2.213866E-05
2.550842E+03	3.516785E-04	2.263983E-05
2.590699E+03	3.605603E-04	2.300356E-05
2.630556E+03	3.671383E-04	2.320714E-05
2.670413E+03	3.712815E-04	2.324616E-05
2.710270E+03	3.733259E-04	2.314566E-05
2.750127E+03	3.736793E-04	2.293440E-05
2.789984E+03	3.727052E-04	2.263759E-05
2.829841E+03	3.708006E-04	2.228162E-05
2.869698E+03	3.684273E-04	2.189578E-05
2.909555E+03	3.657329E-04	2.148974E-05
2.949412E+03	3.630608E-04	2.108418E-05
2.989269E+03	3.606447E-04	2.069252E-05
2.999233E+03	3.600626E-04	2.059569E-05
3.009197E+03	3.595504E-04	2.050278E-05
3.019161E+03	3.590537E-04	2.041065E-05
3.029125E+03	3.585740E-04	2.031939E-05
3.039090E+03	3.581690E-04	2.023224E-05
3.049054E+03	3.578399E-04	2.014924E-05
3.059018E+03	3.574785E-04	2.006426E-05
3.068982E+03	3.571966E-04	1.998359E-05
3.078947E+03	3.569947E-04	1.990720E-05
3.088911E+03	3.568207E-04	1.983217E-05
3.098875E+03	3.567301E-04	1.976154E-05
3.108839E+03	3.566705E-04	1.969238E-05
3.118803E+03	3.566970E-04	1.962771E-05
3.128768E+03	3.567578E-04	1.956464E-05
3.138732E+03	3.569076E-04	1.950613E-05
3.148696E+03	3.571471E-04	1.945218E-05
3.158660E+03	3.574778E-04	1.940282E-05
3.168625E+03	3.579007E-04	1.935804E-05
3.178589E+03	3.583662E-04	1.931513E-05
3.188553E+03	3.589270E-04	1.927688E-05
3.198517E+03	3.595846E-04	1.924333E-05
3.208482E+03	3.603402E-04	1.921447E-05
3.218446E+03	3.612457E-04	1.919301E-05
3.228410E+03	3.622014E-04	1.917359E-05
3.238374E+03	3.632594E-04	1.915892E-05
3.248338E+03	3.644713E-04	1.915164E-05
3.258303E+03	3.657383E-04	1.914651E-05
3.268267E+03	3.671622E-04	1.914877E-05
3.278231E+03	3.687432E-04	1.915837E-05
3.288195E+03	3.703845E-04	1.917019E-05
3.298160E+03	3.722355E-04	1.919189E-05
3.308124E+03	3.741497E-04	1.921582E-05
3.318088E+03	3.762273E-04	1.924706E-05
3.328052E+03	3.784694E-04	1.928558E-05
3.338017E+03	3.808286E-04	1.932885E-05
3.347981E+03	3.833551E-04	1.937935E-05
3.357945E+03	3.860506E-04	1.943705E-05
3.367909E+03	3.889159E-04	1.950188E-05
3.377873E+03	3.919524E-04	1.957381E-05
3.387838E+03	3.951134E-04	1.965040E-05
3.397802E+03	3.984969E-04	1.973643E-05
3.407766E+03	4.020556E-04	1.982941E-05
3.417730E+03	4.057420E-04	1.992690E-05
3.427695E+03	4.097028E-04	2.003599E-05
3.437659E+03	4.137934E-04	2.014945E-05
3.447623E+03	4.181118E-04	2.027196E-05
3.457587E+03	4.226100E-04	2.040104E-05
3.467551E+03	4.273374E-04	2.053895E-05
3.477516E+03	4.322942E-04	2.068554E-05
3.487480E+03	4.374320E-04	2.083835E-05
3.497444E+03	4.427997E-04	2.099958E-05
3.507408E+03	4.483484E-04	2.116677E-05
3.517373E+03	4.541750E-04	2.134433E-05
3.527337E+03	4.602307E-04	2.152981E-05
3.537301E+03	4.665136E-04	2.172296E-05
3.547265E+03	4.730230E-04	2.192358E-05
3.557230E+03	4.797570E-04	2.213144E-05
3.567194E+03	4.867630E-04	2.234854E-05
3.577158E+03	4.939892E-04	2.257235E-05
3.587122E+03	5.014320E-04	2.280253E-05
3.597086E+03	5.091385E-04	2.304107E-05
3.607051E+03	5.171040E-04	2.328757E-05
3.617015E+03	5.253245E-04	2.354168E-05
3.626979E+03	5.337447E-04	2.380073E-05
3.636943E+03	5.424592E-04	2.406880E-05
3.646908E+03	5.514114E-04	2.434317E-05
3.656872E+03	5.605432E-04	2.462111E-05
3.666836E+03	5.699475E-04	2.490658E-05
3.676800E+03	5.796164E-04	2.519900E-05
3.686765E+03	5.894891E-04	2.549559E-05
3.696729E+03	5.995547E-04	2.579571E-05
3.706693E+03	6.098528E-04	2.610093E-05
3.716657E+03	6.203714E-04	2.641055E-05
3.726621E+03	6.310968E-04	2.672385E-05
3.736586E+03	6.420143E-04	2.704005E-05
3.746550E+03	6.531087E-04	2.735838E-05
3.756514E+03	6.643633E-04	2.767801E-05
3.766478E+03	6.757601E-04	2.799808E-05
3.776443E+03	6.873323E-04	2.831985E-05
3.786407E+03	6.990082E-04	2.864025E-05
3.796371E+03	7.108182E-04	2.896045E-05
3.806335E+03	7.227410E-04	2.927949E-05
3.816299E+03	7.347531E-04	2.959633E-05
3.826264E+03	7.467784E-04	2.990785E-05
3.836228E+03	7.588963E-04	3.021722E-05
3.846192E+03	7.710282E-04	3.052126E-05
3.856156E+03	7.832000E-04	3.082096E-05
3.866121E+03	7.953323E-04	3.111319E-05
3.876085E+03	8.073978E-04	3.139694E-05
3.886049E+03	8.194198E-04	3.167313E-05
3.896013E+03	8.314213E-04	3.194269E-05
3.905978E+03	8.432714E-04	3.220064E-05
3.915942E+03	8.549939E-04	3.244800E-05
3.925906E+03	8.666117E-04	3.268572E-05
3.935870E+03	8.780480E-04	3.291101E-05
3.945834E+03	8.892773E-04	3.312306E-05
3.955799E+03	9.003260E-04	3.332300E-05
3.965763E+03	9.111722E-04	3.351016E-05
3.975727E+03	9.217957E-04	3.368396E-05
3.985691E+03	9.321786E-04	3.384393E-05
3.995656E+03	9.423063E-04	3.398973E-05
4.005620E+03	9.521680E-04	3.412117E-05
4.015584E+03	9.618030E-04	3.423985E-05
4.025548E+03	9.711585E-04	3.434410E-05
4.035513E+03	9.802809E-04	3.443575E-05
4.045477E+03	9.891727E-04	3.451509E-05
4.055441E+03	9.977935E-04	3.458091E-05
4.065405E+03	1.006245E-03	3.463693E-05
4.075369E+03	1.014496E-03	3.468219E-05
4.085334E+03	1.022517E-03	3.471596E-05
4.095298E+03	1.030420E-03	3.474211E-05
4.105262E+03	1.038227E-03	3.476153E-05
4.115226E+03	1.045922E-03	3.477377E-05
4.125191E+03	1.053575E-03	3.478133E-05
4.135155E+03	1.061179E-03	3.478398E-05
4.145119E+03	1.068811E-03	3.478429E-05
4.155083E+03	1.076467E-03	3.478218E-05
4.165047E+03	1.084267E-03	3.478156E-05
4.175012E+03	1.092213E-03	3.478240E-05
4.184976E+03	1.100308E-03	3.478474E-05
4.194940E+03	1.108637E-03	3.479118E-05
4.204904E+03	1.117281E-03	3.480418E-05
4.214869E+03	1.126209E-03	3.482258E-05
4.224833E+03	1.135502E-03	3.484875E-05
4.234797E+03	1.145203E-03	3.488377E-05
4.244761E+03	1.155385E-03	3.492970E-05
4.254726E+03	1.166012E-03	3.498514E-05
4.264690E+03	1.177151E-03	3.505186E-05
4.274654E+03	1.188827E-03	3.513036E-05
4.284618E+03	1.201028E-03	3.521995E-05
4.294582E+03	1.213804E-03	3.532186E-05
4.304547E+03	1.227167E-03	3.543612E-05
4.314511E+03	1.241091E-03	3.556170E-05
4.324475E+03	1.255585E-03	3.569858E-05
4.334439E+03	1.270698E-03	3.584785E-05
4.344404E+03	1.286383E-03	3.600790E-05
4.354368E+03	1.302712E-03	3.618047E-05
4.364332E+03	1.319733E-03	3.636661E-05
4.374296E+03	1.337458E-03	3.656633E-05
4.384261E+03	1.355900E-03	3.677962E-05
4.394225E+03	1.375000E-03	3.700463E-05
4.404189E+03	1.394791E-03	3.724199E-05
4.414153E+03	1.415151E-03	3.748813E-05
4.424117E+03	1.436130E-03	3.774421E-05
4.434082E+03	1.457651E-03	3.800803E-05
4.444046E+03	1.479735E-03	3.827999E-05
4.454010E+03	1.502299E-03	3.855778E-05
4.463974E+03	1.525343E-03	3.884136E-05
4.473939E+03	1.548789E-03	3.912866E-05
4.483903E+03	1.572572E-03	3.941802E-05
4.493867E+03	1.596573E-03	3.970653E-05
4.503831E+03	1.620687E-03	3.999160E-05
4.513795E+03	1.644783E-03	4.027022E-05
4.523760E+03	1.668680E-03	4.053820E-05
4.533724E+03	1.692181E-03	4.079111E-05
4.543688E+03	1.715103E-03	4.102504E-05
4.553652E+03	1.737259E-03	4.123606E-05
4.563617E+03	1.758424E-03	4.141954E-05
4.573581E+03	1.778414E-03	4.157192E-05
4.583545E+03	1.796994E-03	4.168862E-05
4.593509E+03	1.814086E-03	4.176876E-05
4.603474E+03	1.829486E-03	4.180869E-05
4.613438E+03	1.843168E-03	4.180888E-05
4.623402E+03	1.855068E-03	4.176894E-05
4.633366E+03	1.865281E-03	4.169207E-05
4.643330E+03	1.873908E-03	4.158151E-05
4.653295E+03	1.881119E-03	4.144189E-05
4.663259E+03	1.887163E-03	4.127952E-05
4.673223E+03	1.892288E-03	4.110047E-05
4.683187E+03	1.896760E-03	4.091100E-05
4.693152E+03	1.900763E-03	4.071550E-05
4.703116E+03	1.904471E-03	4.051800E-05
4.713080E+03	1.908075E-03	4.032276E-05
4.723044E+03	1.911862E-03	4.013599E-05
4.733008E+03	1.916075E-03	3.996280E-05
4.742973E+03	1.920871E-03	3.980639E-05
4.752937E+03	1.926381E-03	3.966935E-05
4.762901E+03	1.932602E-03	3.955147E-05
4.772865E+03	1.939587E-03	3.945371E-05
4.782830E+03	1.947319E-03	3.937549E-05
4.792794E+03	1.955799E-03	3.931649E-05
4.802758E+03	1.964988E-03	3.927560E-05
4.812722E+03	1.974835E-03	3.925144E-05
4.822687E+03	1.985342E-03	3.924378E-05
4.832651E+03	1.996355E-03	3.924928E-05
4.842615E+03	2.007822E-03	3.926667E-05
4.852579E+03	2.019553E-03	3.929202E-05
4.862543E+03	2.031405E-03	3.932244E-05
4.872508E+03	2.043183E-03	3.935399E-05
4.882472E+03	2.054610E-03	3.938135E-05
4.892436E+03	2.065498E-03	3.940087E-05
4.902400E+03	2.075564E-03	3.940728E-05
4.912365E+03	2.084522E-03	3.939526E-05
4.922329E+03	2.092169E-03	3.936115E-05
4.932293E+03	2.098208E-03	3.929961E-05
4.942257E+03	2.102446E-03	3.920731E-05
4.952222E+03	2.104696E-03	3.908105E-05
4.962186E+03	2.104812E-03	3.891848E-05
4.972150E+03	2.102697E-03	3.871815E-05
4.982114E+03	2.098310E-03	3.847964E-05
4.992078E+03	2.091666E-03	3.820356E-05
5.002043E+03	2.082865E-03	3.789207E-05
5.012007E+03	2.072014E-03	3.754738E-05
5.021971E+03	2.059346E-03	3.717394E-05
5.031935E+03	2.045038E-03	3.677517E-05
5.041900E+03	2.029401E-03	3.635678E-05
5.051864E+03	2.012698E-03	3.592356E-05
5.061828E+03	1.995251E-03	3.548126E-05
5.071792E+03	1.977355E-03	3.503514E-05
5.081756E+03	1.959321E-03	3.459057E-05
5.091721E+03	1.941411E-03	3.415209E-05
5.101685E+03	1.923859E-03	3.372362E-05
5.111649E+03	1.906884E-03	3.330879E-05
5.121613E+03	1.890619E-03	3.290970E-05
5.131578E+03	1.875240E-03	3.252914E-05
5.141542E+03	1.860768E-03	3.216727E-05
5.151506E+03	1.847269E-03	3.182494E-05
5.161470E+03	1.834703E-03	3.150120E-05
5.171435E+03	1.823053E-03	3.119556E-05
5.181399E+03	1.812211E-03	3.090595E-05
5.191363E+03	1.802101E-03	3.063086E-05
5.201327E+03	1.792566E-03	3.036749E-05
5.211291E+03	1.783474E-03	3.011346E-05
5.221256E+03	1.774704E-03	2.986663E-05
5.231220E+03	1.766055E-03	2.962355E-05
5.241184E+03	1.757405E-03	2.938215E-05
5.251148E+03	1.748604E-03	2.913990E-05
5.261113E+03	1.739531E-03	2.889482E-05
5.271077E+03	1.730067E-03	2.864497E-05
5.281041E+03	1.720130E-03	2.838907E-05
5.291005E+03	1.709645E-03	2.812597E-05
5.300970E+03	1.698564E-03	2.785496E-05
5.310934E+03	1.686905E-03	2.757645E-05
5.320898E+03	1.674660E-03	2.729044E-05
5.330862E+03	1.661909E-03	2.699831E-05
5.340826E+03	1.648707E-03	2.670107E-05
5.350791E+03	1.635177E-03	2.640078E-05
5.360755E+03	1.621452E-03	2.609966E-05
5.370719E+03	1.607721E-03	2.580083E-05
5.380683E+03	1.594132E-03	2.550665E-05
5.390648E+03	1.580929E-03	2.522105E-05
5.400612E+03	1.568284E-03	2.494675E-05
5.410576E+03	1.556439E-03	2.468753E-05
5.420540E+03	1.545579E-03	2.444628E-05
5.430504E+03	1.535924E-03	2.422636E-05
5.440469E+03	1.527617E-03	2.402990E-05
5.450433E+03	1.520778E-03	2.385868E-05
5.460397E+03	1.515508E-03	2.371416E-05
5.470361E+03	1.511821E-03	2.359641E-05
5.480326E+03	1.509717E-03	2.350532E-05
5.490290E+03	1.509181E-03	2.344055E-05
5.500254E+03	1.510201E-03	2.340182E-05
5.510218E+03	1.512654E-03	2.338715E-05
5.520183E+03	1.516421E-03	2.339462E-05
5.530147E+03	1.521341E-03	2.342170E-05
5.540111E+03	1.527182E-03	2.346460E-05
5.550075E+03	1.533747E-03	2.352010E-05
5.560039E+03	1.540835E-03	2.358499E-05
5.570004E+03	1.548224E-03	2.365570E-05
5.579968E+03	1.555719E-03	2.372915E-05
5.589932E+03	1.563131E-03	2.380233E-05
5.599896E+03	1.570340E-03	2.387332E-05
5.609861E+03	1.577194E-03	2.393975E-05
5.619825E+03	1.583606E-03	2.400018E-05
5.629789E+03	1.589538E-03	2.405399E-05
5.639753E+03	1.594962E-03	2.410066E-05
5.649718E+03	1.599902E-03	2.414051E-05
5.659682E+03	1.604413E-03	2.417427E-05
5.669646E+03	1.608603E-03	2.420351E-05
5.679610E+03	1.612641E-03	2.423067E-05
5.689574E+03	1.616673E-03	2.425787E-05
5.699539E+03	1.620962E-03	2.428895E-05
5.709503E+03	1.625742E-03	2.432733E-05
5.719467E+03	1.631326E-03	2.437755E-05
5.729431E+03	1.638004E-03	2.444382E-05
5.739396E+03	1.646125E-03	2.453119E-05
5.749360E+03	1.656000E-03	2.464413E-05
5.759324E+03	1.667979E-03	2.478768E-05
5.769288E+03	1.682349E-03	2.496589E-05
5.779252E+03	1.699400E-03	2.518284E-05
5.789217E+03	1.719361E-03	2.544171E-05
5.799181E+03	1.742441E-03	2.574533E-05
5.809145E+03	1.768735E-03	2.609484E-05
5.819109E+03	1.798278E-03	2.649050E-05
5.829074E+03	1.831039E-03	2.693160E-05
5.839038E+03	1.866884E-03	2.741589E-05
5.849002E+03	1.905609E-03	2.794013E-05
5.858966E+03	1.946911E-03	2.849965E-05
5.868931E+03	1.990412E-03	2.908870E-05
5.878895E+03	2.035676E-03	2.970073E-05
5.888859E+03	2.082244E-03	3.032894E-05
5.898823E+03	2.129626E-03	3.096609E-05
5.908787E+03	2.177344E-03	3.160517E-05
5.918752E+03	2.224982E-03	3.224015E-05
5.928716E+03	2.272147E-03	3.286541E-05
5.938680E+03	2.318582E-03	3.347729E-05
5.948644E+03	2.364117E-03	3.407350E-05
5.958609E+03	2.408717E-03	3.465365E-05
5.968573E+03	2.452448E-03	3.521888E-05
5.978537E+03	2.495456E-03	3.577149E-05
5.988501E+03	2.538041E-03	3.631594E-05
5.998466E+03	2.580498E-03	3.685664E-05
6.008430E+03	2.623183E-03	3.739887E-05
6.018394E+03	2.666440E-03	3.794769E-05
6.028358E+03	2.710500E-03	3.850658E-05
6.038322E+03	2.755531E-03	3.907809E-05
6.048287E+03	2.801530E-03	3.966240E-05
6.058251E+03	2.848359E-03	4.025776E-05
6.068215E+03	2.895576E-03	4.085822E-05
6.078179E+03	2.942651E-03	4.145664E-05
6.088144E+03	2.988782E-03	4.204211E-05
6.098108E+03	3.033099E-03	4.260288E-05
6.108072E+03	3.074763E-03	4.312772E-05
6.118036E+03	3.112999E-03	4.360637E-05
6.128000E+03	3.147531E-03	4.403562E-05
6.137965E+03	3.178584E-03	4.441925E-05
6.147929E+03	3.207117E-03	4.477130E-05
6.157893E+03	3.234678E-03	4.511395E-05
6.167857E+03	3.262583E-03	4.546606E-05
6.177822E+03	3.290913E-03	4.582926E-05
6.187786E+03	3.318114E-03	4.618243E-05
6.197750E+03	3.341903E-03	4.649438E-05
6.207714E+03	3.360374E-03	4.673918E-05
6.217679E+03	3.372348E-03	4.690099E-05
6.227643E+03	3.377346E-03	4.697366E-05
6.237607E+03	3.375572E-03	4.696042E-05
6.247571E+03	3.367657E-03	4.687034E-05
6.257535E+03	3.354587E-03	4.671737E-05
6.267500E+03	3.337452E-03	4.651681E-05
6.277464E+03	3.317422E-03	4.628508E-05
6.287428E+03	3.295732E-03	4.603944E-05
6.297392E+03	3.273629E-03	4.579732E-05
6.307357E+03	3.252400E-03	4.557623E-05
6.317321E+03	3.233236E-03	4.539237E-05
6.327285E+03	3.217531E-03	4.526494E-05
6.337249E+03	3.206561E-03	4.521168E-05
6.347214E+03	3.201791E-03	4.525325E-05
6.357178E+03	3.204664E-03	4.541026E-05
6.367142E+03	3.216696E-03	4.570470E-05
6.377106E+03	3.239410E-03	4.615895E-05
6.387070E+03	3.274423E-03	4.679714E-05
6.397035E+03	3.323212E-03	4.764178E-05
6.406999E+03	3.387246E-03	4.871564E-05
6.416963E+03	3.467892E-03	5.004041E-05
6.426927E+03	3.566266E-03	5.163454E-05
6.436892E+03	3.683190E-03	5.351252E-05
6.446856E+03	3.819192E-03	5.568483E-05
6.456820E+03	3.974123E-03	5.815219E-05
6.466784E+03	4.147350E-03	6.090827E-05
6.476748E+03	4.337328E-03	6.393318E-05
6.486713E+03	4.541674E-03	6.719431E-05
6.496677E+03	4.757072E-03	7.064466E-05
6.506641E+03	4.979016E-03	7.421871E-05
6.516605E+03	5.202245E-03	7.783859E-05
6.526570E+03	5.420478E-03	8.140983E-05
6.536534E+03	5.626919E-03	8.482873E-05
6.546498E+03	5.814378E-03	8.798402E-05
6.556462E+03	5.976011E-03	9.076796E-05
6.566427E+03	6.105256E-03	9.307558E-05
6.576391E+03	6.196783E-03	9.481921E-05
6.586355E+03	6.246481E-03	9.592880E-05
6.596319E+03	6.252046E-03	9.636126E-05
6.606283E+03	6.212918E-03	9.610010E-05
6.616248E+03	6.130588E-03	9.516068E-05
6.626212E+03	6.008147E-03	9.358381E-05
6.636176E+03	5.850029E-03	9.143216E-05
6.646140E+03	5.662047E-03	8.879114E-05
6.656105E+03	5.450373E-03	8.575328E-05
6.666069E+03	5.221651E-03	8.241996E-05
6.676033E+03	4.982141E-03	7.888808E-05
6.685997E+03	4.737802E-03	7.525104E-05
6.695961E+03	4.493879E-03	7.159225E-05
6.705926E+03	4.254650E-03	6.798064E-05
6.715890E+03	4.023685E-03	6.447468E-05
6.725854E+03	3.803558E-03	6.111750E-05
6.735818E+03	3.596120E-03	5.794097E-05
6.745783E+03	3.402449E-03	5.496482E-05
6.755747E+03	3.223085E-03	5.220012E-05
6.765711E+03	3.058105E-03	4.965048E-05
6.775675E+03	2.907262E-03	4.731417E-05
6.785640E+03	2.769967E-03	4.518374E-05
6.795604E+03	2.645582E-03	4.325076E-05
6.805568E+03	2.533281E-03	4.150358E-05
6.815532E+03	2.432247E-03	3.993045E-05
6.825496E+03	2.341576E-03	3.851804E-05
6.835461E+03	2.260466E-03	3.725448E-05
6.845425E+03	2.188126E-03	3.612796E-05
6.855389E+03	2.123820E-03	3.512738E-05
6.865353E+03	2.066871E-03	3.424246E-05
6.875318E+03	2.016637E-03	3.346345E-05
6.885282E+03	1.972585E-03	3.278222E-05
6.895246E+03	1.934210E-03	3.219105E-05
6.905210E+03	1.901041E-03	3.168266E-05
6.915175E+03	1.872670E-03	3.125083E-05
6.925139E+03	1.848751E-03	3.089022E-05
6.935103E+03	1.828908E-03	3.059498E-05
6.945067E+03	1.812874E-03	3.036100E-05
6.955031E+03	1.800340E-03	3.018349E-05
6.964996E+03	1.791038E-03	3.005826E-05
6.974960E+03	1.784690E-03	2.998093E-05
6.984924E+03	1.781073E-03	2.994799E-05
6.994888E+03	1.779948E-03	2.995573E-05
7.004853E+03	1.781071E-03	3.000022E-05
7.014817E+03	1.784224E-03	3.007804E-05
7.024781E+03	1.789224E-03	3.018632E-05
7.034745E+03	1.795863E-03	3.032175E-05
7.044709E+03	1.803971E-03	3.048169E-05
7.054674E+03	1.813382E-03	3.066352E-05
7.064638E+03	1.824017E-03	3.086613E-05
7.074602E+03	1.835741E-03	3.108748E-05
7.084566E+03	1.848515E-03	3.132708E-05
7.094531E+03	1.862282E-03	3.158425E-05
7.104495E+03	1.877032E-03	3.185906E-05
7.114459E+03	1.892798E-03	3.215233E-05
7.124423E+03	1.909580E-03	3.246437E-05
7.134388E+03	1.927402E-03	3.279587E-05
7.144352E+03	1.946281E-03	3.314744E-05
7.154316E+03	1.966188E-03	3.351896E-05
7.164280E+03	1.987112E-03	3.391058E-05
7.174244E+03	2.008973E-03	3.432137E-05
7.184209E+03	2.031621E-03	3.474913E-05
7.194173E+03	2.054870E-03	3.519113E-05
7.204137E+03	2.078478E-03	3.564363E-05
7.214101E+03	2.102167E-03	3.610236E-05
7.224066E+03	2.125535E-03	3.656082E-05
7.234030E+03	2.148239E-03	3.701355E-05
7.243994E+03	2.169803E-03	3.745274E-05
7.253958E+03	2.189787E-03	3.787118E-05
7.263923E+03	2.207785E-03	3.826213E-05
7.273887E+03	2.223382E-03	3.861870E-05
7.283851E+03	2.236176E-03	3.893408E-05
7.293815E+03	2.245843E-03	3.920274E-05
7.303779E+03	2.252122E-03	3.942012E-05
7.313744E+03	2.254820E-03	3.958280E-05
7.323708E+03	2.253815E-03	3.968846E-05
7.333672E+03	2.249055E-03	3.973592E-05
7.343636E+03	2.240525E-03	3.972458E-05
7.353601E+03	2.228325E-03	3.965573E-05
7.363565E+03	2.212576E-03	3.953104E-05
7.373529E+03	2.193448E-03	3.935292E-05
7.383493E+03	2.171121E-03	3.912396E-05
7.393457E+03	2.145841E-03	3.884789E-05
7.403422E+03	2.117918E-03	3.852953E-05
7.413386E+03	2.087638E-03	3.817332E-05
7.423350E+03	2.055371E-03	3.778524E-05
7.433314E+03	2.021456E-03	3.737074E-05
7.443279E+03	1.986297E-03	3.693653E-05
7.453243E+03	1.950250E-03	3.648825E-05
7.463207E+03	1.913688E-03	3.603188E-05
7.473171E+03	1.877004E-03	3.557397E-05
7.483136E+03	1.840555E-03	3.512059E-05
7.493100E+03	1.804798E-03	3.467986E-05
7.503064E+03	1.770202E-03	3.426046E-05
7.513028E+03	1.737204E-03	3.387072E-05
7.522992E+03	1.706233E-03	3.351912E-05
7.532957E+03	1.677627E-03	3.321266E-05
7.542921E+03	1.651640E-03	3.295690E-05
7.552885E+03	1.628526E-03	3.275771E-05
7.562849E+03	1.608399E-03	3.261829E-05
7.572814E+03	1.591407E-03	3.254272E-05
7.582778E+03	1.577582E-03	3.253288E-05
7.592742E+03	1.566950E-03	3.259063E-05
7.602706E+03	1.559430E-03	3.271564E-05
7.612671E+03	1.554993E-03	3.290876E-05
7.622635E+03	1.553463E-03	3.316770E-05
7.632599E+03	1.554662E-03	3.349007E-05
7.642563E+03	1.558409E-03	3.387336E-05
7.652527E+03	1.564403E-03	3.431233E-05
7.662492E+03	1.572392E-03	3.480259E-05
7.672456E+03	1.582007E-03	3.533704E-05
7.682420E+03	1.592940E-03	3.590961E-05
7.692384E+03	1.604798E-03	3.651216E-05
7.702349E+03	1.617200E-03	3.713639E-05
7.712313E+03	1.629779E-03	3.777415E-05
7.722277E+03	1.642131E-03	3.841599E-05
7.732241E+03	1.653908E-03	3.905351E-05
