#wls	flux	fluxerr
1.594277E+03	2.515764E-05	3.549347E-06
1.634133E+03	2.586903E-05	3.629377E-06
1.673990E+03	2.660623E-05	3.711416E-06
1.713847E+03	2.738830E-05	3.797995E-06
1.753704E+03	2.819765E-05	3.886525E-06
1.793561E+03	2.904415E-05	3.978240E-06
1.833418E+03	2.991865E-05	4.071738E-06
1.873275E+03	3.084109E-05	4.169585E-06
1.913132E+03	3.180224E-05	4.270346E-06
1.952989E+03	3.279193E-05	4.372493E-06
1.992846E+03	3.383085E-05	4.478614E-06
2.032703E+03	3.489796E-05	4.585730E-06
2.072560E+03	3.601449E-05	4.696450E-06
2.112416E+03	3.715848E-05	4.807703E-06
2.152273E+03	3.835195E-05	4.922145E-06
2.192130E+03	3.957232E-05	5.036661E-06
2.231987E+03	4.084282E-05	5.154006E-06
2.271844E+03	4.215288E-05	5.272597E-06
2.311701E+03	4.350404E-05	5.392393E-06
2.351558E+03	4.491137E-05	5.515003E-06
2.391415E+03	4.635415E-05	5.637601E-06
2.431272E+03	4.786326E-05	5.763671E-06
2.471129E+03	4.944726E-05	5.893875E-06
2.510986E+03	5.109012E-05	6.025924E-06
2.550842E+03	5.284428E-05	6.165583E-06
2.590699E+03	5.468322E-05	6.309234E-06
2.630556E+03	5.664823E-05	6.461108E-06
2.670413E+03	5.875204E-05	6.621986E-06
2.710270E+03	6.099076E-05	6.790708E-06
2.750127E+03	6.338916E-05	6.969265E-06
2.789984E+03	6.595904E-05	7.158084E-06
2.829841E+03	6.869865E-05	7.356041E-06
2.869698E+03	7.164029E-05	7.565600E-06
2.909555E+03	7.480476E-05	7.787805E-06
2.949412E+03	7.819946E-05	8.022172E-06
2.989269E+03	8.188749E-05	8.273764E-06
2.999233E+03	8.285541E-05	8.339169E-06
3.009197E+03	8.384095E-05	8.405452E-06
3.019161E+03	8.484467E-05	8.472641E-06
3.029125E+03	8.588550E-05	8.542595E-06
3.039090E+03	8.692739E-05	8.611692E-06
3.049054E+03	8.800784E-05	8.683627E-06
3.059018E+03	8.909020E-05	8.754746E-06
3.068982E+03	9.021270E-05	8.828784E-06
3.078947E+03	9.135722E-05	8.903922E-06
3.088911E+03	9.252448E-05	8.980197E-06
3.098875E+03	9.371511E-05	9.057637E-06
3.108839E+03	9.494950E-05	9.138172E-06
3.118803E+03	9.618923E-05	9.218059E-06
3.128768E+03	9.747449E-05	9.301121E-06
3.138732E+03	9.876622E-05	9.383586E-06
3.148696E+03	1.001054E-04	9.469316E-06
3.158660E+03	1.014728E-04	9.556435E-06
3.168625E+03	1.028693E-04	9.644982E-06
3.178589E+03	1.043166E-04	9.736945E-06
3.188553E+03	1.057739E-04	9.828457E-06
3.198517E+03	1.072841E-04	9.923479E-06
3.208482E+03	1.088057E-04	1.001810E-05
3.218446E+03	1.103825E-04	1.011632E-05
3.228410E+03	1.119941E-04	1.021620E-05
3.238374E+03	1.136414E-04	1.031778E-05
3.248338E+03	1.153254E-04	1.042108E-05
3.258303E+03	1.170699E-04	1.052819E-05
3.268267E+03	1.188305E-04	1.063507E-05
3.278231E+03	1.206540E-04	1.074584E-05
3.288195E+03	1.225188E-04	1.085850E-05
3.298160E+03	1.244022E-04	1.097099E-05
3.308124E+03	1.263525E-04	1.108751E-05
3.318088E+03	1.283715E-04	1.120814E-05
3.328052E+03	1.304121E-04	1.132866E-05
3.338017E+03	1.324995E-04	1.145123E-05
3.347981E+03	1.346598E-04	1.157803E-05
3.357945E+03	1.368697E-04	1.170694E-05
3.367909E+03	1.391304E-04	1.183800E-05
3.377873E+03	1.414430E-04	1.197123E-05
3.387838E+03	1.438087E-04	1.210664E-05
3.397802E+03	1.462286E-04	1.224426E-05
3.407766E+03	1.487311E-04	1.238636E-05
3.417730E+03	1.512636E-04	1.252845E-05
3.427695E+03	1.538816E-04	1.267508E-05
3.437659E+03	1.565594E-04	1.282399E-05
3.447623E+03	1.592981E-04	1.297520E-05
3.457587E+03	1.620989E-04	1.312871E-05
3.467551E+03	1.649922E-04	1.328686E-05
3.477516E+03	1.679211E-04	1.344497E-05
3.487480E+03	1.709457E-04	1.360776E-05
3.497444E+03	1.740378E-04	1.377285E-05
3.507408E+03	1.771986E-04	1.394023E-05
3.517373E+03	1.804291E-04	1.410989E-05
3.527337E+03	1.837304E-04	1.428179E-05
3.537301E+03	1.871036E-04	1.445591E-05
3.547265E+03	1.905822E-04	1.463471E-05
3.557230E+03	1.941354E-04	1.481568E-05
3.567194E+03	1.977308E-04	1.499626E-05
3.577158E+03	2.014356E-04	1.518142E-05
3.587122E+03	2.052521E-04	1.537118E-05
3.597086E+03	2.091127E-04	1.556034E-05
3.607051E+03	2.130519E-04	1.575139E-05
3.617015E+03	2.171063E-04	1.594687E-05
3.626979E+03	2.212415E-04	1.614410E-05
3.636943E+03	2.254210E-04	1.634033E-05
3.646908E+03	2.297184E-04	1.654077E-05
3.656872E+03	2.341358E-04	1.674539E-05
3.666836E+03	2.385975E-04	1.694863E-05
3.676800E+03	2.431413E-04	1.715309E-05
3.686765E+03	2.478068E-04	1.736140E-05
3.696729E+03	2.525551E-04	1.757069E-05
3.706693E+03	2.573857E-04	1.778078E-05
3.716657E+03	2.622987E-04	1.799156E-05
3.726621E+03	2.672927E-04	1.820280E-05
3.736586E+03	2.723676E-04	1.841437E-05
3.746550E+03	2.775654E-04	1.862896E-05
3.756514E+03	2.828433E-04	1.884354E-05
3.766478E+03	2.881550E-04	1.905491E-05
3.776443E+03	2.935881E-04	1.926878E-05
3.786407E+03	2.990966E-04	1.948197E-05
3.796371E+03	3.047256E-04	1.969727E-05
3.806335E+03	3.103803E-04	1.990843E-05
3.816299E+03	3.161527E-04	2.012125E-05
3.826264E+03	3.219455E-04	2.032943E-05
3.836228E+03	3.278519E-04	2.053876E-05
3.846192E+03	3.338219E-04	2.074598E-05
3.856156E+03	3.398519E-04	2.095077E-05
3.866121E+03	3.459904E-04	2.115601E-05
3.876085E+03	3.521323E-04	2.135517E-05
3.886049E+03	3.583243E-04	2.155106E-05
3.896013E+03	3.646155E-04	2.174654E-05
3.905978E+03	3.709504E-04	2.193819E-05
3.915942E+03	3.773244E-04	2.212568E-05
3.925906E+03	3.837333E-04	2.230873E-05
3.935870E+03	3.901720E-04	2.248700E-05
3.945834E+03	3.966919E-04	2.266340E-05
3.955799E+03	4.031758E-04	2.283119E-05
3.965763E+03	4.097315E-04	2.299650E-05
3.975727E+03	4.162963E-04	2.315574E-05
3.985691E+03	4.228646E-04	2.330863E-05
3.995656E+03	4.294301E-04	2.345484E-05
4.005620E+03	4.359853E-04	2.359399E-05
4.015584E+03	4.425238E-04	2.372579E-05
4.025548E+03	4.490378E-04	2.384988E-05
4.035513E+03	4.555816E-04	2.396919E-05
4.045477E+03	4.620857E-04	2.408010E-05
4.055441E+03	4.685422E-04	2.418229E-05
4.065405E+03	4.748773E-04	2.427210E-05
4.075369E+03	4.812727E-04	2.435898E-05
4.085334E+03	4.875270E-04	2.443277E-05
4.095298E+03	4.936928E-04	2.449634E-05
4.105262E+03	4.997588E-04	2.454934E-05
4.115226E+03	5.057785E-04	2.459457E-05
4.125191E+03	5.116735E-04	2.462838E-05
4.135155E+03	5.173624E-04	2.464714E-05
4.145119E+03	5.229643E-04	2.465684E-05
4.155083E+03	5.283964E-04	2.465382E-05
4.165047E+03	5.336417E-04	2.463761E-05
4.175012E+03	5.387505E-04	2.461086E-05
4.184976E+03	5.435663E-04	2.456677E-05
4.194940E+03	5.481367E-04	2.450797E-05
4.204904E+03	5.525103E-04	2.443706E-05
4.214869E+03	5.565943E-04	2.435035E-05
4.224833E+03	5.602950E-04	2.424429E-05
4.234797E+03	5.637272E-04	2.412442E-05
4.244761E+03	5.667955E-04	2.398719E-05
4.254726E+03	5.694747E-04	2.383215E-05
4.264690E+03	5.717393E-04	2.365888E-05
4.274654E+03	5.736361E-04	2.346999E-05
4.284618E+03	5.750041E-04	2.325955E-05
4.294582E+03	5.758972E-04	2.303057E-05
4.304547E+03	5.763765E-04	2.278619E-05
4.314511E+03	5.763726E-04	2.252437E-05
4.324475E+03	5.758287E-04	2.224365E-05
4.334439E+03	5.749057E-04	2.195100E-05
4.344404E+03	5.735586E-04	2.164531E-05
4.354368E+03	5.718158E-04	2.132828E-05
4.364332E+03	5.697285E-04	2.100240E-05
4.374296E+03	5.673841E-04	2.067138E-05
4.384261E+03	5.649122E-04	2.034028E-05
4.394225E+03	5.625014E-04	2.001607E-05
4.404189E+03	5.604006E-04	1.970747E-05
4.414153E+03	5.589712E-04	1.942675E-05
4.424117E+03	5.584243E-04	1.918041E-05
4.434082E+03	5.592741E-04	1.898494E-05
4.444046E+03	5.618285E-04	1.884911E-05
4.454010E+03	5.666911E-04	1.879108E-05
4.463974E+03	5.742314E-04	1.882046E-05
4.473939E+03	5.850854E-04	1.895504E-05
4.483903E+03	5.996856E-04	1.920524E-05
4.493867E+03	6.184649E-04	1.958101E-05
4.503831E+03	6.416633E-04	2.008573E-05
4.513795E+03	6.695886E-04	2.072473E-05
4.523760E+03	7.021491E-04	2.149087E-05
4.533724E+03	7.390558E-04	2.237139E-05
4.543688E+03	7.797529E-04	2.334611E-05
4.553652E+03	8.234622E-04	2.438922E-05
4.563617E+03	8.692098E-04	2.547032E-05
4.573581E+03	9.158212E-04	2.655457E-05
4.583545E+03	9.619233E-04	2.760292E-05
4.593509E+03	1.006069E-03	2.857594E-05
4.603474E+03	1.046338E-03	2.942247E-05
4.613438E+03	1.081003E-03	3.009886E-05
4.623402E+03	1.108209E-03	3.055954E-05
4.633366E+03	1.126225E-03	3.076408E-05
4.643330E+03	1.133677E-03	3.068299E-05
4.653295E+03	1.129860E-03	3.030565E-05
4.663259E+03	1.114344E-03	2.962894E-05
4.673223E+03	1.087720E-03	2.867632E-05
4.683187E+03	1.051132E-03	2.748468E-05
4.693152E+03	1.006381E-03	2.610630E-05
4.703116E+03	9.559661E-04	2.460951E-05
4.713080E+03	9.025332E-04	2.306400E-05
4.723044E+03	8.491574E-04	2.154811E-05
4.733008E+03	7.986046E-04	2.013011E-05
4.742973E+03	7.532179E-04	1.886587E-05
4.752937E+03	7.148694E-04	1.779831E-05
4.762901E+03	6.846087E-04	1.694918E-05
4.772865E+03	6.631640E-04	1.633219E-05
4.782830E+03	6.508390E-04	1.595076E-05
4.792794E+03	6.476841E-04	1.580252E-05
4.802758E+03	6.535133E-04	1.587991E-05
4.812722E+03	6.679921E-04	1.617235E-05
4.822687E+03	6.906534E-04	1.666656E-05
4.832651E+03	7.207358E-04	1.734275E-05
4.842615E+03	7.574300E-04	1.818055E-05
4.852579E+03	7.994814E-04	1.914950E-05
4.862543E+03	8.454365E-04	2.021486E-05
4.872508E+03	8.934259E-04	2.133240E-05
4.882472E+03	9.414670E-04	2.245547E-05
4.892436E+03	9.870296E-04	2.352455E-05
4.902400E+03	1.027524E-03	2.447874E-05
4.912365E+03	1.061126E-03	2.527527E-05
4.922329E+03	1.086615E-03	2.588543E-05
4.932293E+03	1.104218E-03	2.631464E-05
4.942257E+03	1.115254E-03	2.659411E-05
4.952222E+03	1.122101E-03	2.678011E-05
4.962186E+03	1.127554E-03	2.693884E-05
4.972150E+03	1.133174E-03	2.710729E-05
4.982114E+03	1.139662E-03	2.730196E-05
4.992078E+03	1.146070E-03	2.749990E-05
5.002043E+03	1.150887E-03	2.766453E-05
5.012007E+03	1.152219E-03	2.774975E-05
5.021971E+03	1.148582E-03	2.771892E-05
5.031935E+03	1.138626E-03	2.753831E-05
5.041900E+03	1.122296E-03	2.720520E-05
5.051864E+03	1.099981E-03	2.672759E-05
5.061828E+03	1.073157E-03	2.613995E-05
5.071792E+03	1.043878E-03	2.549123E-05
5.081756E+03	1.014598E-03	2.484063E-05
5.091721E+03	9.879147E-04	2.425156E-05
5.101685E+03	9.663155E-04	2.378546E-05
5.111649E+03	9.522305E-04	2.350303E-05
5.121613E+03	9.470270E-04	2.343943E-05
5.131578E+03	9.514122E-04	2.361386E-05
5.141542E+03	9.652726E-04	2.402534E-05
5.151506E+03	9.878782E-04	2.465751E-05
5.161470E+03	1.017825E-03	2.547698E-05
5.171435E+03	1.053142E-03	2.643573E-05
5.181399E+03	1.091522E-03	2.747672E-05
5.191363E+03	1.130396E-03	2.853567E-05
5.201327E+03	1.167351E-03	2.955144E-05
5.211291E+03	1.200076E-03	3.046486E-05
5.221256E+03	1.226756E-03	3.122874E-05
5.231220E+03	1.246299E-03	3.181376E-05
5.241184E+03	1.258622E-03	3.221627E-05
5.251148E+03	1.264691E-03	3.245945E-05
5.261113E+03	1.266491E-03	3.259298E-05
5.271077E+03	1.265522E-03	3.265465E-05
5.281041E+03	1.263071E-03	3.267720E-05
5.291005E+03	1.259738E-03	3.267581E-05
5.300970E+03	1.255484E-03	3.264931E-05
5.310934E+03	1.250114E-03	3.259245E-05
5.320898E+03	1.242805E-03	3.248344E-05
5.330862E+03	1.233192E-03	3.231243E-05
5.340826E+03	1.221161E-03	3.207597E-05
5.350791E+03	1.206882E-03	3.177814E-05
5.360755E+03	1.190662E-03	3.142661E-05
5.370719E+03	1.172748E-03	3.102765E-05
5.380683E+03	1.153583E-03	3.059275E-05
5.390648E+03	1.133491E-03	3.013033E-05
5.400612E+03	1.112789E-03	2.964875E-05
5.410576E+03	1.091879E-03	2.915873E-05
5.420540E+03	1.071316E-03	2.867512E-05
5.430504E+03	1.052134E-03	2.822583E-05
5.440469E+03	1.035446E-03	2.784109E-05
5.450433E+03	1.022350E-03	2.755103E-05
5.460397E+03	1.013716E-03	2.737984E-05
5.470361E+03	1.010341E-03	2.734996E-05
5.480326E+03	1.012126E-03	2.745965E-05
5.490290E+03	1.018485E-03	2.769371E-05
5.500254E+03	1.028087E-03	2.801660E-05
5.510218E+03	1.038991E-03	2.837572E-05
5.520183E+03	1.049002E-03	2.871110E-05
5.530147E+03	1.055714E-03	2.895642E-05
5.540111E+03	1.057055E-03	2.905401E-05
5.550075E+03	1.051683E-03	2.896584E-05
5.560039E+03	1.039024E-03	2.867482E-05
5.570004E+03	1.019593E-03	2.819390E-05
5.579968E+03	9.947202E-04	2.755878E-05
5.589932E+03	9.662506E-04	2.681980E-05
5.599896E+03	9.360084E-04	2.602717E-05
5.609861E+03	9.057485E-04	2.522953E-05
5.619825E+03	8.768045E-04	2.446415E-05
5.629789E+03	8.500812E-04	2.375657E-05
5.639753E+03	8.259606E-04	2.311787E-05
5.649718E+03	8.046301E-04	2.255368E-05
5.659682E+03	7.856688E-04	2.205260E-05
5.669646E+03	7.684179E-04	2.159645E-05
5.679610E+03	7.519684E-04	2.115990E-05
5.689574E+03	7.347528E-04	2.069893E-05
5.699539E+03	7.150059E-04	2.016375E-05
5.709503E+03	6.909603E-04	1.950436E-05
5.719467E+03	6.614822E-04	1.868850E-05
5.729431E+03	6.266400E-04	1.771791E-05
5.739396E+03	5.876260E-04	1.662620E-05
5.749360E+03	5.468226E-04	1.548086E-05
5.759324E+03	5.074347E-04	1.437289E-05
5.769288E+03	4.727051E-04	1.339453E-05
5.779252E+03	4.450745E-04	1.261540E-05
5.789217E+03	4.261503E-04	1.208147E-05
5.799181E+03	4.169601E-04	1.182216E-05
5.809145E+03	4.182507E-04	1.185883E-05
5.819109E+03	4.305078E-04	1.220522E-05
5.829074E+03	4.541023E-04	1.287165E-05
5.839038E+03	4.892933E-04	1.386510E-05
5.849002E+03	5.355740E-04	1.517061E-05
5.858966E+03	5.915708E-04	1.674854E-05
5.868931E+03	6.549670E-04	1.853249E-05
5.878895E+03	7.221934E-04	2.042064E-05
5.888859E+03	7.888593E-04	2.228819E-05
5.898823E+03	8.501204E-04	2.399791E-05
5.908787E+03	9.018928E-04	2.543456E-05
5.918752E+03	9.409807E-04	2.650853E-05
5.928716E+03	9.658119E-04	2.717648E-05
5.938680E+03	9.762512E-04	2.743586E-05
5.948644E+03	9.735673E-04	2.732378E-05
5.958609E+03	9.596482E-04	2.689472E-05
5.968573E+03	9.366470E-04	2.621045E-05
5.978537E+03	9.067754E-04	2.533414E-05
5.988501E+03	8.725205E-04	2.433636E-05
5.998466E+03	8.363949E-04	2.328796E-05
6.008430E+03	8.007772E-04	2.225563E-05
6.018394E+03	7.680093E-04	2.130456E-05
6.028358E+03	7.399208E-04	2.048519E-05
6.038322E+03	7.180951E-04	1.984074E-05
6.048287E+03	7.036716E-04	1.940178E-05
6.058251E+03	6.972702E-04	1.918423E-05
6.068215E+03	6.989131E-04	1.918741E-05
6.078179E+03	7.085336E-04	1.940812E-05
6.088144E+03	7.253252E-04	1.982293E-05
6.098108E+03	7.482017E-04	2.040094E-05
6.108072E+03	7.756379E-04	2.109958E-05
6.118036E+03	8.056605E-04	2.186450E-05
6.128000E+03	8.361628E-04	2.263825E-05
6.137965E+03	8.650371E-04	2.336393E-05
6.147929E+03	8.905771E-04	2.399601E-05
6.157893E+03	9.121690E-04	2.451883E-05
6.167857E+03	9.304470E-04	2.495033E-05
6.177822E+03	9.474733E-04	2.534652E-05
6.187786E+03	9.664953E-04	2.579454E-05
6.197750E+03	9.911739E-04	2.639172E-05
6.207714E+03	1.024241E-03	2.720987E-05
6.217679E+03	1.067223E-03	2.828825E-05
6.227643E+03	1.120392E-03	2.963274E-05
6.237607E+03	1.182021E-03	3.119647E-05
6.247571E+03	1.248708E-03	3.288903E-05
6.257535E+03	1.316210E-03	3.459877E-05
6.267500E+03	1.380502E-03	3.622074E-05
6.277464E+03	1.437755E-03	3.765595E-05
6.287428E+03	1.484373E-03	3.881213E-05
6.297392E+03	1.517468E-03	3.961608E-05
6.307357E+03	1.534752E-03	4.001046E-05
6.317321E+03	1.534876E-03	3.996243E-05
6.327285E+03	1.517542E-03	3.946627E-05
6.337249E+03	1.483865E-03	3.855273E-05
6.347214E+03	1.436060E-03	3.728038E-05
6.357178E+03	1.377406E-03	3.573492E-05
6.367142E+03	1.312398E-03	3.403292E-05
6.377106E+03	1.246433E-03	3.231384E-05
6.387070E+03	1.185707E-03	3.073765E-05
6.397035E+03	1.136432E-03	2.946457E-05
6.406999E+03	1.104683E-03	2.865144E-05
6.416963E+03	1.096421E-03	2.845272E-05
6.426927E+03	1.118033E-03	2.903495E-05
6.436892E+03	1.177080E-03	3.059641E-05
6.446856E+03	1.282845E-03	3.338190E-05
6.456820E+03	1.447527E-03	3.771438E-05
6.466784E+03	1.686197E-03	4.399458E-05
6.476748E+03	2.015485E-03	5.266766E-05
6.486713E+03	2.450837E-03	6.415222E-05
6.496677E+03	3.002324E-03	7.873050E-05
6.506641E+03	3.668582E-03	9.638805E-05
6.516605E+03	4.429624E-03	1.166216E-04
6.526570E+03	5.245528E-03	1.383987E-04
6.536534E+03	6.061645E-03	1.602892E-04
6.546498E+03	6.817665E-03	1.806993E-04
6.556462E+03	7.452157E-03	1.979896E-04
6.566427E+03	7.916746E-03	2.108512E-04
6.576391E+03	8.176322E-03	2.183141E-04
6.586355E+03	8.214449E-03	2.198968E-04
6.596319E+03	8.031271E-03	2.155561E-04
6.606283E+03	7.645011E-03	2.057339E-04
6.616248E+03	7.091718E-03	1.913567E-04
6.626212E+03	6.422807E-03	1.737767E-04
6.636176E+03	5.694796E-03	1.544992E-04
6.646140E+03	4.961162E-03	1.349639E-04
6.656105E+03	4.266861E-03	1.163940E-04
6.666069E+03	3.641891E-03	9.961777E-05
6.676033E+03	3.100645E-03	8.504460E-05
6.685997E+03	2.644867E-03	7.274088E-05
6.695961E+03	2.269127E-03	6.257583E-05
6.705926E+03	1.962954E-03	5.427782E-05
6.715890E+03	1.715306E-03	4.755624E-05
6.725854E+03	1.515027E-03	4.211414E-05
6.735818E+03	1.352558E-03	3.769566E-05
6.745783E+03	1.220195E-03	3.409395E-05
6.755747E+03	1.111547E-03	3.113667E-05
6.765711E+03	1.021751E-03	2.869250E-05
6.775675E+03	9.466589E-04	2.664877E-05
6.785640E+03	8.832239E-04	2.492271E-05
6.795604E+03	8.291045E-04	2.345061E-05
6.805568E+03	7.825735E-04	2.218553E-05
6.815532E+03	7.425293E-04	2.109776E-05
6.825496E+03	7.082007E-04	2.016672E-05
6.835461E+03	6.791244E-04	1.938037E-05
6.845425E+03	6.549647E-04	1.873018E-05
6.855389E+03	6.355638E-04	1.821260E-05
6.865353E+03	6.205378E-04	1.781752E-05
6.875318E+03	6.095268E-04	1.753538E-05
6.885282E+03	6.021356E-04	1.735554E-05
6.895246E+03	5.976508E-04	1.725800E-05
6.905210E+03	5.954512E-04	1.722530E-05
6.915175E+03	5.950063E-04	1.724244E-05
6.925139E+03	5.960197E-04	1.730111E-05
6.935103E+03	5.983529E-04	1.739752E-05
6.945067E+03	6.021315E-04	1.753552E-05
6.955031E+03	6.074050E-04	1.771681E-05
6.964996E+03	6.143521E-04	1.794681E-05
6.974960E+03	6.232165E-04	1.823291E-05
6.984924E+03	6.339895E-04	1.857513E-05
6.994888E+03	6.466994E-04	1.897457E-05
7.004853E+03	6.612018E-04	1.942726E-05
7.014817E+03	6.771912E-04	1.992446E-05
7.024781E+03	6.941782E-04	2.045201E-05
7.034745E+03	7.117459E-04	2.099775E-05
7.044709E+03	7.292404E-04	2.154253E-05
7.054674E+03	7.461547E-04	2.207142E-05
7.064638E+03	7.619110E-04	2.256734E-05
7.074602E+03	7.761784E-04	2.302046E-05
7.084566E+03	7.885105E-04	2.341746E-05
7.094531E+03	7.987763E-04	2.375437E-05
7.104495E+03	8.069991E-04	2.403179E-05
7.114459E+03	8.134326E-04	2.425718E-05
7.124423E+03	8.189386E-04	2.445624E-05
7.134388E+03	8.246601E-04	2.466319E-05
7.144352E+03	8.322948E-04	2.492911E-05
7.154316E+03	8.436429E-04	2.530845E-05
7.164280E+03	8.604791E-04	2.585531E-05
7.174244E+03	8.847141E-04	2.662828E-05
7.184209E+03	9.177729E-04	2.767179E-05
7.194173E+03	9.608402E-04	2.902347E-05
7.204137E+03	1.014506E-03	3.070340E-05
7.214101E+03	1.078552E-03	3.270752E-05
7.224066E+03	1.151445E-03	3.499196E-05
7.234030E+03	1.230530E-03	3.747856E-05
7.243994E+03	1.311538E-03	4.003943E-05
7.253958E+03	1.389400E-03	4.252111E-05
7.263923E+03	1.458425E-03	4.474959E-05
7.273887E+03	1.513352E-03	4.656211E-05
7.283851E+03	1.550925E-03	4.785585E-05
7.293815E+03	1.569542E-03	4.857755E-05
7.303779E+03	1.570117E-03	4.875095E-05
7.313744E+03	1.555506E-03	4.846012E-05
7.323708E+03	1.529939E-03	4.783268E-05
7.333672E+03	1.498067E-03	4.701089E-05
7.343636E+03	1.464778E-03	4.614640E-05
7.353601E+03	1.433820E-03	4.535692E-05
7.363565E+03	1.407932E-03	4.473020E-05
7.373529E+03	1.388083E-03	4.429904E-05
7.383493E+03	1.373774E-03	4.404997E-05
7.393457E+03	1.363044E-03	4.392231E-05
7.403422E+03	1.352944E-03	4.382241E-05
7.413386E+03	1.339486E-03	4.362072E-05
7.423350E+03	1.319357E-03	4.320701E-05
7.433314E+03	1.290211E-03	4.250012E-05
7.443279E+03	1.250939E-03	4.145765E-05
7.453243E+03	1.201736E-03	4.007912E-05
7.463207E+03	1.143923E-03	3.840119E-05
7.473171E+03	1.079788E-03	3.649390E-05
7.483136E+03	1.011489E-03	3.442443E-05
7.493100E+03	9.413790E-04	3.226864E-05
7.503064E+03	8.714731E-04	3.009284E-05
7.513028E+03	8.035349E-04	2.795665E-05
7.522992E+03	7.390924E-04	2.591341E-05
7.532957E+03	6.796005E-04	2.401568E-05
7.542921E+03	6.259945E-04	2.229940E-05
7.552885E+03	5.791083E-04	2.079821E-05
7.562849E+03	5.394514E-04	1.953530E-05
7.572814E+03	5.072795E-04	1.852554E-05
7.582778E+03	4.826806E-04	1.777827E-05
7.592742E+03	4.657032E-04	1.730180E-05
7.602706E+03	4.564239E-04	1.710591E-05
7.612671E+03	4.551174E-04	1.720823E-05
7.622635E+03	4.618999E-04	1.762105E-05
7.632599E+03	4.766464E-04	1.834779E-05
7.642563E+03	4.985141E-04	1.936412E-05
7.652527E+03	5.260292E-04	2.062005E-05
7.662492E+03	5.573822E-04	2.205035E-05
7.672456E+03	5.906310E-04	2.358206E-05
7.682420E+03	6.240356E-04	2.514753E-05
7.692384E+03	6.560023E-04	2.668253E-05
7.702349E+03	6.857596E-04	2.815410E-05
7.712313E+03	7.128876E-04	2.954261E-05
7.722277E+03	7.373871E-04	3.084531E-05
7.732241E+03	7.592400E-04	3.205855E-05
