#wls	flux	fluxerr
1.600000E+03	3.328906E-12	3.270735E-12
1.640000E+03	3.288455E-12	3.203569E-12
1.680000E+03	3.250273E-12	3.138927E-12
1.720000E+03	3.218882E-12	3.081183E-12
1.760000E+03	3.191645E-12	3.027767E-12
1.800000E+03	3.170222E-12	2.980229E-12
1.840000E+03	3.154891E-12	2.938768E-12
1.880000E+03	3.145988E-12	2.903617E-12
1.920000E+03	3.143905E-12	2.875039E-12
1.960000E+03	3.149103E-12	2.853328E-12
2.000000E+03	3.163376E-12	2.839947E-12
2.040000E+03	3.187305E-12	2.835198E-12
2.080000E+03	3.220328E-12	2.838332E-12
2.120000E+03	3.265729E-12	2.851955E-12
2.160000E+03	3.323160E-12	2.875385E-12
2.200000E+03	3.393637E-12	2.909087E-12
2.240000E+03	3.479542E-12	2.954605E-12
2.280000E+03	3.582139E-12	3.012414E-12
2.320000E+03	3.702813E-12	3.082978E-12
2.360000E+03	3.844333E-12	3.167779E-12
2.400000E+03	4.006992E-12	3.266083E-12
2.440000E+03	4.192360E-12	3.378062E-12
2.480000E+03	4.403335E-12	3.504744E-12
2.520000E+03	4.641430E-12	3.645790E-12
2.560000E+03	4.907966E-12	3.800450E-12
2.600000E+03	5.203963E-12	3.967455E-12
2.640000E+03	5.528463E-12	4.143748E-12
2.680000E+03	5.884529E-12	4.328985E-12
2.720000E+03	6.269975E-12	4.518552E-12
2.760000E+03	6.686679E-12	4.710477E-12
2.800000E+03	7.128921E-12	4.897070E-12
2.840000E+03	7.596702E-12	5.074501E-12
2.880000E+03	8.083605E-12	5.234411E-12
2.920000E+03	8.587452E-12	5.371294E-12
2.960000E+03	9.101093E-12	5.476552E-12
3.000000E+03	9.615876E-12	5.541196E-12
3.010000E+03	9.743085E-12	5.549659E-12
3.020000E+03	9.870580E-12	5.555458E-12
3.030000E+03	9.996146E-12	5.557303E-12
3.040000E+03	1.012164E-11	5.556205E-12
3.050000E+03	1.024689E-11	5.552016E-12
3.060000E+03	1.036964E-11	5.543487E-12
3.070000E+03	1.049175E-11	5.531605E-12
3.080000E+03	1.061302E-11	5.516235E-12
3.090000E+03	1.073118E-11	5.496175E-12
3.100000E+03	1.084807E-11	5.472393E-12
3.110000E+03	1.096350E-11	5.444767E-12
3.120000E+03	1.107515E-11	5.412160E-12
3.130000E+03	1.118488E-11	5.375517E-12
3.140000E+03	1.129246E-11	5.334739E-12
3.150000E+03	1.139768E-11	5.289736E-12
3.160000E+03	1.149819E-11	5.239470E-12
3.170000E+03	1.159796E-11	5.185796E-12
3.180000E+03	1.169255E-11	5.126765E-12
3.190000E+03	1.178382E-11	5.063282E-12
3.200000E+03	1.187154E-11	4.995311E-12
3.210000E+03	1.195753E-11	4.923684E-12
3.220000E+03	1.203741E-11	4.846660E-12
3.230000E+03	1.211507E-11	4.765932E-12
3.240000E+03	1.218615E-11	4.679877E-12
3.250000E+03	1.225453E-11	4.590129E-12
3.260000E+03	1.231793E-11	4.495929E-12
3.270000E+03	1.237815E-11	4.398066E-12
3.280000E+03	1.243292E-11	4.295861E-12
3.290000E+03	1.248204E-11	4.189419E-12
3.300000E+03	1.252730E-11	4.079510E-12
3.310000E+03	1.256847E-11	3.966201E-12
3.320000E+03	1.260336E-11	3.848985E-12
3.330000E+03	1.263377E-11	3.728614E-12
3.340000E+03	1.265948E-11	3.605214E-12
3.350000E+03	1.267842E-11	3.478411E-12
3.360000E+03	1.269235E-11	3.348941E-12
3.370000E+03	1.270297E-11	3.217461E-12
3.380000E+03	1.270642E-11	3.083214E-12
3.390000E+03	1.270627E-11	2.947343E-12
3.400000E+03	1.270058E-11	2.809629E-12
3.410000E+03	1.268927E-11	2.670346E-12
3.420000E+03	1.267229E-11	2.529791E-12
3.430000E+03	1.265136E-11	2.388609E-12
3.440000E+03	1.262640E-11	2.247079E-12
3.450000E+03	1.259571E-11	2.105235E-12
3.460000E+03	1.256101E-11	1.963750E-12
3.470000E+03	1.252234E-11	1.823018E-12
3.480000E+03	1.247977E-11	1.683491E-12
3.490000E+03	1.243185E-11	1.545502E-12
3.500000E+03	1.238188E-11	1.410084E-12
3.510000E+03	1.233000E-11	1.277951E-12
3.520000E+03	1.227343E-11	1.149750E-12
3.530000E+03	1.221547E-11	1.027056E-12
3.540000E+03	1.215643E-11	9.115568E-13
3.550000E+03	1.209530E-11	8.055206E-13
3.560000E+03	1.203398E-11	7.123597E-13
3.570000E+03	1.197305E-11	6.364687E-13
3.580000E+03	1.191316E-11	5.830202E-13
3.590000E+03	1.185515E-11	5.564791E-13
3.600000E+03	1.180011E-11	5.579349E-13
3.610000E+03	1.175074E-11	5.835471E-13
3.620000E+03	1.170878E-11	6.264087E-13
3.630000E+03	1.167493E-11	6.796173E-13
3.640000E+03	1.165124E-11	7.378940E-13
3.650000E+03	1.164214E-11	7.978012E-13
3.660000E+03	1.164751E-11	8.569169E-13
3.670000E+03	1.167189E-11	9.140296E-13
3.680000E+03	1.171653E-11	9.682835E-13
3.690000E+03	1.178398E-11	1.019285E-12
3.700000E+03	1.187801E-11	1.066984E-12
3.710000E+03	1.200152E-11	1.111398E-12
3.720000E+03	1.215665E-11	1.152540E-12
3.730000E+03	1.234898E-11	1.190770E-12
3.740000E+03	1.258030E-11	1.226075E-12
3.750000E+03	1.285707E-11	1.258846E-12
3.760000E+03	1.318318E-11	1.289156E-12
3.770000E+03	1.356527E-11	1.317253E-12
3.780000E+03	1.400872E-11	1.343149E-12
3.790000E+03	1.452196E-11	1.367017E-12
3.800000E+03	1.511356E-11	1.388887E-12
3.810000E+03	1.579340E-11	1.408746E-12
3.820000E+03	1.657300E-11	1.426548E-12
3.830000E+03	1.746702E-11	1.442327E-12
3.840000E+03	1.849127E-11	1.456026E-12
3.850000E+03	1.966296E-11	1.467538E-12
3.860000E+03	2.100486E-11	1.477064E-12
3.870000E+03	2.254162E-11	1.484853E-12
3.880000E+03	2.429973E-11	1.491283E-12
3.890000E+03	2.630578E-11	1.496867E-12
3.900000E+03	2.858678E-11	1.502540E-12
3.910000E+03	3.116269E-11	1.509453E-12
3.920000E+03	3.403913E-11	1.518879E-12
3.930000E+03	3.721024E-11	1.532820E-12
3.940000E+03	4.065158E-11	1.553544E-12
3.950000E+03	4.432123E-11	1.582994E-12
3.960000E+03	4.815483E-11	1.622567E-12
3.970000E+03	5.208515E-11	1.673179E-12
3.980000E+03	5.605938E-11	1.734573E-12
3.990000E+03	6.003353E-11	1.805608E-12
4.000000E+03	6.396295E-11	1.884408E-12
4.010000E+03	6.780870E-11	1.968284E-12
4.020000E+03	7.151040E-11	2.054266E-12
4.030000E+03	7.497436E-11	2.139262E-12
4.040000E+03	7.804782E-11	2.218518E-12
4.050000E+03	8.054141E-11	2.286865E-12
4.060000E+03	8.226431E-11	2.338931E-12
4.070000E+03	8.305957E-11	2.368341E-12
4.080000E+03	8.283711E-11	2.370076E-12
4.090000E+03	8.158907E-11	2.341907E-12
4.100000E+03	7.942605E-11	2.284981E-12
4.110000E+03	7.653344E-11	2.203556E-12
4.120000E+03	7.316133E-11	2.104375E-12
4.130000E+03	6.961334E-11	1.995295E-12
4.140000E+03	6.617530E-11	1.884415E-12
4.150000E+03	6.307771E-11	1.779357E-12
4.160000E+03	6.048122E-11	1.686118E-12
4.170000E+03	5.848001E-11	1.609289E-12
4.180000E+03	5.711313E-11	1.551532E-12
4.190000E+03	5.634374E-11	1.512070E-12
4.200000E+03	5.611056E-11	1.489167E-12
4.210000E+03	5.635279E-11	1.480816E-12
4.220000E+03	5.702396E-11	1.484264E-12
4.230000E+03	5.810181E-11	1.497378E-12
4.240000E+03	5.959090E-11	1.519107E-12
4.250000E+03	6.153686E-11	1.549174E-12
4.260000E+03	6.401692E-11	1.588551E-12
4.270000E+03	6.712378E-11	1.638754E-12
4.280000E+03	7.096571E-11	1.700493E-12
4.290000E+03	7.565959E-11	1.774007E-12
4.300000E+03	8.131809E-11	1.857809E-12
4.310000E+03	8.804471E-11	1.946135E-12
4.320000E+03	9.590581E-11	2.029170E-12
4.330000E+03	1.048942E-10	2.092601E-12
4.340000E+03	1.148533E-10	2.115537E-12
4.350000E+03	1.254405E-10	2.075751E-12
4.360000E+03	1.360271E-10	1.959239E-12
4.370000E+03	1.456029E-10	1.780012E-12
4.380000E+03	1.528343E-10	1.622473E-12
4.390000E+03	1.562360E-10	1.645139E-12
4.400000E+03	1.555266E-10	1.852244E-12
4.410000E+03	1.517783E-10	2.092127E-12
4.420000E+03	1.461483E-10	2.276167E-12
4.430000E+03	1.396022E-10	2.380558E-12
4.440000E+03	1.329126E-10	2.416020E-12
4.450000E+03	1.267334E-10	2.407411E-12
4.460000E+03	1.216159E-10	2.380539E-12
4.470000E+03	1.180266E-10	2.360033E-12
4.480000E+03	1.163624E-10	2.365961E-12
4.490000E+03	1.169953E-10	2.410726E-12
4.500000E+03	1.203116E-10	2.503906E-12
4.510000E+03	1.266961E-10	2.653292E-12
4.520000E+03	1.364538E-10	2.860411E-12
4.530000E+03	1.498392E-10	3.123312E-12
4.540000E+03	1.669954E-10	3.436001E-12
4.550000E+03	1.878007E-10	3.783117E-12
4.560000E+03	2.117432E-10	4.141953E-12
4.570000E+03	2.379125E-10	4.485478E-12
4.580000E+03	2.651041E-10	4.783719E-12
4.590000E+03	2.918776E-10	5.013846E-12
4.600000E+03	3.168713E-10	5.166086E-12
4.610000E+03	3.392602E-10	5.240860E-12
4.620000E+03	3.587595E-10	5.256911E-12
4.630000E+03	3.753892E-10	5.238281E-12
4.640000E+03	3.892645E-10	5.190584E-12
4.650000E+03	4.005180E-10	5.127469E-12
4.660000E+03	4.091905E-10	5.071347E-12
4.670000E+03	4.151061E-10	5.026107E-12
4.680000E+03	4.179806E-10	5.007341E-12
4.690000E+03	4.176127E-10	5.026523E-12
4.700000E+03	4.139614E-10	5.044241E-12
4.710000E+03	4.071797E-10	5.023408E-12
4.720000E+03	3.976095E-10	4.955495E-12
4.730000E+03	3.857391E-10	4.836646E-12
4.740000E+03	3.721770E-10	4.688679E-12
4.750000E+03	3.576033E-10	4.545209E-12
4.760000E+03	3.427246E-10	4.417975E-12
4.770000E+03	3.282151E-10	4.326074E-12
4.780000E+03	3.146360E-10	4.295417E-12
4.790000E+03	3.024228E-10	4.331455E-12
4.800000E+03	2.919322E-10	4.438350E-12
4.810000E+03	2.834989E-10	4.615049E-12
4.820000E+03	2.774793E-10	4.834385E-12
4.830000E+03	2.742389E-10	5.065146E-12
4.840000E+03	2.741246E-10	5.286796E-12
4.850000E+03	2.774586E-10	5.482595E-12
4.860000E+03	2.845815E-10	5.641748E-12
4.870000E+03	2.958457E-10	5.760953E-12
4.880000E+03	3.115563E-10	5.842639E-12
4.890000E+03	3.318789E-10	5.900492E-12
4.900000E+03	3.564313E-10	5.956704E-12
4.910000E+03	3.837720E-10	6.039967E-12
4.920000E+03	4.114893E-10	6.204270E-12
4.930000E+03	4.369490E-10	6.500768E-12
4.940000E+03	4.581381E-10	6.914482E-12
4.950000E+03	4.738668E-10	7.386880E-12
4.960000E+03	4.838422E-10	7.848065E-12
4.970000E+03	4.887725E-10	8.214959E-12
4.980000E+03	4.899185E-10	8.428065E-12
4.990000E+03	4.882887E-10	8.469872E-12
5.000000E+03	4.841198E-10	8.349931E-12
5.010000E+03	4.770958E-10	8.104316E-12
5.020000E+03	4.666439E-10	7.773900E-12
5.030000E+03	4.520702E-10	7.377715E-12
5.040000E+03	4.328987E-10	6.934887E-12
5.050000E+03	4.093474E-10	6.468434E-12
5.060000E+03	3.824996E-10	5.990673E-12
5.070000E+03	3.539444E-10	5.522188E-12
5.080000E+03	3.254224E-10	5.087147E-12
5.090000E+03	2.986779E-10	4.696904E-12
5.100000E+03	2.751463E-10	4.364389E-12
5.110000E+03	2.558190E-10	4.100752E-12
5.120000E+03	2.412999E-10	3.903446E-12
5.130000E+03	2.318988E-10	3.771153E-12
5.140000E+03	2.275498E-10	3.704269E-12
5.150000E+03	2.277480E-10	3.695004E-12
5.160000E+03	2.317634E-10	3.737290E-12
5.170000E+03	2.388179E-10	3.826641E-12
5.180000E+03	2.480812E-10	3.949601E-12
5.190000E+03	2.586441E-10	4.093258E-12
5.200000E+03	2.696352E-10	4.247157E-12
5.210000E+03	2.803493E-10	4.394017E-12
5.220000E+03	2.902420E-10	4.523636E-12
5.230000E+03	2.989200E-10	4.637292E-12
5.240000E+03	3.062113E-10	4.737736E-12
5.250000E+03	3.121478E-10	4.838152E-12
5.260000E+03	3.169599E-10	4.952015E-12
5.270000E+03	3.210881E-10	5.070714E-12
5.280000E+03	3.250811E-10	5.182196E-12
5.290000E+03	3.294199E-10	5.280894E-12
5.300000E+03	3.343837E-10	5.357155E-12
5.310000E+03	3.401063E-10	5.408939E-12
5.320000E+03	3.466293E-10	5.440346E-12
5.330000E+03	3.539146E-10	5.447500E-12
5.340000E+03	3.618955E-10	5.431986E-12
5.350000E+03	3.705119E-10	5.399133E-12
5.360000E+03	3.797809E-10	5.343692E-12
5.370000E+03	3.897115E-10	5.268887E-12
5.380000E+03	4.002135E-10	5.187614E-12
5.390000E+03	4.109408E-10	5.104687E-12
5.400000E+03	4.212790E-10	5.038991E-12
5.410000E+03	4.301971E-10	4.999824E-12
5.420000E+03	4.361556E-10	4.939286E-12
5.430000E+03	4.374894E-10	4.802179E-12
5.440000E+03	4.332892E-10	4.549981E-12
5.450000E+03	4.239586E-10	4.137424E-12
5.460000E+03	4.110537E-10	3.550909E-12
5.470000E+03	3.972416E-10	2.807072E-12
5.480000E+03	3.863159E-10	1.973574E-12
5.490000E+03	3.824750E-10	1.563419E-12
5.500000E+03	3.882625E-10	2.228647E-12
5.510000E+03	4.012813E-10	3.131493E-12
5.520000E+03	4.182155E-10	3.890531E-12
5.530000E+03	4.356694E-10	4.437602E-12
5.540000E+03	4.504800E-10	4.767207E-12
5.550000E+03	4.599322E-10	4.931061E-12
5.560000E+03	4.623748E-10	5.003323E-12
5.570000E+03	4.579482E-10	5.014271E-12
5.580000E+03	4.481559E-10	4.993614E-12
5.590000E+03	4.352560E-10	4.973425E-12
5.600000E+03	4.218933E-10	4.943610E-12
5.610000E+03	4.105716E-10	4.901511E-12
5.620000E+03	4.031107E-10	4.862489E-12
5.630000E+03	4.004120E-10	4.825526E-12
5.640000E+03	4.026912E-10	4.799274E-12
5.650000E+03	4.093781E-10	4.799867E-12
5.660000E+03	4.187666E-10	4.823770E-12
5.670000E+03	4.283665E-10	4.882898E-12
5.680000E+03	4.356274E-10	4.988260E-12
5.690000E+03	4.384708E-10	5.095129E-12
5.700000E+03	4.354390E-10	5.159138E-12
5.710000E+03	4.258575E-10	5.165164E-12
5.720000E+03	4.100087E-10	5.098072E-12
5.730000E+03	3.889453E-10	4.970479E-12
5.740000E+03	3.642945E-10	4.811848E-12
5.750000E+03	3.380745E-10	4.630822E-12
5.760000E+03	3.122928E-10	4.442295E-12
5.770000E+03	2.887539E-10	4.271842E-12
5.780000E+03	2.690101E-10	4.135750E-12
5.790000E+03	2.542272E-10	4.052322E-12
5.800000E+03	2.450805E-10	4.037477E-12
5.810000E+03	2.418395E-10	4.091142E-12
5.820000E+03	2.446567E-10	4.211451E-12
5.830000E+03	2.536778E-10	4.400862E-12
5.840000E+03	2.689435E-10	4.658917E-12
5.850000E+03	2.903581E-10	4.987529E-12
5.860000E+03	3.175635E-10	5.385869E-12
5.870000E+03	3.495965E-10	5.833032E-12
5.880000E+03	3.847425E-10	6.298137E-12
5.890000E+03	4.206698E-10	6.748360E-12
5.900000E+03	4.547658E-10	7.144217E-12
5.910000E+03	4.843702E-10	7.460248E-12
5.920000E+03	5.072269E-10	7.687439E-12
5.930000E+03	5.220804E-10	7.813579E-12
5.940000E+03	5.286357E-10	7.844483E-12
5.950000E+03	5.272640E-10	7.797389E-12
5.960000E+03	5.187427E-10	7.668691E-12
5.970000E+03	5.041398E-10	7.464783E-12
5.980000E+03	4.846370E-10	7.203938E-12
5.990000E+03	4.614088E-10	6.890273E-12
6.000000E+03	4.356321E-10	6.540148E-12
6.010000E+03	4.085473E-10	6.180939E-12
6.020000E+03	3.814619E-10	5.827523E-12
6.030000E+03	3.556307E-10	5.499221E-12
6.040000E+03	3.322581E-10	5.214599E-12
6.050000E+03	3.125183E-10	4.974297E-12
6.060000E+03	2.974126E-10	4.780799E-12
6.070000E+03	2.876651E-10	4.642271E-12
6.080000E+03	2.837400E-10	4.561113E-12
6.090000E+03	2.859484E-10	4.543460E-12
6.100000E+03	2.942410E-10	4.594116E-12
6.110000E+03	3.078389E-10	4.702078E-12
6.120000E+03	3.253225E-10	4.854784E-12
6.130000E+03	3.448282E-10	5.036020E-12
6.140000E+03	3.641248E-10	5.206663E-12
6.150000E+03	3.807690E-10	5.327135E-12
6.160000E+03	3.927463E-10	5.374414E-12
6.170000E+03	3.991456E-10	5.335807E-12
6.180000E+03	4.001492E-10	5.229250E-12
6.190000E+03	3.968261E-10	5.089408E-12
6.200000E+03	3.910119E-10	4.934592E-12
6.210000E+03	3.847213E-10	4.791238E-12
6.220000E+03	3.794284E-10	4.685197E-12
6.230000E+03	3.757070E-10	4.608964E-12
6.240000E+03	3.735383E-10	4.557099E-12
6.250000E+03	3.726765E-10	4.530876E-12
6.260000E+03	3.727649E-10	4.510729E-12
6.270000E+03	3.734043E-10	4.487162E-12
6.280000E+03	3.742271E-10	4.462476E-12
6.290000E+03	3.749349E-10	4.423281E-12
6.300000E+03	3.752242E-10	4.369796E-12
6.310000E+03	3.746369E-10	4.311807E-12
6.320000E+03	3.724852E-10	4.238501E-12
6.330000E+03	3.679929E-10	4.154927E-12
6.340000E+03	3.605405E-10	4.074272E-12
6.350000E+03	3.498449E-10	3.980263E-12
6.360000E+03	3.359948E-10	3.875345E-12
6.370000E+03	3.195609E-10	3.786894E-12
6.380000E+03	3.016191E-10	3.726388E-12
6.390000E+03	2.834557E-10	3.708940E-12
6.400000E+03	2.663127E-10	3.744357E-12
6.410000E+03	2.513182E-10	3.810852E-12
6.420000E+03	2.393891E-10	3.886041E-12
6.430000E+03	2.311300E-10	3.961162E-12
6.440000E+03	2.268726E-10	4.028053E-12
6.450000E+03	2.268229E-10	4.079595E-12
6.460000E+03	2.311447E-10	4.107458E-12
6.470000E+03	2.399361E-10	4.092925E-12
6.480000E+03	2.532850E-10	4.006324E-12
6.490000E+03	2.713688E-10	3.801717E-12
6.500000E+03	2.944562E-10	3.408893E-12
6.510000E+03	3.228660E-10	2.760105E-12
6.520000E+03	3.569919E-10	1.934476E-12
6.530000E+03	3.973362E-10	1.898920E-12
6.540000E+03	4.434016E-10	3.365140E-12
6.550000E+03	4.926920E-10	5.271763E-12
6.560000E+03	5.420962E-10	7.203695E-12
6.570000E+03	5.881364E-10	8.993615E-12
6.580000E+03	6.274655E-10	1.053902E-11
6.590000E+03	6.577336E-10	1.177351E-11
6.600000E+03	6.777220E-10	1.267958E-11
6.610000E+03	6.872146E-10	1.327964E-11
6.620000E+03	6.868400E-10	1.360483E-11
6.630000E+03	6.778585E-10	1.370208E-11
6.640000E+03	6.618799E-10	1.362582E-11
6.650000E+03	6.405717E-10	1.341322E-11
6.660000E+03	6.155763E-10	1.310121E-11
6.670000E+03	5.883939E-10	1.272735E-11
6.680000E+03	5.603178E-10	1.231575E-11
6.690000E+03	5.324170E-10	1.189090E-11
6.700000E+03	5.055047E-10	1.147649E-11
6.710000E+03	4.801520E-10	1.108374E-11
6.720000E+03	4.567356E-10	1.072335E-11
6.730000E+03	4.354561E-10	1.040541E-11
6.740000E+03	4.163730E-10	1.013098E-11
6.750000E+03	3.994497E-10	9.901877E-12
6.760000E+03	3.845917E-10	9.722002E-12
6.770000E+03	3.716412E-10	9.589825E-12
6.780000E+03	3.604324E-10	9.505136E-12
6.790000E+03	3.507718E-10	9.467009E-12
6.800000E+03	3.424779E-10	9.468100E-12
6.810000E+03	3.353578E-10	9.499956E-12
6.820000E+03	3.292549E-10	9.555740E-12
6.830000E+03	3.240254E-10	9.625334E-12
6.840000E+03	3.195611E-10	9.699760E-12
6.850000E+03	3.157970E-10	9.771398E-12
6.860000E+03	3.126933E-10	9.830090E-12
6.870000E+03	3.102585E-10	9.869244E-12
6.880000E+03	3.084781E-10	9.887756E-12
6.890000E+03	3.073449E-10	9.890254E-12
6.900000E+03	3.068268E-10	9.886211E-12
6.910000E+03	3.068702E-10	9.886004E-12
6.920000E+03	3.074046E-10	9.896005E-12
6.930000E+03	3.083306E-10	9.920885E-12
6.940000E+03	3.095493E-10	9.964356E-12
6.950000E+03	3.109785E-10	1.002645E-11
6.960000E+03	3.125354E-10	1.010648E-11
6.970000E+03	3.141503E-10	1.020383E-11
6.980000E+03	3.157507E-10	1.031449E-11
6.990000E+03	3.172728E-10	1.043497E-11
7.000000E+03	3.186583E-10	1.056265E-11
7.010000E+03	3.198598E-10	1.069328E-11
7.020000E+03	3.208220E-10	1.082405E-11
7.030000E+03	3.215257E-10	1.095611E-11
7.040000E+03	3.219465E-10	1.109110E-11
7.050000E+03	3.220853E-10	1.123610E-11
7.060000E+03	3.219449E-10	1.140401E-11
7.070000E+03	3.215423E-10	1.161182E-11
7.080000E+03	3.209033E-10	1.188291E-11
7.090000E+03	3.200615E-10	1.224577E-11
7.100000E+03	3.190586E-10	1.272887E-11
7.110000E+03	3.179358E-10	1.335991E-11
7.120000E+03	3.167431E-10	1.416226E-11
7.130000E+03	3.155018E-10	1.514722E-11
7.140000E+03	3.142506E-10	1.631724E-11
7.150000E+03	3.129971E-10	1.766328E-11
7.160000E+03	3.117615E-10	1.916524E-11
7.170000E+03	3.105428E-10	2.079674E-11
7.180000E+03	3.093534E-10	2.253409E-11
7.190000E+03	3.081883E-10	2.435663E-11
7.200000E+03	3.070537E-10	2.624852E-11
7.210000E+03	3.059503E-10	2.819688E-11
7.220000E+03	3.048745E-10	3.019085E-11
7.230000E+03	3.038295E-10	3.222200E-11
7.240000E+03	3.028143E-10	3.428267E-11
7.250000E+03	3.018193E-10	3.636494E-11
7.260000E+03	3.008509E-10	3.846317E-11
7.270000E+03	2.999033E-10	4.057057E-11
7.280000E+03	2.989748E-10	4.268098E-11
7.290000E+03	2.980676E-10	4.478900E-11
7.300000E+03	2.971721E-10	4.688757E-11
7.310000E+03	2.962910E-10	4.897150E-11
7.320000E+03	2.954267E-10	5.103592E-11
7.330000E+03	2.945700E-10	5.307406E-11
7.340000E+03	2.937238E-10	5.508138E-11
7.350000E+03	2.928869E-10	5.705291E-11
7.360000E+03	2.920583E-10	5.898387E-11
7.370000E+03	2.912369E-10	6.086973E-11
7.380000E+03	2.904217E-10	6.270619E-11
7.390000E+03	2.896119E-10	6.448917E-11
7.400000E+03	2.888025E-10	6.621390E-11
7.410000E+03	2.880006E-10	6.787856E-11
7.420000E+03	2.872013E-10	6.947883E-11
7.430000E+03	2.864038E-10	7.101150E-11
7.440000E+03	2.856073E-10	7.247354E-11
7.450000E+03	2.848110E-10	7.386214E-11
7.460000E+03	2.840141E-10	7.517464E-11
7.470000E+03	2.832159E-10	7.640857E-11
7.480000E+03	2.824197E-10	7.756276E-11
7.490000E+03	2.816208E-10	7.863401E-11
7.500000E+03	2.808227E-10	7.962148E-11
7.510000E+03	2.800166E-10	8.052111E-11
7.520000E+03	2.792103E-10	8.133352E-11
7.530000E+03	2.784030E-10	8.205726E-11
7.540000E+03	2.775906E-10	8.268980E-11
7.550000E+03	2.767765E-10	8.323112E-11
7.560000E+03	2.759564E-10	8.367893E-11
7.570000E+03	2.751383E-10	8.403475E-11
7.580000E+03	2.743097E-10	8.429408E-11
7.590000E+03	2.734827E-10	8.445992E-11
7.600000E+03	2.726532E-10	8.453048E-11
7.610000E+03	2.718171E-10	8.450406E-11
7.620000E+03	2.709827E-10	8.438282E-11
7.630000E+03	2.701459E-10	8.416527E-11
7.640000E+03	2.693070E-10	8.385127E-11
7.650000E+03	2.684703E-10	8.344205E-11
7.660000E+03	2.676320E-10	8.293639E-11
7.670000E+03	2.667966E-10	8.233568E-11
7.680000E+03	2.659604E-10	8.163888E-11
7.690000E+03	2.651319E-10	8.084872E-11
7.700000E+03	2.643037E-10	7.996309E-11
7.710000E+03	2.634843E-10	7.898481E-11
7.720000E+03	2.626702E-10	7.791308E-11
7.730000E+03	2.618622E-10	7.674839E-11
7.740000E+03	2.610649E-10	7.549240E-11
7.750000E+03	2.602789E-10	7.414562E-11
7.760000E+03	2.595010E-10	7.270743E-11
