#wls	flux	fluxerr
1.600000E+03	4.601405E-13	4.404438E-13
1.640000E+03	4.452511E-13	4.200158E-13
1.680000E+03	4.310483E-13	4.003107E-13
1.720000E+03	4.177456E-13	3.815244E-13
1.760000E+03	4.053882E-13	3.636885E-13
1.800000E+03	3.940253E-13	3.468344E-13
1.840000E+03	3.835769E-13	3.308781E-13
1.880000E+03	3.741171E-13	3.158709E-13
1.920000E+03	3.659749E-13	3.020697E-13
1.960000E+03	3.589730E-13	2.892980E-13
2.000000E+03	3.533300E-13	2.777054E-13
2.040000E+03	3.490377E-13	2.672519E-13
2.080000E+03	3.464579E-13	2.581770E-13
2.120000E+03	3.455187E-13	2.503806E-13
2.160000E+03	3.465267E-13	2.440414E-13
2.200000E+03	3.497186E-13	2.392739E-13
2.240000E+03	3.552779E-13	2.361489E-13
2.280000E+03	3.637910E-13	2.349967E-13
2.320000E+03	3.754900E-13	2.358977E-13
2.360000E+03	3.911689E-13	2.392765E-13
2.400000E+03	4.112986E-13	2.453320E-13
2.440000E+03	4.368542E-13	2.545454E-13
2.480000E+03	4.688743E-13	2.673948E-13
2.520000E+03	5.085739E-13	2.844142E-13
2.560000E+03	5.574627E-13	3.062458E-13
2.600000E+03	6.166227E-13	3.332294E-13
2.640000E+03	6.873990E-13	3.657789E-13
2.680000E+03	7.704718E-13	4.038705E-13
2.720000E+03	8.657884E-13	4.470199E-13
2.760000E+03	9.712123E-13	4.936106E-13
2.800000E+03	1.083866E-12	5.416449E-13
2.840000E+03	1.198650E-12	5.880571E-13
2.880000E+03	1.309941E-12	6.296555E-13
2.920000E+03	1.412915E-12	6.638155E-13
2.960000E+03	1.503426E-12	6.884302E-13
3.000000E+03	1.581284E-12	7.033802E-13
3.010000E+03	1.598998E-12	7.057087E-13
3.020000E+03	1.615632E-12	7.073070E-13
3.030000E+03	1.632020E-12	7.085407E-13
3.040000E+03	1.647835E-12	7.092648E-13
3.050000E+03	1.663143E-12	7.095063E-13
3.060000E+03	1.678014E-12	7.092931E-13
3.070000E+03	1.692520E-12	7.086528E-13
3.080000E+03	1.706733E-12	7.076127E-13
3.090000E+03	1.721133E-12	7.063648E-13
3.100000E+03	1.734984E-12	7.046004E-13
3.110000E+03	1.749167E-12	7.026732E-13
3.120000E+03	1.762936E-12	7.002739E-13
3.130000E+03	1.777174E-12	6.977472E-13
3.140000E+03	1.791534E-12	6.949433E-13
3.150000E+03	1.805657E-12	6.917144E-13
3.160000E+03	1.820423E-12	6.883888E-13
3.170000E+03	1.835465E-12	6.848110E-13
3.180000E+03	1.850824E-12	6.809829E-13
3.190000E+03	1.866535E-12	6.769032E-13
3.200000E+03	1.883052E-12	6.727196E-13
3.210000E+03	1.899552E-12	6.681191E-13
3.220000E+03	1.916474E-12	6.632453E-13
3.230000E+03	1.934265E-12	6.582326E-13
3.240000E+03	1.952068E-12	6.527702E-13
3.250000E+03	1.970753E-12	6.471333E-13
3.260000E+03	1.989885E-12	6.411560E-13
3.270000E+03	2.009456E-12	6.348178E-13
3.280000E+03	2.029455E-12	6.280975E-13
3.290000E+03	2.049867E-12	6.209728E-13
3.300000E+03	2.070673E-12	6.134214E-13
3.310000E+03	2.091853E-12	6.054211E-13
3.320000E+03	2.113384E-12	5.969503E-13
3.330000E+03	2.135242E-12	5.879885E-13
3.340000E+03	2.157863E-12	5.786413E-13
3.350000E+03	2.180302E-12	5.686411E-13
3.360000E+03	2.203461E-12	5.582198E-13
3.370000E+03	2.226856E-12	5.472428E-13
3.380000E+03	2.250468E-12	5.357040E-13
3.390000E+03	2.273800E-12	5.234922E-13
3.400000E+03	2.297794E-12	5.108357E-13
3.410000E+03	2.321968E-12	4.976336E-13
3.420000E+03	2.346809E-12	4.840070E-13
3.430000E+03	2.371350E-12	4.697814E-13
3.440000E+03	2.396089E-12	4.551030E-13
3.450000E+03	2.421548E-12	4.401181E-13
3.460000E+03	2.446765E-12	4.247145E-13
3.470000E+03	2.472783E-12	4.091623E-13
3.480000E+03	2.498649E-12	3.934068E-13
3.490000E+03	2.525441E-12	3.777565E-13
3.500000E+03	2.552732E-12	3.623066E-13
3.510000E+03	2.580612E-12	3.472763E-13
3.520000E+03	2.609184E-12	3.329307E-13
3.530000E+03	2.638564E-12	3.195856E-13
3.540000E+03	2.668884E-12	3.076084E-13
3.550000E+03	2.700822E-12	2.974715E-13
3.560000E+03	2.733470E-12	2.894991E-13
3.570000E+03	2.767534E-12	2.841980E-13
3.580000E+03	2.803749E-12	2.820298E-13
3.590000E+03	2.841780E-12	2.832594E-13
3.600000E+03	2.881285E-12	2.880273E-13
3.610000E+03	2.923616E-12	2.964943E-13
3.620000E+03	2.968468E-12	3.085177E-13
3.630000E+03	3.016112E-12	3.239039E-13
3.640000E+03	3.066836E-12	3.423963E-13
3.650000E+03	3.120949E-12	3.637174E-13
3.660000E+03	3.178781E-12	3.876013E-13
3.670000E+03	3.241295E-12	4.138930E-13
3.680000E+03	3.307650E-12	4.422508E-13
3.690000E+03	3.379482E-12	4.726935E-13
3.700000E+03	3.455960E-12	5.049512E-13
3.710000E+03	3.538814E-12	5.391517E-13
3.720000E+03	3.627891E-12	5.751888E-13
3.730000E+03	3.723696E-12	6.130780E-13
3.740000E+03	3.826763E-12	6.528637E-13
3.750000E+03	3.937653E-12	6.946147E-13
3.760000E+03	4.056952E-12	7.384208E-13
3.770000E+03	4.185270E-12	7.843890E-13
3.780000E+03	4.323239E-12	8.326401E-13
3.790000E+03	4.471511E-12	8.833054E-13
3.800000E+03	4.631584E-12	9.366921E-13
3.810000E+03	4.802497E-12	9.926147E-13
3.820000E+03	4.986629E-12	1.051563E-12
3.830000E+03	5.183832E-12	1.113507E-12
3.840000E+03	5.393824E-12	1.178372E-12
3.850000E+03	5.619139E-12	1.246681E-12
3.860000E+03	5.859480E-12	1.318341E-12
3.870000E+03	6.115434E-12	1.393430E-12
3.880000E+03	6.387537E-12	1.472002E-12
3.890000E+03	6.676257E-12	1.554077E-12
3.900000E+03	6.983196E-12	1.639922E-12
3.910000E+03	7.306291E-12	1.728924E-12
3.920000E+03	7.646903E-12	1.821245E-12
3.930000E+03	8.006490E-12	1.917054E-12
3.940000E+03	8.382335E-12	2.015494E-12
3.950000E+03	8.777078E-12	2.116964E-12
3.960000E+03	9.189055E-12	2.220803E-12
3.970000E+03	9.616213E-12	2.326223E-12
3.980000E+03	1.006116E-11	2.433536E-12
3.990000E+03	1.052163E-11	2.541851E-12
4.000000E+03	1.099682E-11	2.650597E-12
4.010000E+03	1.148577E-11	2.759150E-12
4.020000E+03	1.198747E-11	2.866844E-12
4.030000E+03	1.250081E-11	2.972970E-12
4.040000E+03	1.302462E-11	3.076792E-12
4.050000E+03	1.355993E-11	3.178068E-12
4.060000E+03	1.410121E-11	3.274999E-12
4.070000E+03	1.465180E-11	3.367859E-12
4.080000E+03	1.520591E-11	3.454792E-12
4.090000E+03	1.576734E-11	3.536135E-12
4.100000E+03	1.633015E-11	3.610015E-12
4.110000E+03	1.689868E-11	3.676856E-12
4.120000E+03	1.746973E-11	3.735391E-12
4.130000E+03	1.804275E-11	3.784953E-12
4.140000E+03	1.861447E-11	3.824304E-12
4.150000E+03	1.919050E-11	3.854049E-12
4.160000E+03	1.976797E-11	3.873017E-12
4.170000E+03	2.034705E-11	3.880666E-12
4.180000E+03	2.093134E-11	3.877083E-12
4.190000E+03	2.151492E-11	3.860561E-12
4.200000E+03	2.210162E-11	3.831229E-12
4.210000E+03	2.269227E-11	3.788620E-12
4.220000E+03	2.329136E-11	3.732852E-12
4.230000E+03	2.389290E-11	3.662319E-12
4.240000E+03	2.450155E-11	3.577168E-12
4.250000E+03	2.512237E-11	3.477502E-12
4.260000E+03	2.574916E-11	3.361849E-12
4.270000E+03	2.639101E-11	3.230883E-12
4.280000E+03	2.704150E-11	3.083334E-12
4.290000E+03	2.771015E-11	2.920001E-12
4.300000E+03	2.839449E-11	2.740472E-12
4.310000E+03	2.909607E-11	2.545204E-12
4.320000E+03	2.981206E-11	2.334956E-12
4.330000E+03	3.055277E-11	2.112686E-12
4.340000E+03	3.131554E-11	1.882281E-12
4.350000E+03	3.210206E-11	1.651748E-12
4.360000E+03	3.291412E-11	1.436035E-12
4.370000E+03	3.375359E-11	1.262007E-12
4.380000E+03	3.462232E-11	1.171104E-12
4.390000E+03	3.552194E-11	1.204818E-12
4.400000E+03	3.645348E-11	1.372268E-12
4.410000E+03	3.741737E-11	1.646730E-12
4.420000E+03	3.841361E-11	1.994932E-12
4.430000E+03	3.944200E-11	2.393312E-12
4.440000E+03	4.050223E-11	2.827759E-12
4.450000E+03	4.159972E-11	3.290448E-12
4.460000E+03	4.272226E-11	3.775466E-12
4.470000E+03	4.387482E-11	4.279937E-12
4.480000E+03	4.505640E-11	4.801584E-12
4.490000E+03	4.627222E-11	5.339429E-12
4.500000E+03	4.750810E-11	5.890658E-12
4.510000E+03	4.876859E-11	6.454700E-12
4.520000E+03	5.005858E-11	7.031355E-12
4.530000E+03	5.136218E-11	7.617613E-12
4.540000E+03	5.268360E-11	8.213187E-12
4.550000E+03	5.402742E-11	8.818054E-12
4.560000E+03	5.537608E-11	9.428607E-12
4.570000E+03	5.673356E-11	1.004461E-11
4.580000E+03	5.810428E-11	1.066609E-11
4.590000E+03	5.946920E-11	1.128874E-11
4.600000E+03	6.084047E-11	1.191399E-11
4.610000E+03	6.219821E-11	1.253711E-11
4.620000E+03	6.354664E-11	1.315800E-11
4.630000E+03	6.489059E-11	1.377682E-11
4.640000E+03	6.620928E-11	1.438833E-11
4.650000E+03	6.750755E-11	1.499264E-11
4.660000E+03	6.879089E-11	1.559016E-11
4.670000E+03	7.003808E-11	1.617529E-11
4.680000E+03	7.126411E-11	1.675064E-11
4.690000E+03	7.244760E-11	1.731047E-11
4.700000E+03	7.359500E-11	1.785549E-11
4.710000E+03	7.471348E-11	1.838678E-11
4.720000E+03	7.578165E-11	1.889846E-11
4.730000E+03	7.680707E-11	1.939172E-11
4.740000E+03	7.778802E-11	1.986556E-11
4.750000E+03	7.873301E-11	2.032167E-11
4.760000E+03	7.962082E-11	2.075410E-11
4.770000E+03	8.046032E-11	2.116467E-11
4.780000E+03	8.125062E-11	2.155277E-11
4.790000E+03	8.199104E-11	2.191786E-11
4.800000E+03	8.269139E-11	2.226227E-11
4.810000E+03	8.333060E-11	2.258007E-11
4.820000E+03	8.391871E-11	2.287370E-11
4.830000E+03	8.445560E-11	2.314293E-11
4.840000E+03	8.494124E-11	2.338758E-11
4.850000E+03	8.537576E-11	2.360752E-11
4.860000E+03	8.575940E-11	2.380271E-11
4.870000E+03	8.608198E-11	2.397022E-11
4.880000E+03	8.636515E-11	2.411597E-11
4.890000E+03	8.659903E-11	2.423718E-11
4.900000E+03	8.678448E-11	2.433404E-11
4.910000E+03	8.691203E-11	2.440386E-11
4.920000E+03	8.700397E-11	2.445288E-11
4.930000E+03	8.705122E-11	2.447854E-11
4.940000E+03	8.704500E-11	2.447838E-11
4.950000E+03	8.700813E-11	2.445883E-11
4.960000E+03	8.692188E-11	2.441463E-11
4.970000E+03	8.679906E-11	2.434938E-11
4.980000E+03	8.665252E-11	2.426672E-11
4.990000E+03	8.646441E-11	2.416163E-11
5.000000E+03	8.624804E-11	2.403786E-11
5.010000E+03	8.600652E-11	2.389625E-11
5.020000E+03	8.574311E-11	2.373771E-11
5.030000E+03	8.546118E-11	2.356311E-11
5.040000E+03	8.516416E-11	2.337336E-11
5.050000E+03	8.485552E-11	2.316934E-11
5.060000E+03	8.453873E-11	2.295187E-11
5.070000E+03	8.421720E-11	2.272178E-11
5.080000E+03	8.388458E-11	2.247720E-11
5.090000E+03	8.356352E-11	2.222402E-11
5.100000E+03	8.323776E-11	2.195769E-11
5.110000E+03	8.292933E-11	2.168377E-11
5.120000E+03	8.262182E-11	2.139765E-11
5.130000E+03	8.232716E-11	2.110212E-11
5.140000E+03	8.204743E-11	2.079735E-11
5.150000E+03	8.179371E-11	2.048567E-11
5.160000E+03	8.154891E-11	2.016233E-11
5.170000E+03	8.131436E-11	1.982723E-11
5.180000E+03	8.110925E-11	1.948456E-11
5.190000E+03	8.092491E-11	1.913159E-11
5.200000E+03	8.076151E-11	1.876774E-11
5.210000E+03	8.060992E-11	1.839030E-11
5.220000E+03	8.047876E-11	1.800065E-11
5.230000E+03	8.037619E-11	1.759991E-11
5.240000E+03	8.028329E-11	1.718320E-11
5.250000E+03	8.020766E-11	1.675155E-11
5.260000E+03	8.014773E-11	1.630395E-11
5.270000E+03	8.010163E-11	1.583933E-11
5.280000E+03	8.006730E-11	1.535666E-11
5.290000E+03	8.004244E-11	1.485486E-11
5.300000E+03	8.001580E-11	1.433134E-11
5.310000E+03	8.000220E-11	1.378830E-11
5.320000E+03	7.998132E-11	1.322173E-11
5.330000E+03	7.995888E-11	1.263235E-11
5.340000E+03	7.993173E-11	1.201941E-11
5.350000E+03	7.989659E-11	1.138227E-11
5.360000E+03	7.985012E-11	1.072045E-11
5.370000E+03	7.978887E-11	1.003363E-11
5.380000E+03	7.970936E-11	9.321696E-12
5.390000E+03	7.959962E-11	8.583866E-12
5.400000E+03	7.947323E-11	7.822475E-12
5.410000E+03	7.930983E-11	7.036565E-12
5.420000E+03	7.911468E-11	6.228351E-12
5.430000E+03	7.888471E-11	5.399867E-12
5.440000E+03	7.861707E-11	4.554386E-12
5.450000E+03	7.830923E-11	3.697561E-12
5.460000E+03	7.795079E-11	2.840206E-12
5.470000E+03	7.755648E-11	2.009807E-12
5.480000E+03	7.710871E-11	1.292287E-12
5.490000E+03	7.662306E-11	9.990966E-13
5.500000E+03	7.608338E-11	1.410380E-12
5.510000E+03	7.549839E-11	2.127908E-12
5.520000E+03	7.486155E-11	2.905350E-12
5.530000E+03	7.419045E-11	3.678851E-12
5.540000E+03	7.347970E-11	4.427598E-12
5.550000E+03	7.272480E-11	5.142716E-12
5.560000E+03	7.193699E-11	5.820779E-12
5.570000E+03	7.112026E-11	6.460054E-12
5.580000E+03	7.027896E-11	7.059937E-12
5.590000E+03	6.941777E-11	7.620540E-12
5.600000E+03	6.854164E-11	8.142478E-12
5.610000E+03	6.764875E-11	8.625872E-12
5.620000E+03	6.675832E-11	9.073763E-12
5.630000E+03	6.586188E-11	9.485924E-12
5.640000E+03	6.497165E-11	9.865042E-12
5.650000E+03	6.409282E-11	1.021309E-11
5.660000E+03	6.323042E-11	1.053218E-11
5.670000E+03	6.238298E-11	1.082342E-11
5.680000E+03	6.156779E-11	1.109125E-11
5.690000E+03	6.077657E-11	1.133573E-11
5.700000E+03	6.001954E-11	1.156027E-11
5.710000E+03	5.930019E-11	1.176710E-11
5.720000E+03	5.862162E-11	1.195841E-11
5.730000E+03	5.798645E-11	1.213630E-11
5.740000E+03	5.739111E-11	1.230149E-11
5.750000E+03	5.684887E-11	1.245828E-11
5.760000E+03	5.634952E-11	1.260587E-11
5.770000E+03	5.589954E-11	1.274701E-11
5.780000E+03	5.549923E-11	1.288303E-11
5.790000E+03	5.514293E-11	1.301382E-11
5.800000E+03	5.484105E-11	1.314293E-11
5.810000E+03	5.458166E-11	1.326854E-11
5.820000E+03	5.436888E-11	1.339258E-11
5.830000E+03	5.420098E-11	1.351548E-11
5.840000E+03	5.407597E-11	1.363753E-11
5.850000E+03	5.399161E-11	1.375887E-11
5.860000E+03	5.394013E-11	1.387812E-11
5.870000E+03	5.392959E-11	1.399789E-11
5.880000E+03	5.394669E-11	1.411523E-11
5.890000E+03	5.399405E-11	1.423120E-11
5.900000E+03	5.406370E-11	1.434405E-11
5.910000E+03	5.416362E-11	1.445618E-11
5.920000E+03	5.428078E-11	1.456436E-11
5.930000E+03	5.442353E-11	1.467103E-11
5.940000E+03	5.457925E-11	1.477293E-11
5.950000E+03	5.475149E-11	1.487114E-11
5.960000E+03	5.493884E-11	1.496535E-11
5.970000E+03	5.513486E-11	1.505385E-11
5.980000E+03	5.534414E-11	1.513789E-11
5.990000E+03	5.557170E-11	1.521883E-11
6.000000E+03	5.580675E-11	1.529369E-11
6.010000E+03	5.605500E-11	1.536394E-11
6.020000E+03	5.631166E-11	1.542816E-11
6.030000E+03	5.658856E-11	1.548948E-11
6.040000E+03	5.687604E-11	1.554506E-11
6.050000E+03	5.718102E-11	1.559662E-11
6.060000E+03	5.750522E-11	1.564437E-11
6.070000E+03	5.785050E-11	1.568854E-11
6.080000E+03	5.821330E-11	1.572786E-11
6.090000E+03	5.860692E-11	1.576554E-11
6.100000E+03	5.902236E-11	1.579873E-11
6.110000E+03	5.946747E-11	1.582908E-11
6.120000E+03	5.994456E-11	1.585666E-11
6.130000E+03	6.045593E-11	1.588147E-11
6.140000E+03	6.099804E-11	1.590192E-11
6.150000E+03	6.157889E-11	1.591937E-11
6.160000E+03	6.220663E-11	1.593510E-11
6.170000E+03	6.287161E-11	1.594569E-11
6.180000E+03	6.357575E-11	1.595070E-11
6.190000E+03	6.433312E-11	1.595257E-11
6.200000E+03	6.513347E-11	1.594756E-11
6.210000E+03	6.598467E-11	1.593634E-11
6.220000E+03	6.689479E-11	1.591946E-11
6.230000E+03	6.784633E-11	1.589123E-11
6.240000E+03	6.885976E-11	1.585491E-11
6.250000E+03	6.992333E-11	1.580602E-11
6.260000E+03	7.105116E-11	1.574595E-11
6.270000E+03	7.223061E-11	1.566989E-11
6.280000E+03	7.346866E-11	1.557733E-11
6.290000E+03	7.476527E-11	1.546606E-11
6.300000E+03	7.611274E-11	1.533221E-11
6.310000E+03	7.751694E-11	1.517465E-11
6.320000E+03	7.898358E-11	1.499194E-11
6.330000E+03	8.049536E-11	1.477821E-11
6.340000E+03	8.205622E-11	1.453165E-11
6.350000E+03	8.365387E-11	1.424749E-11
6.360000E+03	8.529843E-11	1.392489E-11
6.370000E+03	8.696722E-11	1.355752E-11
6.380000E+03	8.866003E-11	1.314300E-11
6.390000E+03	9.036730E-11	1.267762E-11
6.400000E+03	9.207801E-11	1.215777E-11
6.410000E+03	9.377074E-11	1.157892E-11
6.420000E+03	9.544889E-11	1.094024E-11
6.430000E+03	9.707909E-11	1.023700E-11
6.440000E+03	9.865326E-11	9.468346E-12
6.450000E+03	1.001533E-10	8.633241E-12
6.460000E+03	1.015508E-10	7.731122E-12
6.470000E+03	1.028451E-10	6.765411E-12
6.480000E+03	1.039975E-10	5.739256E-12
6.490000E+03	1.049979E-10	4.662530E-12
6.500000E+03	1.058279E-10	3.554494E-12
6.510000E+03	1.064700E-10	2.463990E-12
6.520000E+03	1.068989E-10	1.560942E-12
6.530000E+03	1.071213E-10	1.412314E-12
6.540000E+03	1.071073E-10	2.193300E-12
6.550000E+03	1.068604E-10	3.276323E-12
6.560000E+03	1.063776E-10	4.410064E-12
6.570000E+03	1.056497E-10	5.524952E-12
6.580000E+03	1.047012E-10	6.594553E-12
6.590000E+03	1.035203E-10	7.603227E-12
6.600000E+03	1.021284E-10	8.542525E-12
6.610000E+03	1.005402E-10	9.406618E-12
6.620000E+03	9.877302E-11	1.019189E-11
6.630000E+03	9.684624E-11	1.089650E-11
6.640000E+03	9.477216E-11	1.151906E-11
6.650000E+03	9.258233E-11	1.206159E-11
6.660000E+03	9.030804E-11	1.252749E-11
6.670000E+03	8.795493E-11	1.291773E-11
6.680000E+03	8.554602E-11	1.323627E-11
6.690000E+03	8.311902E-11	1.349035E-11
6.700000E+03	8.067830E-11	1.368272E-11
6.710000E+03	7.825788E-11	1.382154E-11
6.720000E+03	7.585974E-11	1.391000E-11
6.730000E+03	7.350653E-11	1.395520E-11
6.740000E+03	7.120469E-11	1.396156E-11
6.750000E+03	6.897902E-11	1.393727E-11
6.760000E+03	6.682568E-11	1.388501E-11
6.770000E+03	6.476504E-11	1.381237E-11
6.780000E+03	6.279062E-11	1.372138E-11
6.790000E+03	6.091310E-11	1.361757E-11
6.800000E+03	5.912998E-11	1.350353E-11
6.810000E+03	5.745438E-11	1.338525E-11
6.820000E+03	5.587615E-11	1.326327E-11
6.830000E+03	5.440587E-11	1.314280E-11
6.840000E+03	5.303235E-11	1.302369E-11
6.850000E+03	5.175944E-11	1.290924E-11
6.860000E+03	5.058523E-11	1.280118E-11
6.870000E+03	4.950279E-11	1.269979E-11
6.880000E+03	4.851901E-11	1.260872E-11
6.890000E+03	4.762188E-11	1.252661E-11
6.900000E+03	4.681319E-11	1.245551E-11
6.910000E+03	4.609000E-11	1.239611E-11
6.920000E+03	4.544934E-11	1.234896E-11
6.930000E+03	4.488826E-11	1.231451E-11
6.940000E+03	4.439967E-11	1.229192E-11
6.950000E+03	4.398918E-11	1.228377E-11
6.960000E+03	4.364566E-11	1.228794E-11
6.970000E+03	4.337067E-11	1.230569E-11
6.980000E+03	4.316165E-11	1.233712E-11
6.990000E+03	4.301613E-11	1.238224E-11
7.000000E+03	4.292769E-11	1.243988E-11
7.010000E+03	4.290223E-11	1.251237E-11
7.020000E+03	4.292941E-11	1.259727E-11
7.030000E+03	4.301121E-11	1.269568E-11
7.040000E+03	4.314556E-11	1.280749E-11
7.050000E+03	4.333048E-11	1.293257E-11
7.060000E+03	4.356399E-11	1.307076E-11
7.070000E+03	4.384415E-11	1.322186E-11
7.080000E+03	4.416476E-11	1.338439E-11
7.090000E+03	4.452799E-11	1.355932E-11
7.100000E+03	4.493608E-11	1.374767E-11
7.110000E+03	4.537835E-11	1.394647E-11
7.120000E+03	4.585684E-11	1.415662E-11
7.130000E+03	4.636479E-11	1.437626E-11
7.140000E+03	4.690856E-11	1.460760E-11
7.150000E+03	4.748116E-11	1.484867E-11
7.160000E+03	4.807519E-11	1.509732E-11
7.170000E+03	4.869220E-11	1.535419E-11
7.180000E+03	4.932906E-11	1.561839E-11
7.190000E+03	4.998247E-11	1.588899E-11
7.200000E+03	5.064896E-11	1.616493E-11
7.210000E+03	5.132489E-11	1.644509E-11
7.220000E+03	5.200150E-11	1.672662E-11
7.230000E+03	5.268490E-11	1.701145E-11
7.240000E+03	5.336105E-11	1.729497E-11
7.250000E+03	5.403103E-11	1.757739E-11
7.260000E+03	5.469092E-11	1.785728E-11
7.270000E+03	5.533692E-11	1.813318E-11
7.280000E+03	5.596535E-11	1.840367E-11
7.290000E+03	5.656723E-11	1.866551E-11
7.300000E+03	5.715033E-11	1.892094E-11
7.310000E+03	5.770072E-11	1.916503E-11
7.320000E+03	5.822712E-11	1.940030E-11
7.330000E+03	5.871617E-11	1.962191E-11
7.340000E+03	5.917194E-11	1.983080E-11
7.350000E+03	5.959338E-11	2.002618E-11
7.360000E+03	5.997993E-11	2.020743E-11
7.370000E+03	6.032568E-11	2.037210E-11
7.380000E+03	6.064292E-11	2.052388E-11
7.390000E+03	6.092082E-11	2.065866E-11
7.400000E+03	6.117281E-11	2.078054E-11
7.410000E+03	6.138882E-11	2.088565E-11
7.420000E+03	6.157718E-11	2.097639E-11
7.430000E+03	6.174057E-11	2.105324E-11
7.440000E+03	6.188196E-11	2.111680E-11
7.450000E+03	6.199840E-11	2.116564E-11
7.460000E+03	6.210550E-11	2.120470E-11
7.470000E+03	6.220058E-11	2.123268E-11
7.480000E+03	6.228096E-11	2.124827E-11
7.490000E+03	6.235625E-11	2.125439E-11
7.500000E+03	6.243609E-11	2.125393E-11
7.510000E+03	6.251132E-11	2.124339E-11
7.520000E+03	6.259125E-11	2.122555E-11
7.530000E+03	6.267878E-11	2.120102E-11
7.540000E+03	6.277029E-11	2.116816E-11
7.550000E+03	6.288071E-11	2.113159E-11
7.560000E+03	6.300587E-11	2.108946E-11
7.570000E+03	6.314120E-11	2.103978E-11
7.580000E+03	6.329446E-11	2.098469E-11
7.590000E+03	6.347317E-11	2.092616E-11
7.600000E+03	6.366535E-11	2.085970E-11
7.610000E+03	6.387782E-11	2.078702E-11
7.620000E+03	6.411074E-11	2.070757E-11
7.630000E+03	6.436392E-11	2.062071E-11
7.640000E+03	6.463034E-11	2.052357E-11
7.650000E+03	6.492236E-11	2.041946E-11
7.660000E+03	6.523247E-11	2.030530E-11
7.670000E+03	6.555279E-11	2.017798E-11
7.680000E+03	6.589529E-11	2.004053E-11
7.690000E+03	6.624501E-11	1.988767E-11
7.700000E+03	6.660700E-11	1.972028E-11
7.710000E+03	6.697956E-11	1.953716E-11
7.720000E+03	6.736092E-11	1.933709E-11
7.730000E+03	6.774933E-11	1.911890E-11
7.740000E+03	6.814310E-11	1.888145E-11
7.750000E+03	6.854056E-11	1.862362E-11
7.760000E+03	6.894019E-11	1.834435E-11
