#wls	flux	fluxerr
1.570938E+03	4.913526E-03	2.556813E-04
1.610211E+03	5.144915E-03	2.661584E-04
1.649485E+03	5.395553E-03	2.774468E-04
1.688758E+03	5.666815E-03	2.895928E-04
1.728031E+03	5.961594E-03	3.027173E-04
1.767305E+03	6.281558E-03	3.168742E-04
1.806578E+03	6.629214E-03	3.321564E-04
1.845852E+03	7.007241E-03	3.486603E-04
1.885125E+03	7.417666E-03	3.664452E-04
1.924399E+03	7.865967E-03	3.857349E-04
1.963672E+03	8.352790E-03	4.065084E-04
2.002946E+03	8.884971E-03	4.290407E-04
2.042219E+03	9.466094E-03	4.534383E-04
2.081492E+03	1.010176E-02	4.798961E-04
2.120766E+03	1.079882E-02	5.086552E-04
2.160039E+03	1.156546E-02	5.400059E-04
2.199313E+03	1.241017E-02	5.742361E-04
2.238586E+03	1.334162E-02	6.116223E-04
2.277860E+03	1.436955E-02	6.524718E-04
2.317133E+03	1.549734E-02	6.967834E-04
2.356406E+03	1.673070E-02	7.446488E-04
2.395680E+03	1.806729E-02	7.957901E-04
2.434953E+03	1.950727E-02	8.500365E-04
2.474227E+03	2.104640E-02	9.070233E-04
2.513500E+03	2.267655E-02	9.662220E-04
2.552774E+03	2.438625E-02	1.026976E-03
2.592047E+03	2.615558E-02	1.088298E-03
2.631321E+03	2.796403E-02	1.149209E-03
2.670594E+03	2.977659E-02	1.208188E-03
2.709867E+03	3.155648E-02	1.263713E-03
2.749141E+03	3.325763E-02	1.313977E-03
2.788414E+03	3.482496E-02	1.356924E-03
2.827688E+03	3.620428E-02	1.390663E-03
2.866961E+03	3.733906E-02	1.413339E-03
2.906235E+03	3.817521E-02	1.423332E-03
2.945508E+03	3.866197E-02	1.419278E-03
2.955326E+03	3.872503E-02	1.415992E-03
2.965145E+03	3.876139E-02	1.411700E-03
2.974963E+03	3.877139E-02	1.406425E-03
2.984782E+03	3.875660E-02	1.400237E-03
2.994600E+03	3.871489E-02	1.393068E-03
3.004418E+03	3.864547E-02	1.384904E-03
3.014237E+03	3.854998E-02	1.375815E-03
3.024055E+03	3.842544E-02	1.365707E-03
3.033873E+03	3.827479E-02	1.354697E-03
3.043692E+03	3.809641E-02	1.342741E-03
3.053510E+03	3.789005E-02	1.329842E-03
3.063328E+03	3.765774E-02	1.316084E-03
3.073147E+03	3.739845E-02	1.301444E-03
3.082965E+03	3.711451E-02	1.286014E-03
3.092784E+03	3.680537E-02	1.269788E-03
3.102602E+03	3.647189E-02	1.252806E-03
3.112420E+03	3.611806E-02	1.235218E-03
3.122239E+03	3.574348E-02	1.217018E-03
3.132057E+03	3.535188E-02	1.198344E-03
3.141875E+03	3.494564E-02	1.179285E-03
3.151694E+03	3.452763E-02	1.159943E-03
3.161512E+03	3.410209E-02	1.140467E-03
3.171330E+03	3.367290E-02	1.120990E-03
3.181149E+03	3.324598E-02	1.101711E-03
3.190967E+03	3.282453E-02	1.082734E-03
3.200785E+03	3.241509E-02	1.064273E-03
3.210604E+03	3.202280E-02	1.046491E-03
3.220422E+03	3.165344E-02	1.029567E-03
3.230241E+03	3.131112E-02	1.013627E-03
3.240059E+03	3.100085E-02	9.988182E-04
3.249877E+03	3.072625E-02	9.852432E-04
3.259696E+03	3.049071E-02	9.729941E-04
3.269514E+03	3.029599E-02	9.621095E-04
3.279332E+03	3.014231E-02	9.525775E-04
3.289151E+03	3.003003E-02	9.443914E-04
3.298969E+03	2.995745E-02	9.374788E-04
3.308787E+03	2.992311E-02	9.317764E-04
3.318606E+03	2.992371E-02	9.271648E-04
3.328424E+03	2.995591E-02	9.235250E-04
3.338243E+03	3.001538E-02	9.207101E-04
3.348061E+03	3.009802E-02	9.185824E-04
3.357879E+03	3.019906E-02	9.169873E-04
3.367698E+03	3.031423E-02	9.157873E-04
3.377516E+03	3.043792E-02	9.148080E-04
3.387334E+03	3.056676E-02	9.139447E-04
3.397153E+03	3.069628E-02	9.130629E-04
3.406971E+03	3.082250E-02	9.120452E-04
3.416789E+03	3.094297E-02	9.108212E-04
3.426608E+03	3.105449E-02	9.093006E-04
3.436426E+03	3.115507E-02	9.074304E-04
3.446244E+03	3.124441E-02	9.052074E-04
3.456063E+03	3.132128E-02	9.026021E-04
3.465881E+03	3.138714E-02	8.996624E-04
3.475700E+03	3.144264E-02	8.964132E-04
3.485518E+03	3.149109E-02	8.929533E-04
3.495336E+03	3.153495E-02	8.893562E-04
3.505155E+03	3.157851E-02	8.857451E-04
3.514973E+03	3.162586E-02	8.822350E-04
3.524791E+03	3.168152E-02	8.789499E-04
3.534610E+03	3.174944E-02	8.759964E-04
3.544428E+03	3.182868E-02	8.733435E-04
3.554246E+03	3.191822E-02	8.709589E-04
3.564065E+03	3.201579E-02	8.687769E-04
3.573883E+03	3.212042E-02	8.667685E-04
3.583702E+03	3.223074E-02	8.648942E-04
3.593520E+03	3.234679E-02	8.631532E-04
3.603338E+03	3.246770E-02	8.615205E-04
3.613157E+03	3.259332E-02	8.599907E-04
3.622975E+03	3.272355E-02	8.585602E-04
3.632793E+03	3.285712E-02	8.571941E-04
3.642612E+03	3.299314E-02	8.558688E-04
3.652430E+03	3.312903E-02	8.545179E-04
3.662248E+03	3.326280E-02	8.530909E-04
3.672067E+03	3.339176E-02	8.515211E-04
3.681885E+03	3.351286E-02	8.497345E-04
3.691703E+03	3.362405E-02	8.476838E-04
3.701522E+03	3.372362E-02	8.453315E-04
3.711340E+03	3.381137E-02	8.426782E-04
3.721159E+03	3.388837E-02	8.397569E-04
3.730977E+03	3.395805E-02	8.366578E-04
3.740795E+03	3.402581E-02	8.335174E-04
3.750614E+03	3.410214E-02	8.305928E-04
3.760432E+03	3.420014E-02	8.281990E-04
3.770250E+03	3.433718E-02	8.267464E-04
3.780069E+03	3.453040E-02	8.266300E-04
3.789887E+03	3.479807E-02	8.282636E-04
3.799705E+03	3.515581E-02	8.319875E-04
3.809524E+03	3.561645E-02	8.380692E-04
3.819342E+03	3.618720E-02	8.466381E-04
3.829161E+03	3.686973E-02	8.576917E-04
3.838979E+03	3.765972E-02	8.710884E-04
3.848797E+03	3.854440E-02	8.864964E-04
3.858616E+03	3.950401E-02	9.034303E-04
3.868434E+03	4.051361E-02	9.212989E-04
3.878252E+03	4.154403E-02	9.394285E-04
3.888071E+03	4.256396E-02	9.571122E-04
3.897889E+03	4.354484E-02	9.737210E-04
3.907707E+03	4.446513E-02	9.887963E-04
3.917526E+03	4.531147E-02	1.002071E-03
3.927344E+03	4.607743E-02	1.013435E-03
3.937162E+03	4.676474E-02	1.022963E-03
3.946981E+03	4.737972E-02	1.030824E-03
3.956799E+03	4.792823E-02	1.037176E-03
3.966618E+03	4.841359E-02	1.042118E-03
3.976436E+03	4.883338E-02	1.045626E-03
3.986254E+03	4.918337E-02	1.047635E-03
3.996073E+03	4.945360E-02	1.047963E-03
4.005891E+03	4.963514E-02	1.046450E-03
4.015709E+03	4.971817E-02	1.042925E-03
4.025528E+03	4.969593E-02	1.037279E-03
4.035346E+03	4.956433E-02	1.029463E-03
4.045164E+03	4.932194E-02	1.019483E-03
4.054983E+03	4.897074E-02	1.007415E-03
4.064801E+03	4.851491E-02	9.933763E-04
4.074620E+03	4.795989E-02	9.775077E-04
4.084438E+03	4.731316E-02	9.599882E-04
4.094256E+03	4.658579E-02	9.410646E-04
4.104075E+03	4.579193E-02	9.210411E-04
4.113893E+03	4.494899E-02	9.002805E-04
4.123711E+03	4.407905E-02	8.792323E-04
4.133530E+03	4.321102E-02	8.584735E-04
4.143348E+03	4.237965E-02	8.386873E-04
4.153166E+03	4.162224E-02	8.205963E-04
4.162985E+03	4.097374E-02	8.048673E-04
4.172803E+03	4.046508E-02	7.920789E-04
4.182622E+03	4.011780E-02	7.826207E-04
4.192440E+03	3.994451E-02	7.767050E-04
4.202258E+03	3.994452E-02	7.742860E-04
4.212077E+03	4.010466E-02	7.750802E-04
4.221895E+03	4.040248E-02	7.786304E-04
4.231713E+03	4.080477E-02	7.842808E-04
4.241532E+03	4.127323E-02	7.912869E-04
4.251350E+03	4.176834E-02	7.988898E-04
4.261168E+03	4.225035E-02	8.063339E-04
4.270987E+03	4.268348E-02	8.129461E-04
4.280805E+03	4.303725E-02	8.181592E-04
4.290623E+03	4.328603E-02	8.215003E-04
4.300442E+03	4.340774E-02	8.225661E-04
4.310260E+03	4.338437E-02	8.210293E-04
4.320079E+03	4.322226E-02	8.170215E-04
4.329897E+03	4.295110E-02	8.111093E-04
4.339715E+03	4.260537E-02	8.039438E-04
4.349534E+03	4.222036E-02	7.961881E-04
4.359352E+03	4.183327E-02	7.885384E-04
4.369170E+03	4.148202E-02	7.817028E-04
4.378989E+03	4.120053E-02	7.763140E-04
4.388807E+03	4.102113E-02	7.729757E-04
4.398625E+03	4.097068E-02	7.721901E-04
4.408444E+03	4.106930E-02	7.743346E-04
4.418262E+03	4.133073E-02	7.796700E-04
4.428081E+03	4.175915E-02	7.882792E-04
4.437899E+03	4.234787E-02	8.000429E-04
4.447717E+03	4.308050E-02	8.146603E-04
4.457536E+03	4.393564E-02	8.317369E-04
4.467354E+03	4.488606E-02	8.507678E-04
4.477172E+03	4.590098E-02	8.711792E-04
4.486991E+03	4.694835E-02	8.923713E-04
4.496809E+03	4.799647E-02	9.137474E-04
4.506627E+03	4.901301E-02	9.346946E-04
4.516446E+03	4.996456E-02	9.545750E-04
4.526264E+03	5.081598E-02	9.727120E-04
4.536082E+03	5.153068E-02	9.883944E-04
4.545901E+03	5.207411E-02	1.000943E-03
4.555719E+03	5.241686E-02	1.009770E-03
4.565538E+03	5.253459E-02	1.014378E-03
4.575356E+03	5.241231E-02	1.014443E-03
4.585174E+03	5.204433E-02	1.009819E-03
4.594993E+03	5.143744E-02	1.000597E-03
4.604811E+03	5.060935E-02	9.870795E-04
4.614629E+03	4.959034E-02	9.698184E-04
4.624448E+03	4.842076E-02	9.495672E-04
4.634266E+03	4.715259E-02	9.273158E-04
4.644084E+03	4.584458E-02	9.041981E-04
4.653903E+03	4.455992E-02	8.814499E-04
4.663721E+03	4.336286E-02	8.603423E-04
4.673540E+03	4.231865E-02	8.421827E-04
4.683358E+03	4.148268E-02	8.280989E-04
4.693176E+03	4.089602E-02	8.189466E-04
4.702995E+03	4.057849E-02	8.151667E-04
4.712813E+03	4.053239E-02	8.168540E-04
4.722631E+03	4.074239E-02	8.237485E-04
4.732450E+03	4.117493E-02	8.352185E-04
4.742268E+03	4.178233E-02	8.503365E-04
4.752086E+03	4.250918E-02	8.680057E-04
4.761905E+03	4.329835E-02	8.870796E-04
4.771723E+03	4.409370E-02	9.064162E-04
4.781541E+03	4.484535E-02	9.249877E-04
4.791360E+03	4.551868E-02	9.420678E-04
4.801178E+03	4.609284E-02	9.572060E-04
4.810997E+03	4.655947E-02	9.702065E-04
4.820815E+03	4.692454E-02	9.811694E-04
4.830633E+03	4.720315E-02	9.903889E-04
4.840452E+03	4.741043E-02	9.981632E-04
4.850270E+03	4.755858E-02	1.004733E-03
4.860088E+03	4.765600E-02	1.010262E-03
4.869907E+03	4.770163E-02	1.014715E-03
4.879725E+03	4.768811E-02	1.017922E-03
4.889543E+03	4.760201E-02	1.019582E-03
4.899362E+03	4.742913E-02	1.019370E-03
4.909180E+03	4.715917E-02	1.017045E-03
4.918999E+03	4.678471E-02	1.012423E-03
4.928817E+03	4.630478E-02	1.005458E-03
4.938635E+03	4.572605E-02	9.962710E-04
4.948454E+03	4.506322E-02	9.851604E-04
4.958272E+03	4.433738E-02	9.725689E-04
4.968090E+03	4.357676E-02	9.591029E-04
4.977909E+03	4.281429E-02	9.454810E-04
4.987727E+03	4.208323E-02	9.324390E-04
4.997545E+03	4.141429E-02	9.206657E-04
5.007364E+03	4.083457E-02	9.107787E-04
5.017182E+03	4.036175E-02	9.031931E-04
5.027000E+03	4.000223E-02	8.980750E-04
5.036819E+03	3.975489E-02	8.954239E-04
5.046637E+03	3.961166E-02	8.950811E-04
5.056456E+03	3.956195E-02	8.968292E-04
5.066274E+03	3.959210E-02	9.003771E-04
5.076092E+03	3.968835E-02	9.054276E-04
5.085911E+03	3.983661E-02	9.116719E-04
5.095729E+03	4.002442E-02	9.188346E-04
5.105547E+03	4.024002E-02	9.266525E-04
5.115366E+03	4.047382E-02	9.349097E-04
5.125184E+03	4.071968E-02	9.434672E-04
5.135002E+03	4.097278E-02	9.522144E-04
5.144821E+03	4.123083E-02	9.610992E-04
5.154639E+03	4.149367E-02	9.701181E-04
5.164458E+03	4.176055E-02	9.792540E-04
5.174276E+03	4.203102E-02	9.884963E-04
5.184094E+03	4.230128E-02	9.977557E-04
5.193913E+03	4.256597E-02	1.006905E-03
5.203731E+03	4.281695E-02	1.015749E-03
5.213549E+03	4.304388E-02	1.024038E-03
5.223368E+03	4.323539E-02	1.031496E-03
5.233186E+03	4.338406E-02	1.037938E-03
5.243004E+03	4.348283E-02	1.043185E-03
5.252823E+03	4.352583E-02	1.047087E-03
5.262641E+03	4.350989E-02	1.049554E-03
5.272459E+03	4.343205E-02	1.050505E-03
5.282278E+03	4.329214E-02	1.049922E-03
5.292096E+03	4.308965E-02	1.047782E-03
5.301915E+03	4.282640E-02	1.044116E-03
5.311733E+03	4.250664E-02	1.039018E-03
5.321551E+03	4.213611E-02	1.032617E-03
5.331370E+03	4.172442E-02	1.025141E-03
5.341188E+03	4.128530E-02	1.016920E-03
5.351006E+03	4.083549E-02	1.008363E-03
5.360825E+03	4.039369E-02	9.999315E-04
5.370643E+03	3.997540E-02	9.920118E-04
5.380461E+03	3.959155E-02	9.848796E-04
5.390280E+03	3.924869E-02	9.787047E-04
5.400098E+03	3.894685E-02	9.734950E-04
5.409917E+03	3.867857E-02	9.690709E-04
5.419735E+03	3.843242E-02	9.651511E-04
5.429553E+03	3.819833E-02	9.614861E-04
5.439372E+03	3.796848E-02	9.578802E-04
5.449190E+03	3.773578E-02	9.541549E-04
5.459008E+03	3.749687E-02	9.502245E-04
5.468827E+03	3.724759E-02	9.459822E-04
5.478645E+03	3.698587E-02	9.413738E-04
5.488463E+03	3.670944E-02	9.363389E-04
5.498282E+03	3.641627E-02	9.308239E-04
5.508100E+03	3.610391E-02	9.247628E-04
5.517919E+03	3.576879E-02	9.180615E-04
5.527737E+03	3.540457E-02	9.105537E-04
5.537555E+03	3.500509E-02	9.020762E-04
5.547374E+03	3.456257E-02	8.924232E-04
5.557192E+03	3.406785E-02	8.813516E-04
5.567010E+03	3.351560E-02	8.687165E-04
5.576829E+03	3.290652E-02	8.545281E-04
5.586647E+03	3.225055E-02	8.390376E-04
5.596465E+03	3.156579E-02	8.227115E-04
5.606284E+03	3.087732E-02	8.062012E-04
5.616102E+03	3.021558E-02	7.903043E-04
5.625920E+03	2.961283E-02	7.758705E-04
5.635739E+03	2.909878E-02	7.636884E-04
5.645557E+03	2.869816E-02	7.544213E-04
5.655376E+03	2.842915E-02	7.485632E-04
5.665194E+03	2.830232E-02	7.464100E-04
5.675012E+03	2.831873E-02	7.480077E-04
5.684831E+03	2.847115E-02	7.531824E-04
5.694649E+03	2.874714E-02	7.616207E-04
5.704467E+03	2.912679E-02	7.728080E-04
5.714286E+03	2.958728E-02	7.861492E-04
5.724104E+03	3.010649E-02	8.010631E-04
5.733922E+03	3.066322E-02	8.169905E-04
5.743741E+03	3.123977E-02	8.334614E-04
5.753559E+03	3.182055E-02	8.500600E-04
5.763378E+03	3.239262E-02	8.664393E-04
5.773196E+03	3.294520E-02	8.823077E-04
5.783014E+03	3.346570E-02	8.973241E-04
5.792833E+03	3.394103E-02	9.111331E-04
5.802651E+03	3.435600E-02	9.233204E-04
5.812469E+03	3.469497E-02	9.334586E-04
5.822288E+03	3.494460E-02	9.411808E-04
5.832106E+03	3.509566E-02	9.462298E-04
5.841924E+03	3.514572E-02	9.485309E-04
5.851743E+03	3.510330E-02	9.483061E-04
5.861561E+03	3.498328E-02	9.459504E-04
5.871379E+03	3.480447E-02	9.419672E-04
5.881198E+03	3.458691E-02	9.368956E-04
5.891016E+03	3.434826E-02	9.312119E-04
5.900835E+03	3.410153E-02	9.252681E-04
5.910653E+03	3.385325E-02	9.192422E-04
5.920471E+03	3.360545E-02	9.131891E-04
5.930290E+03	3.335774E-02	9.070994E-04
5.940108E+03	3.310870E-02	9.009348E-04
5.949926E+03	3.285777E-02	8.946806E-04
5.959745E+03	3.260408E-02	8.883139E-04
5.969563E+03	3.234742E-02	8.818292E-04
5.979381E+03	3.208782E-02	8.752281E-04
5.989200E+03	3.182686E-02	8.685541E-04
5.999018E+03	3.156523E-02	8.618269E-04
6.008837E+03	3.130466E-02	8.550939E-04
6.018655E+03	3.104815E-02	8.484385E-04
6.028473E+03	3.079753E-02	8.419108E-04
6.038292E+03	3.055404E-02	8.355463E-04
6.048110E+03	3.031887E-02	8.293782E-04
6.057928E+03	3.009173E-02	8.233992E-04
6.067747E+03	2.986991E-02	8.175363E-04
6.077565E+03	2.965125E-02	8.117309E-04
6.087383E+03	2.942963E-02	8.058161E-04
6.097202E+03	2.919938E-02	7.996371E-04
6.107020E+03	2.895541E-02	7.930553E-04
6.116838E+03	2.869346E-02	7.859543E-04
6.126657E+03	2.841212E-02	7.782964E-04
6.136475E+03	2.811377E-02	7.701473E-04
6.146294E+03	2.780460E-02	7.616773E-04
6.156112E+03	2.749500E-02	7.531721E-04
6.165930E+03	2.719684E-02	7.449574E-04
6.175749E+03	2.692214E-02	7.373637E-04
6.185567E+03	2.668149E-02	7.306809E-04
6.195385E+03	2.648581E-02	7.252089E-04
6.205204E+03	2.634195E-02	7.211352E-04
6.215022E+03	2.625513E-02	7.186021E-04
6.224840E+03	2.622936E-02	7.177186E-04
6.234659E+03	2.626475E-02	7.184868E-04
6.244477E+03	2.635948E-02	7.208556E-04
6.254296E+03	2.650802E-02	7.246719E-04
6.264114E+03	2.670145E-02	7.296903E-04
6.273932E+03	2.692758E-02	7.355761E-04
6.283751E+03	2.717520E-02	7.420220E-04
6.293569E+03	2.743458E-02	7.487606E-04
6.303387E+03	2.769963E-02	7.556254E-04
6.313206E+03	2.796887E-02	7.625748E-04
6.323024E+03	2.824667E-02	7.697273E-04
6.332842E+03	2.854075E-02	7.772914E-04
6.342661E+03	2.886102E-02	7.855354E-04
6.352479E+03	2.921622E-02	7.946946E-04
6.362297E+03	2.961387E-02	8.049705E-04
6.372116E+03	3.006065E-02	8.165408E-04
6.381934E+03	3.056001E-02	8.294954E-04
6.391753E+03	3.111484E-02	8.439077E-04
6.401571E+03	3.172365E-02	8.597325E-04
6.411389E+03	3.238416E-02	8.769026E-04
6.421208E+03	3.308433E-02	8.950863E-04
6.431026E+03	3.380100E-02	9.136535E-04
6.440844E+03	3.450908E-02	9.319229E-04
6.450663E+03	3.518207E-02	9.491779E-04
6.460481E+03	3.579450E-02	9.647331E-04
6.470299E+03	3.632624E-02	9.780494E-04
6.480118E+03	3.676090E-02	9.886910E-04
6.489936E+03	3.709118E-02	9.964688E-04
6.499755E+03	3.731533E-02	1.001344E-03
6.509573E+03	3.744001E-02	1.003504E-03
6.519391E+03	3.747266E-02	1.003157E-03
6.529210E+03	3.742333E-02	1.000581E-03
6.539028E+03	3.730062E-02	9.960122E-04
6.548846E+03	3.711324E-02	9.896922E-04
6.558665E+03	3.686685E-02	9.817784E-04
6.568483E+03	3.656589E-02	9.723958E-04
6.578301E+03	3.621435E-02	9.616576E-04
6.588120E+03	3.581490E-02	9.496407E-04
6.597938E+03	3.537091E-02	9.364415E-04
6.607757E+03	3.488731E-02	9.221966E-04
6.617575E+03	3.436950E-02	9.070548E-04
6.627393E+03	3.382411E-02	8.911965E-04
6.637212E+03	3.325659E-02	8.747704E-04
6.647030E+03	3.267039E-02	8.578715E-04
6.656848E+03	3.206801E-02	8.405694E-04
6.666667E+03	3.145009E-02	8.228849E-04
6.676485E+03	3.081799E-02	8.048573E-04
6.686303E+03	3.017151E-02	7.864860E-04
6.696122E+03	2.951279E-02	7.678299E-04
6.705940E+03	2.884330E-02	7.489313E-04
6.715758E+03	2.816486E-02	7.298414E-04
6.725577E+03	2.748402E-02	7.107323E-04
6.735395E+03	2.680695E-02	6.917659E-04
6.745214E+03	2.614418E-02	6.732151E-04
6.755032E+03	2.550434E-02	6.553008E-04
6.764850E+03	2.489902E-02	6.383186E-04
6.774669E+03	2.433636E-02	6.224725E-04
6.784487E+03	2.382276E-02	6.079199E-04
6.794305E+03	2.336198E-02	5.947494E-04
6.804124E+03	2.295476E-02	5.829720E-04
6.813942E+03	2.259982E-02	5.725462E-04
6.823760E+03	2.229415E-02	5.633874E-04
6.833579E+03	2.203345E-02	5.553789E-04
6.843397E+03	2.181402E-02	5.484196E-04
6.853216E+03	2.163005E-02	5.423568E-04
6.863034E+03	2.147719E-02	5.370750E-04
6.872852E+03	2.135125E-02	5.324641E-04
6.882671E+03	2.124875E-02	5.284322E-04
6.892489E+03	2.116562E-02	5.248742E-04
6.902307E+03	2.109976E-02	5.217344E-04
6.912126E+03	2.104762E-02	5.189218E-04
6.921944E+03	2.100597E-02	5.163543E-04
6.931762E+03	2.097139E-02	5.139457E-04
6.941581E+03	2.094026E-02	5.116068E-04
6.951399E+03	2.090819E-02	5.092298E-04
6.961217E+03	2.087191E-02	5.067358E-04
6.971036E+03	2.082761E-02	5.040339E-04
6.980854E+03	2.077307E-02	5.010726E-04
6.990673E+03	2.070644E-02	4.978102E-04
7.000491E+03	2.062600E-02	4.942088E-04
7.010309E+03	2.053193E-02	4.902764E-04
7.020128E+03	2.042522E-02	4.860406E-04
7.029946E+03	2.030765E-02	4.815470E-04
7.039764E+03	2.018233E-02	4.768722E-04
7.049583E+03	2.005205E-02	4.720848E-04
7.059401E+03	1.992120E-02	4.672894E-04
7.069219E+03	1.979398E-02	4.625848E-04
7.079038E+03	1.967296E-02	4.580305E-04
7.088856E+03	1.955970E-02	4.536618E-04
7.098675E+03	1.945488E-02	4.494927E-04
7.108493E+03	1.935708E-02	4.454888E-04
7.118311E+03	1.926444E-02	4.416063E-04
7.128130E+03	1.917362E-02	4.377677E-04
7.137948E+03	1.908205E-02	4.339151E-04
7.147766E+03	1.898728E-02	4.299931E-04
7.157585E+03	1.888778E-02	4.259693E-04
7.167403E+03	1.878296E-02	4.218320E-04
7.177221E+03	1.867488E-02	4.176291E-04
7.187040E+03	1.856553E-02	4.134070E-04
7.196858E+03	1.845938E-02	4.092653E-04
7.206676E+03	1.836111E-02	4.053074E-04
7.216495E+03	1.827520E-02	4.016295E-04
7.226313E+03	1.820353E-02	3.982700E-04
7.236132E+03	1.814378E-02	3.951749E-04
7.245950E+03	1.809164E-02	3.922477E-04
7.255768E+03	1.804389E-02	3.894171E-04
7.265587E+03	1.799776E-02	3.866226E-04
7.275405E+03	1.795403E-02	3.838815E-04
7.285223E+03	1.791381E-02	3.812168E-04
7.295042E+03	1.787803E-02	3.786480E-04
7.304860E+03	1.784713E-02	3.761834E-04
7.314678E+03	1.782046E-02	3.738087E-04
7.324497E+03	1.779417E-02	3.714425E-04
7.334315E+03	1.776279E-02	3.689723E-04
7.344134E+03	1.772059E-02	3.662812E-04
7.353952E+03	1.766150E-02	3.632487E-04
7.363770E+03	1.758050E-02	3.597779E-04
7.373589E+03	1.747443E-02	3.558118E-04
7.383407E+03	1.734133E-02	3.513194E-04
7.393225E+03	1.718271E-02	3.463397E-04
7.403044E+03	1.700046E-02	3.409198E-04
7.412862E+03	1.679911E-02	3.351575E-04
7.422680E+03	1.658440E-02	3.291737E-04
7.432499E+03	1.636399E-02	3.231241E-04
7.442317E+03	1.614508E-02	3.171529E-04
7.452135E+03	1.593654E-02	3.114332E-04
7.461954E+03	1.574699E-02	3.061304E-04
7.471772E+03	1.558279E-02	3.013621E-04
7.481591E+03	1.545028E-02	2.972432E-04
7.491409E+03	1.535239E-02	2.938209E-04
7.501227E+03	1.529132E-02	2.911275E-04
7.511046E+03	1.526558E-02	2.891244E-04
7.520864E+03	1.527117E-02	2.877265E-04
7.530682E+03	1.530148E-02	2.868018E-04
7.540501E+03	1.534819E-02	2.861888E-04
7.550319E+03	1.540410E-02	2.857502E-04
7.560137E+03	1.545994E-02	2.853133E-04
7.569956E+03	1.550983E-02	2.847715E-04
7.579774E+03	1.555062E-02	2.840701E-04
7.589593E+03	1.558055E-02	2.831807E-04
7.599411E+03	1.560218E-02	2.821540E-04
7.609229E+03	1.561941E-02	2.810635E-04
7.619048E+03	1.563619E-02	2.799822E-04
