#wls	flux	fluxerr
1.570938E+03	1.843585E-03	4.011527E-04
1.610211E+03	1.873413E-03	4.056272E-04
1.649485E+03	1.904542E-03	4.102663E-04
1.688758E+03	1.936924E-03	4.150518E-04
1.728031E+03	1.970490E-03	4.199611E-04
1.767305E+03	2.005154E-03	4.249681E-04
1.806578E+03	2.041180E-03	4.301204E-04
1.845852E+03	2.078453E-03	4.353849E-04
1.885125E+03	2.116458E-03	4.406451E-04
1.924399E+03	2.155778E-03	4.460144E-04
1.963672E+03	2.195839E-03	4.513651E-04
2.002946E+03	2.236805E-03	4.567225E-04
2.042219E+03	2.278420E-03	4.620262E-04
2.081492E+03	2.320390E-03	4.672089E-04
2.120766E+03	2.362782E-03	4.722774E-04
2.160039E+03	2.405232E-03	4.771521E-04
2.199313E+03	2.447325E-03	4.817458E-04
2.238586E+03	2.488608E-03	4.859661E-04
2.277860E+03	2.529412E-03	4.898756E-04
2.317133E+03	2.568796E-03	4.932903E-04
2.356406E+03	2.606610E-03	4.961836E-04
2.395680E+03	2.642264E-03	4.984467E-04
2.434953E+03	2.675973E-03	5.001261E-04
2.474227E+03	2.707111E-03	5.011117E-04
2.513500E+03	2.735058E-03	5.012988E-04
2.552774E+03	2.760021E-03	5.007385E-04
2.592047E+03	2.781418E-03	4.993395E-04
2.631321E+03	2.799117E-03	4.970957E-04
2.670594E+03	2.813048E-03	4.940133E-04
2.709867E+03	2.823586E-03	4.901780E-04
2.749141E+03	2.830799E-03	4.856200E-04
2.788414E+03	2.834490E-03	4.803257E-04
2.827688E+03	2.835998E-03	4.745404E-04
2.866961E+03	2.835293E-03	4.682735E-04
2.906235E+03	2.833126E-03	4.616617E-04
2.945508E+03	2.830576E-03	4.548892E-04
2.955326E+03	2.829920E-03	4.531780E-04
2.965145E+03	2.829381E-03	4.514794E-04
2.974963E+03	2.828655E-03	4.497450E-04
2.984782E+03	2.828352E-03	4.480717E-04
2.994600E+03	2.827860E-03	4.463623E-04
3.004418E+03	2.827485E-03	4.446651E-04
3.014237E+03	2.827222E-03	4.429793E-04
3.024055E+03	2.827069E-03	4.413044E-04
3.033873E+03	2.827022E-03	4.396395E-04
3.043692E+03	2.827077E-03	4.379838E-04
3.053510E+03	2.827228E-03	4.363363E-04
3.063328E+03	2.827469E-03	4.346960E-04
3.073147E+03	2.828072E-03	4.331042E-04
3.082965E+03	2.828469E-03	4.314739E-04
3.092784E+03	2.829206E-03	4.298883E-04
3.102602E+03	2.830262E-03	4.283437E-04
3.112420E+03	2.831352E-03	4.267965E-04
3.122239E+03	2.832464E-03	4.252449E-04
3.132057E+03	2.833842E-03	4.237255E-04
3.141875E+03	2.835206E-03	4.221960E-04
3.151694E+03	2.836795E-03	4.206918E-04
3.161512E+03	2.838578E-03	4.192081E-04
3.171330E+03	2.840527E-03	4.177405E-04
3.181149E+03	2.842366E-03	4.162482E-04
3.190967E+03	2.844313E-03	4.147633E-04
3.200785E+03	2.846577E-03	4.133158E-04
3.210604E+03	2.848633E-03	4.118295E-04
3.220422E+03	2.850927E-03	4.103688E-04
3.230241E+03	2.852942E-03	4.088593E-04
3.240059E+03	2.855107E-03	4.073628E-04
3.249877E+03	2.857144E-03	4.058397E-04
3.259696E+03	2.859236E-03	4.043157E-04
3.269514E+03	2.861104E-03	4.027520E-04
3.279332E+03	2.862926E-03	4.011737E-04
3.289151E+03	2.864429E-03	3.995430E-04
3.298969E+03	2.865996E-03	3.979137E-04
3.308787E+03	2.866928E-03	3.961892E-04
3.318606E+03	2.867817E-03	3.944521E-04
3.328424E+03	2.868394E-03	3.926659E-04
3.338243E+03	2.868609E-03	3.908243E-04
3.348061E+03	2.868411E-03	3.889214E-04
3.357879E+03	2.867953E-03	3.869785E-04
3.367698E+03	2.866989E-03	3.849632E-04
3.377516E+03	2.865476E-03	3.828710E-04
3.387334E+03	2.863570E-03	3.807236E-04
3.397153E+03	2.861046E-03	3.784924E-04
3.406971E+03	2.858247E-03	3.762236E-04
3.416789E+03	2.854777E-03	3.738661E-04
3.426608E+03	2.850802E-03	3.714432E-04
3.436426E+03	2.846312E-03	3.689545E-04
3.446244E+03	2.841477E-03	3.664231E-04
3.456063E+03	2.836124E-03	3.638277E-04
3.465881E+03	2.830270E-03	3.611716E-04
3.475700E+03	2.824106E-03	3.584803E-04
3.485518E+03	2.817498E-03	3.557376E-04
3.495336E+03	2.810815E-03	3.529908E-04
3.505155E+03	2.803787E-03	3.502066E-04
3.514973E+03	2.796641E-03	3.474139E-04
3.524791E+03	2.789453E-03	3.446227E-04
3.534610E+03	2.782462E-03	3.418626E-04
3.544428E+03	2.775618E-03	3.391272E-04
3.554246E+03	2.769040E-03	3.364307E-04
3.564065E+03	2.763140E-03	3.338226E-04
3.573883E+03	2.757770E-03	3.312839E-04
3.583702E+03	2.753089E-03	3.288327E-04
3.593520E+03	2.749535E-03	3.265198E-04
3.603338E+03	2.747277E-03	3.243629E-04
3.613157E+03	2.746245E-03	3.223514E-04
3.622975E+03	2.746907E-03	3.205375E-04
3.632793E+03	2.749353E-03	3.189283E-04
3.642612E+03	2.754068E-03	3.175763E-04
3.652430E+03	2.761055E-03	3.164773E-04
3.662248E+03	2.770709E-03	3.156718E-04
3.667096E+03	1.887348E-03	2.143857E-04
3.668078E+03	1.916433E-03	2.175573E-04
3.669059E+03	1.937026E-03	2.197613E-04
3.670041E+03	1.959901E-03	2.222213E-04
3.671023E+03	1.991250E-03	2.256383E-04
3.672005E+03	2.028782E-03	2.297511E-04
3.672987E+03	2.070070E-03	2.342840E-04
3.673969E+03	2.116190E-03	2.393575E-04
3.674950E+03	2.173732E-03	2.457159E-04
3.675932E+03	2.241615E-03	2.532346E-04
3.676914E+03	2.310689E-03	2.608783E-04
3.677896E+03	2.368983E-03	2.672962E-04
3.678878E+03	2.413008E-03	2.720970E-04
3.679860E+03	2.448011E-03	2.758751E-04
3.680841E+03	2.480989E-03	2.794201E-04
3.681823E+03	2.514897E-03	2.830653E-04
3.682805E+03	2.547316E-03	2.865384E-04
3.683787E+03	2.575829E-03	2.895680E-04
3.684769E+03	2.598826E-03	2.919737E-04
3.685751E+03	2.621008E-03	2.942850E-04
3.686732E+03	2.643588E-03	2.966376E-04
3.687714E+03	2.662804E-03	2.986100E-04
3.688696E+03	2.672749E-03	2.995407E-04
3.689678E+03	2.673429E-03	2.994323E-04
3.690660E+03	2.673704E-03	2.992786E-04
3.691642E+03	2.679885E-03	2.997854E-04
3.692623E+03	2.693041E-03	3.010713E-04
3.693605E+03	2.709816E-03	3.027595E-04
3.694587E+03	2.731279E-03	3.049690E-04
3.695569E+03	2.760917E-03	3.080877E-04
3.696551E+03	2.796984E-03	3.119193E-04
3.697533E+03	2.831430E-03	3.155652E-04
3.698514E+03	2.858091E-03	3.183392E-04
3.699496E+03	2.879917E-03	3.205714E-04
3.700478E+03	2.899592E-03	3.225614E-04
3.701460E+03	2.916045E-03	3.241904E-04
3.702442E+03	2.925927E-03	3.250871E-04
3.703424E+03	2.931386E-03	3.254912E-04
3.704405E+03	2.937779E-03	3.259983E-04
3.705387E+03	2.948189E-03	3.269499E-04
3.706369E+03	2.959800E-03	3.280333E-04
3.707351E+03	2.967658E-03	3.286993E-04
3.708333E+03	2.971766E-03	3.289493E-04
3.709315E+03	2.979083E-03	3.295536E-04
3.710297E+03	2.996035E-03	3.312221E-04
3.711278E+03	3.022747E-03	3.339666E-04
3.712260E+03	3.052396E-03	3.370316E-04
3.713242E+03	3.077887E-03	3.396339E-04
3.714224E+03	3.094678E-03	3.412731E-04
3.715206E+03	3.105312E-03	3.422316E-04
3.716188E+03	3.118616E-03	3.434826E-04
3.717169E+03	3.139402E-03	3.455554E-04
3.718151E+03	3.163523E-03	3.479921E-04
3.719133E+03	3.178683E-03	3.494404E-04
3.720115E+03	3.179940E-03	3.493592E-04
3.721097E+03	3.173849E-03	3.484710E-04
3.722079E+03	3.174572E-03	3.483314E-04
3.723060E+03	3.186246E-03	3.493926E-04
3.724042E+03	3.199519E-03	3.506273E-04
3.725024E+03	3.201571E-03	3.506315E-04
3.726006E+03	3.190941E-03	3.492471E-04
3.726988E+03	3.178043E-03	3.476163E-04
3.727970E+03	3.171022E-03	3.466297E-04
3.728951E+03	3.171074E-03	3.464167E-04
3.729933E+03	3.172460E-03	3.463494E-04
3.730915E+03	3.170244E-03	3.458888E-04
3.731897E+03	3.160158E-03	3.445705E-04
3.732879E+03	3.143541E-03	3.425419E-04
3.733861E+03	3.127328E-03	3.405597E-04
3.734842E+03	3.123919E-03	3.399730E-04
3.735824E+03	3.134905E-03	3.409526E-04
3.736806E+03	3.149221E-03	3.422925E-04
3.737788E+03	3.153538E-03	3.425444E-04
3.738770E+03	3.147193E-03	3.416383E-04
3.739752E+03	3.142182E-03	3.408778E-04
3.740733E+03	3.145431E-03	3.410135E-04
3.741715E+03	3.153073E-03	3.416248E-04
3.742697E+03	3.154986E-03	3.416147E-04
3.743679E+03	3.148511E-03	3.406967E-04
3.744661E+03	3.140440E-03	3.396070E-04
3.745643E+03	3.136364E-03	3.389502E-04
3.746624E+03	3.135749E-03	3.386677E-04
3.747606E+03	3.132739E-03	3.381269E-04
3.748588E+03	3.126270E-03	3.372134E-04
3.749570E+03	3.119271E-03	3.362437E-04
3.750552E+03	3.115066E-03	3.355759E-04
3.751534E+03	3.111927E-03	3.350235E-04
3.752515E+03	3.104001E-03	3.339565E-04
3.753497E+03	3.088500E-03	3.320762E-04
3.754479E+03	3.067155E-03	3.295701E-04
3.755461E+03	3.044888E-03	3.269679E-04
3.756443E+03	3.024752E-03	3.245975E-04
3.757425E+03	3.010068E-03	3.228146E-04
3.758406E+03	3.000303E-03	3.215610E-04
3.759388E+03	2.992002E-03	3.204655E-04
3.760370E+03	2.978260E-03	3.187887E-04
3.761352E+03	2.958148E-03	3.164325E-04
3.762334E+03	2.938041E-03	3.140796E-04
3.763316E+03	2.926303E-03	3.126235E-04
3.764297E+03	2.921866E-03	3.119486E-04
3.765279E+03	2.916501E-03	3.111753E-04
3.766261E+03	2.904239E-03	3.096674E-04
3.767243E+03	2.886809E-03	3.076104E-04
3.768225E+03	2.869382E-03	3.055563E-04
3.769207E+03	2.855276E-03	3.038580E-04
3.770189E+03	2.845549E-03	3.026273E-04
3.771170E+03	2.840199E-03	3.018631E-04
3.772152E+03	2.838827E-03	3.015223E-04
3.773134E+03	2.839310E-03	3.013786E-04
3.774116E+03	2.838997E-03	3.011504E-04
3.775098E+03	2.836431E-03	3.006834E-04
3.776080E+03	2.830555E-03	2.998662E-04
3.777061E+03	2.818853E-03	2.984330E-04
3.778043E+03	2.797489E-03	2.959791E-04
3.779025E+03	2.766731E-03	2.925349E-04
3.780007E+03	2.733070E-03	2.887883E-04
3.780989E+03	2.704052E-03	2.855366E-04
3.781971E+03	2.683643E-03	2.831974E-04
3.782952E+03	2.669592E-03	2.815314E-04
3.783934E+03	2.657132E-03	2.800352E-04
3.784916E+03	2.643882E-03	2.784575E-04
3.785898E+03	2.630108E-03	2.768263E-04
3.786880E+03	2.617526E-03	2.753226E-04
3.787862E+03	2.604288E-03	2.737517E-04
3.788843E+03	2.587352E-03	2.717941E-04
3.789825E+03	2.565928E-03	2.693677E-04
3.790807E+03	2.541867E-03	2.666676E-04
3.791789E+03	2.518606E-03	2.640548E-04
3.792771E+03	2.499977E-03	2.619304E-04
3.793753E+03	2.487164E-03	2.604176E-04
3.794734E+03	2.475939E-03	2.590727E-04
3.795716E+03	2.456135E-03	2.568324E-04
3.796698E+03	2.424456E-03	2.533538E-04
3.797680E+03	2.391202E-03	2.497151E-04
3.798662E+03	2.369177E-03	2.472528E-04
3.799644E+03	2.358902E-03	2.460191E-04
3.800625E+03	2.345332E-03	2.444434E-04
3.801607E+03	2.321609E-03	2.418120E-04
3.802589E+03	2.295123E-03	2.388963E-04
3.803571E+03	2.281041E-03	2.372746E-04
3.804553E+03	2.281466E-03	2.371628E-04
3.805535E+03	2.284923E-03	2.373660E-04
3.806516E+03	2.282843E-03	2.369938E-04
3.807498E+03	2.277204E-03	2.362529E-04
3.808480E+03	2.276838E-03	2.360594E-04
3.809462E+03	2.282795E-03	2.365210E-04
3.810444E+03	2.288750E-03	2.369816E-04
3.811426E+03	2.287196E-03	2.366646E-04
3.812407E+03	2.273791E-03	2.351222E-04
3.813389E+03	2.250252E-03	2.325346E-04
3.814371E+03	2.222773E-03	2.295433E-04
3.815353E+03	2.200565E-03	2.270998E-04
3.816335E+03	2.189024E-03	2.257594E-04
3.817317E+03	2.188801E-03	2.255871E-04
3.818298E+03	2.197523E-03	2.263362E-04
3.819280E+03	2.213740E-03	2.278555E-04
3.820262E+03	2.234684E-03	2.298590E-04
3.821244E+03	2.254044E-03	2.316966E-04
3.822226E+03	2.264984E-03	2.326669E-04
3.823208E+03	2.261592E-03	2.321644E-04
3.824189E+03	2.244403E-03	2.302469E-04
3.825171E+03	2.219728E-03	2.275644E-04
3.826153E+03	2.197820E-03	2.251688E-04
3.827135E+03	2.184064E-03	2.236108E-04
3.828117E+03	2.177665E-03	2.228075E-04
3.829099E+03	2.173370E-03	2.222202E-04
3.830081E+03	2.168552E-03	2.215800E-04
3.831062E+03	2.163734E-03	2.209405E-04
3.832044E+03	2.159573E-03	2.203688E-04
3.833026E+03	2.153838E-03	2.196372E-04
3.834008E+03	2.140890E-03	2.181713E-04
3.834990E+03	2.120598E-03	2.159594E-04
3.835972E+03	2.100576E-03	2.137776E-04
3.836953E+03	2.089871E-03	2.125462E-04
3.837935E+03	2.090969E-03	2.125159E-04
3.838917E+03	2.097835E-03	2.130714E-04
3.839899E+03	2.104831E-03	2.136390E-04
3.840881E+03	2.108677E-03	2.138863E-04
3.841863E+03	2.108461E-03	2.137213E-04
3.842844E+03	2.105100E-03	2.132379E-04
3.843826E+03	2.100822E-03	2.126621E-04
3.844808E+03	2.098379E-03	2.122726E-04
3.845790E+03	2.096591E-03	2.119496E-04
3.846772E+03	2.092579E-03	2.114022E-04
3.847754E+03	2.084508E-03	2.104457E-04
3.848735E+03	2.075394E-03	2.093850E-04
3.849717E+03	2.069946E-03	2.086952E-04
3.850699E+03	2.068948E-03	2.084546E-04
3.851681E+03	2.068997E-03	2.083195E-04
3.852663E+03	2.066822E-03	2.079606E-04
3.853645E+03	2.063862E-03	2.075232E-04
3.854626E+03	2.066003E-03	2.075988E-04
3.855608E+03	2.074940E-03	2.083566E-04
3.856590E+03	2.086881E-03	2.094146E-04
3.857572E+03	2.093851E-03	2.099725E-04
3.858554E+03	2.093632E-03	2.098092E-04
3.859536E+03	2.089232E-03	2.092272E-04
3.860517E+03	2.087054E-03	2.088682E-04
3.861499E+03	2.091667E-03	2.091887E-04
3.862481E+03	2.104374E-03	2.103176E-04
3.863463E+03	2.121777E-03	2.119137E-04
3.864445E+03	2.137215E-03	2.133115E-04
3.865427E+03	2.148864E-03	2.143292E-04
3.866408E+03	2.159595E-03	2.152540E-04
3.867390E+03	2.176061E-03	2.167487E-04
3.868372E+03	2.198132E-03	2.187990E-04
3.869354E+03	2.222803E-03	2.211051E-04
3.870336E+03	2.247205E-03	2.233811E-04
3.871318E+03	2.273945E-03	2.258861E-04
3.872299E+03	2.308497E-03	2.291631E-04
3.873281E+03	2.353984E-03	2.335203E-04
3.874263E+03	2.408579E-03	2.387743E-04
3.875245E+03	2.466281E-03	2.443288E-04
3.876227E+03	2.521748E-03	2.496544E-04
3.877209E+03	2.572900E-03	2.545456E-04
3.878190E+03	2.621818E-03	2.592092E-04
3.879172E+03	2.672413E-03	2.640319E-04
3.880154E+03	2.728587E-03	2.693988E-04
3.881136E+03	2.790340E-03	2.753086E-04
3.882118E+03	2.855324E-03	2.815287E-04
3.883100E+03	2.920676E-03	2.877765E-04
3.884081E+03	2.987956E-03	2.942054E-04
3.885063E+03	3.061197E-03	3.012118E-04
3.886045E+03	3.142995E-03	3.090500E-04
3.887027E+03	3.232046E-03	3.175900E-04
3.888009E+03	3.325875E-03	3.265873E-04
3.888991E+03	3.422533E-03	3.358497E-04
3.889973E+03	3.520716E-03	3.452489E-04
3.890954E+03	3.619125E-03	3.546571E-04
3.891936E+03	3.717759E-03	3.640742E-04
3.892918E+03	3.815969E-03	3.734369E-04
3.893900E+03	3.911937E-03	3.825671E-04
3.894882E+03	4.004237E-03	3.913262E-04
3.895864E+03	4.098710E-03	4.002853E-04
3.896845E+03	4.201717E-03	4.100648E-04
3.897827E+03	4.314033E-03	4.207384E-04
3.898809E+03	4.427347E-03	4.314945E-04
3.899791E+03	4.534783E-03	4.416632E-04
3.900773E+03	4.636993E-03	4.513089E-04
3.901755E+03	4.736313E-03	4.606601E-04
3.902736E+03	4.832617E-03	4.697049E-04
3.903718E+03	4.924348E-03	4.782931E-04
3.904700E+03	5.013844E-03	4.866520E-04
3.905682E+03	5.105381E-03	4.951973E-04
3.906664E+03	5.199477E-03	5.039785E-04
3.907646E+03	5.294317E-03	5.128194E-04
3.908627E+03	5.390937E-03	5.218201E-04
3.909609E+03	5.489595E-03	5.310053E-04
3.910591E+03	5.586403E-03	5.399988E-04
3.911573E+03	5.674245E-03	5.481134E-04
3.912555E+03	5.752736E-03	5.553138E-04
3.913537E+03	5.828221E-03	5.622140E-04
3.914518E+03	5.904584E-03	5.691890E-04
3.915500E+03	5.978980E-03	5.759645E-04
3.916482E+03	6.045199E-03	5.819433E-04
3.917464E+03	6.099755E-03	5.867913E-04
3.918446E+03	6.142006E-03	5.904495E-04
3.919428E+03	6.173381E-03	5.930574E-04
3.920409E+03	6.197893E-03	5.950025E-04
3.921391E+03	6.223301E-03	5.970304E-04
3.922373E+03	6.252445E-03	5.994134E-04
3.923355E+03	6.282871E-03	6.019154E-04
3.924337E+03	6.308117E-03	6.039177E-04
3.925319E+03	6.326380E-03	6.052488E-04
3.926300E+03	6.339858E-03	6.061202E-04
3.927282E+03	6.351392E-03	6.068044E-04
3.928264E+03	6.359954E-03	6.072033E-04
3.929246E+03	6.360509E-03	6.068374E-04
3.930228E+03	6.350224E-03	6.054382E-04
3.931210E+03	6.331944E-03	6.032787E-04
3.932191E+03	6.313023E-03	6.010609E-04
3.933173E+03	6.296430E-03	5.990671E-04
3.934155E+03	6.279841E-03	5.970761E-04
3.935137E+03	6.257584E-03	5.945490E-04
3.936119E+03	6.228761E-03	5.914016E-04
3.937101E+03	6.196854E-03	5.879654E-04
3.938082E+03	6.165085E-03	5.845468E-04
3.939064E+03	6.134487E-03	5.812435E-04
3.940046E+03	6.104285E-03	5.779818E-04
3.941028E+03	6.071259E-03	5.744571E-04
3.942010E+03	6.029875E-03	5.701466E-04
3.942992E+03	5.973829E-03	5.644563E-04
3.943973E+03	5.905057E-03	5.575721E-04
3.944955E+03	5.834252E-03	5.505050E-04
3.945937E+03	5.771576E-03	5.442139E-04
3.946919E+03	5.718441E-03	5.388303E-04
3.947901E+03	5.667511E-03	5.336613E-04
3.948883E+03	5.614284E-03	5.282831E-04
3.949865E+03	5.560046E-03	5.228170E-04
3.950846E+03	5.510712E-03	5.178188E-04
3.951828E+03	5.466407E-03	5.132995E-04
3.952810E+03	5.422503E-03	5.088238E-04
3.953792E+03	5.371418E-03	5.036806E-04
3.954774E+03	5.313414E-03	4.978959E-04
3.955756E+03	5.254017E-03	4.919884E-04
3.956737E+03	5.199905E-03	4.865835E-04
3.957719E+03	5.150820E-03	4.816558E-04
3.958701E+03	5.102136E-03	4.767721E-04
3.959683E+03	5.052442E-03	4.718006E-04
3.960665E+03	5.005974E-03	4.671367E-04
3.961647E+03	4.969401E-03	4.634018E-04
3.962628E+03	4.943102E-03	4.606291E-04
3.963610E+03	4.921685E-03	4.583147E-04
3.964592E+03	4.901172E-03	4.560874E-04
3.965574E+03	4.881692E-03	4.539589E-04
3.966556E+03	4.867217E-03	4.522982E-04
3.967538E+03	4.858770E-03	4.511994E-04
3.968519E+03	4.852888E-03	4.503398E-04
3.969501E+03	4.845470E-03	4.493387E-04
3.970483E+03	4.836517E-03	4.481965E-04
3.971465E+03	4.830768E-03	4.473523E-04
3.972447E+03	4.831934E-03	4.471489E-04
3.973429E+03	4.841292E-03	4.477032E-04
3.974410E+03	4.858454E-03	4.489776E-04
3.975392E+03	4.884567E-03	4.510765E-04
3.976374E+03	4.916810E-03	4.537380E-04
3.977356E+03	4.950832E-03	4.565597E-04
3.978338E+03	4.983690E-03	4.592697E-04
3.979320E+03	5.018580E-03	4.621630E-04
3.980301E+03	5.059849E-03	4.656390E-04
3.981283E+03	5.107878E-03	4.697315E-04
3.982265E+03	5.158955E-03	4.740981E-04
3.983247E+03	5.209885E-03	4.784450E-04
3.984229E+03	5.261689E-03	4.828657E-04
3.985211E+03	5.319094E-03	4.877936E-04
3.986192E+03	5.385416E-03	4.935316E-04
3.987174E+03	5.457204E-03	4.997619E-04
3.988156E+03	5.528836E-03	5.059689E-04
3.989138E+03	5.599420E-03	5.120712E-04
3.990120E+03	5.675720E-03	5.186870E-04
3.991102E+03	5.761431E-03	5.261528E-04
3.992083E+03	5.851320E-03	5.339893E-04
3.993065E+03	5.934032E-03	5.411599E-04
3.994047E+03	6.002430E-03	5.470158E-04
3.995029E+03	6.061876E-03	5.520481E-04
3.996011E+03	6.121936E-03	5.571288E-04
3.996993E+03	6.190894E-03	5.630115E-04
3.997974E+03	6.267854E-03	5.696127E-04
3.998956E+03	6.347586E-03	5.764563E-04
3.999938E+03	6.427415E-03	5.832988E-04
4.000920E+03	6.508614E-03	5.902557E-04
4.001902E+03	6.592837E-03	5.974766E-04
4.002884E+03	6.676010E-03	6.045921E-04
4.003865E+03	6.753930E-03	6.112220E-04
4.004847E+03	6.825203E-03	6.172411E-04
4.005829E+03	6.895684E-03	6.231800E-04
4.006811E+03	6.969700E-03	6.294295E-04
4.007793E+03	7.047629E-03	6.360231E-04
4.008775E+03	7.123875E-03	6.424554E-04
4.009757E+03	7.193352E-03	6.482685E-04
4.010738E+03	7.256954E-03	6.535439E-04
4.011720E+03	7.322056E-03	6.589467E-04
4.012702E+03	7.397678E-03	6.652878E-04
4.013684E+03	7.482419E-03	6.724391E-04
4.014666E+03	7.569284E-03	6.797710E-04
4.015648E+03	7.648878E-03	6.864397E-04
4.016629E+03	7.720439E-03	6.923784E-04
4.017611E+03	7.785371E-03	6.977144E-04
4.018593E+03	7.845200E-03	7.025856E-04
4.019575E+03	7.897514E-03	7.067771E-04
4.020557E+03	7.940682E-03	7.101445E-04
4.021539E+03	7.974177E-03	7.126424E-04
4.022520E+03	8.000054E-03	7.144562E-04
4.023502E+03	8.022625E-03	7.159720E-04
4.024484E+03	8.046835E-03	7.176316E-04
4.025466E+03	8.073691E-03	7.195244E-04
4.026448E+03	8.100537E-03	7.214133E-04
4.027430E+03	8.124842E-03	7.230731E-04
4.028411E+03	8.148114E-03	7.246384E-04
4.029393E+03	8.174173E-03	7.264488E-04
4.030375E+03	8.203505E-03	7.285471E-04
4.031357E+03	8.231684E-03	7.305398E-04
4.032339E+03	8.253018E-03	7.319224E-04
4.033321E+03	8.267377E-03	7.326846E-04
4.034302E+03	8.279078E-03	7.332100E-04
4.035284E+03	8.293425E-03	7.339685E-04
4.036266E+03	8.312573E-03	7.351503E-04
4.037248E+03	8.336520E-03	7.367541E-04
4.038230E+03	8.362855E-03	7.385663E-04
4.039212E+03	8.388039E-03	7.402742E-04
4.040193E+03	8.407404E-03	7.414662E-04
4.041175E+03	8.420308E-03	7.420868E-04
4.042157E+03	8.431565E-03	7.425611E-04
4.043139E+03	8.449133E-03	7.435899E-04
4.044121E+03	8.474903E-03	7.453383E-04
4.045103E+03	8.503442E-03	7.473273E-04
4.046084E+03	8.526662E-03	7.488462E-04
4.047066E+03	8.541543E-03	7.496307E-04
4.048048E+03	8.550099E-03	7.498592E-04
4.049030E+03	8.556258E-03	7.498770E-04
4.050012E+03	8.563301E-03	7.499718E-04
4.050994E+03	8.573863E-03	7.503742E-04
4.051975E+03	8.589471E-03	7.512171E-04
4.052957E+03	8.609604E-03	7.524541E-04
4.053939E+03	8.631110E-03	7.538089E-04
4.054921E+03	8.650725E-03	7.549965E-04
4.055903E+03	8.666798E-03	7.558733E-04
4.056885E+03	8.679079E-03	7.564181E-04
4.057866E+03	8.689091E-03	7.567643E-04
4.058848E+03	8.699859E-03	7.571754E-04
4.059830E+03	8.712877E-03	7.577814E-04
4.060812E+03	8.727534E-03	7.585288E-04
4.061794E+03	8.740916E-03	7.591642E-04
