#wls	flux	fluxerr
1.570938E+03	1.737088E-03	3.655327E-04
1.610211E+03	1.764928E-03	3.694521E-04
1.649485E+03	1.793637E-03	3.734370E-04
1.688758E+03	1.823481E-03	3.775360E-04
1.728031E+03	1.854732E-03	3.817970E-04
1.767305E+03	1.886984E-03	3.861275E-04
1.806578E+03	1.920136E-03	3.904993E-04
1.845852E+03	1.954769E-03	3.950213E-04
1.885125E+03	1.990058E-03	3.995176E-04
1.924399E+03	2.026550E-03	4.040897E-04
1.963672E+03	2.063715E-03	4.086224E-04
2.002946E+03	2.101703E-03	4.131371E-04
2.042219E+03	2.139916E-03	4.175076E-04
2.081492E+03	2.178816E-03	4.218169E-04
2.120766E+03	2.218112E-03	4.259999E-04
2.160039E+03	2.257092E-03	4.299130E-04
2.199313E+03	2.296138E-03	4.336240E-04
2.238586E+03	2.334465E-03	4.369791E-04
2.277860E+03	2.372398E-03	4.400357E-04
2.317133E+03	2.409081E-03	4.426325E-04
2.356406E+03	2.444395E-03	4.447480E-04
2.395680E+03	2.478199E-03	4.463580E-04
2.434953E+03	2.509950E-03	4.473680E-04
2.474227E+03	2.539098E-03	4.476869E-04
2.513500E+03	2.566237E-03	4.474274E-04
2.552774E+03	2.590446E-03	4.464378E-04
2.592047E+03	2.611593E-03	4.447080E-04
2.631321E+03	2.629579E-03	4.422363E-04
2.670594E+03	2.644360E-03	4.390310E-04
2.709867E+03	2.656297E-03	4.351687E-04
2.749141E+03	2.665453E-03	4.306754E-04
2.788414E+03	2.671643E-03	4.255376E-04
2.827688E+03	2.676085E-03	4.199654E-04
2.866961E+03	2.678401E-03	4.139106E-04
2.906235E+03	2.679870E-03	4.075823E-04
2.945508E+03	2.680510E-03	4.009886E-04
2.955326E+03	2.680666E-03	3.993180E-04
2.965145E+03	2.680936E-03	3.976556E-04
2.974963E+03	2.681315E-03	3.960007E-04
2.984782E+03	2.681517E-03	3.943108E-04
2.994600E+03	2.682108E-03	3.926692E-04
3.004418E+03	2.682519E-03	3.909921E-04
3.014237E+03	2.683029E-03	3.893203E-04
3.024055E+03	2.683358E-03	3.876134E-04
3.033873E+03	2.684053E-03	3.859502E-04
3.043692E+03	2.684830E-03	3.842894E-04
3.053510E+03	2.685683E-03	3.826299E-04
3.063328E+03	2.686603E-03	3.809705E-04
3.073147E+03	2.687583E-03	3.793096E-04
3.082965E+03	2.688613E-03	3.776463E-04
3.092784E+03	2.689938E-03	3.760143E-04
3.102602E+03	2.691287E-03	3.743754E-04
3.112420E+03	2.692646E-03	3.727277E-04
3.122239E+03	2.694251E-03	3.711035E-04
3.132057E+03	2.695831E-03	3.694655E-04
3.141875E+03	2.697616E-03	3.678447E-04
3.151694E+03	2.699337E-03	3.662044E-04
3.161512E+03	2.701215E-03	3.645747E-04
3.171330E+03	2.703220E-03	3.629510E-04
3.181149E+03	2.705092E-03	3.612983E-04
3.190967E+03	2.707034E-03	3.596440E-04
3.200785E+03	2.709245E-03	3.580143E-04
3.210604E+03	2.711232E-03	3.563436E-04
3.220422E+03	2.713189E-03	3.546579E-04
3.230241E+03	2.715079E-03	3.529526E-04
3.240059E+03	2.716867E-03	3.512230E-04
3.249877E+03	2.718728E-03	3.494921E-04
3.259696E+03	2.720402E-03	3.477266E-04
3.269514E+03	2.721850E-03	3.459216E-04
3.279332E+03	2.723239E-03	3.440990E-04
3.289151E+03	2.724315E-03	3.422271E-04
3.298969E+03	2.725241E-03	3.403268E-04
3.308787E+03	2.725970E-03	3.383928E-04
3.318606E+03	2.726257E-03	3.363951E-04
3.328424E+03	2.726258E-03	3.343542E-04
3.338243E+03	2.725932E-03	3.322656E-04
3.348061E+03	2.725425E-03	3.301478E-04
3.357879E+03	2.724317E-03	3.279508E-04
3.367698E+03	2.722948E-03	3.257166E-04
3.377516E+03	2.720914E-03	3.233979E-04
3.387334E+03	2.718734E-03	3.210576E-04
3.397153E+03	2.716016E-03	3.186501E-04
3.406971E+03	2.712741E-03	3.161745E-04
3.416789E+03	2.709069E-03	3.136509E-04
3.426608E+03	2.704987E-03	3.110787E-04
3.436426E+03	2.700489E-03	3.084582E-04
3.446244E+03	2.695413E-03	3.057723E-04
3.456063E+03	2.690101E-03	3.030608E-04
3.465881E+03	2.684403E-03	3.003078E-04
3.475700E+03	2.678504E-03	2.975349E-04
3.485518E+03	2.672282E-03	2.947290E-04
3.495336E+03	2.665783E-03	2.918964E-04
3.505155E+03	2.659215E-03	2.890603E-04
3.514973E+03	2.652640E-03	2.862279E-04
3.524791E+03	2.646131E-03	2.834070E-04
3.534610E+03	2.639772E-03	2.806067E-04
3.544428E+03	2.633522E-03	2.778224E-04
3.554246E+03	2.627906E-03	2.751089E-04
3.564065E+03	2.622628E-03	2.724344E-04
3.573883E+03	2.618093E-03	2.698396E-04
3.583702E+03	2.614435E-03	2.673368E-04
3.593520E+03	2.611681E-03	2.649267E-04
3.603338E+03	2.610121E-03	2.626365E-04
3.613157E+03	2.609932E-03	2.604811E-04
3.622975E+03	2.611422E-03	2.584878E-04
3.632793E+03	2.614547E-03	2.566483E-04
3.642612E+03	2.619765E-03	2.550033E-04
3.652430E+03	2.627187E-03	2.535586E-04
3.662248E+03	2.637286E-03	2.523541E-04
3.672067E+03	2.649982E-03	2.513758E-04
3.681885E+03	2.665892E-03	2.506755E-04
3.691703E+03	2.685192E-03	2.502615E-04
3.701522E+03	2.708180E-03	2.501535E-04
3.711340E+03	2.735172E-03	2.503711E-04
3.721159E+03	2.766518E-03	2.509364E-04
3.730977E+03	2.802719E-03	2.518837E-04
3.740795E+03	2.844215E-03	2.532403E-04
3.750614E+03	2.891387E-03	2.550268E-04
3.760432E+03	2.944899E-03	2.572872E-04
3.770250E+03	3.005473E-03	2.600683E-04
3.780069E+03	3.073560E-03	2.633917E-04
3.789887E+03	3.149984E-03	2.673086E-04
3.799705E+03	3.235612E-03	2.718714E-04
3.809524E+03	3.331216E-03	2.771218E-04
3.819342E+03	3.437307E-03	2.830776E-04
3.829161E+03	3.554943E-03	2.897993E-04
3.838979E+03	3.684559E-03	2.972938E-04
3.848797E+03	3.826826E-03	3.055859E-04
3.858616E+03	3.982052E-03	3.146692E-04
3.868434E+03	4.150703E-03	3.245490E-04
3.878252E+03	4.332548E-03	3.351756E-04
3.888071E+03	4.527140E-03	3.464835E-04
3.897889E+03	4.733523E-03	3.583707E-04
3.907707E+03	4.950704E-03	3.707356E-04
3.917526E+03	5.177076E-03	3.834353E-04
3.927344E+03	5.410587E-03	3.962993E-04
3.937162E+03	5.649755E-03	4.092061E-04
3.946981E+03	5.892671E-03	4.220084E-04
3.956799E+03	6.137495E-03	4.345707E-04
3.966618E+03	6.382245E-03	4.467537E-04
3.976436E+03	6.624754E-03	4.584119E-04
3.986254E+03	6.862678E-03	4.693955E-04
3.996073E+03	7.092671E-03	4.794942E-04
4.005891E+03	7.311714E-03	4.885306E-04
4.015709E+03	7.515945E-03	4.962811E-04
4.025528E+03	7.702010E-03	5.025677E-04
4.035346E+03	7.866638E-03	5.072277E-04
4.045164E+03	8.006932E-03	5.101321E-04
4.054983E+03	8.120939E-03	5.112198E-04
4.064801E+03	8.207811E-03	5.105035E-04
4.074620E+03	8.267174E-03	5.080269E-04
4.084438E+03	8.300078E-03	5.039203E-04
4.094256E+03	8.308692E-03	4.983769E-04
4.104075E+03	8.295639E-03	4.916096E-04
4.113893E+03	8.264162E-03	4.838587E-04
4.123711E+03	8.218274E-03	4.753991E-04
4.133530E+03	8.161724E-03	4.664783E-04
4.143348E+03	8.098741E-03	4.573599E-04
4.153166E+03	8.033151E-03	4.482731E-04
4.162985E+03	7.968519E-03	4.394219E-04
4.172803E+03	7.908747E-03	4.310195E-04
4.182622E+03	7.856597E-03	4.232079E-04
4.192440E+03	7.814842E-03	4.161231E-04
4.202258E+03	7.785138E-03	4.098360E-04
4.212077E+03	7.768342E-03	4.043734E-04
4.221895E+03	7.764367E-03	3.997123E-04
4.231713E+03	7.771971E-03	3.957724E-04
4.241532E+03	7.788930E-03	3.924280E-04
4.251350E+03	7.812193E-03	3.895181E-04
4.261168E+03	7.837581E-03	3.868334E-04
4.270987E+03	7.860151E-03	3.841359E-04
4.280805E+03	7.874722E-03	3.811857E-04
4.290623E+03	7.876194E-03	3.777558E-04
4.300442E+03	7.859508E-03	3.736286E-04
4.310260E+03	7.820634E-03	3.686416E-04
4.320079E+03	7.760318E-03	3.628588E-04
4.329897E+03	7.683886E-03	3.565528E-04
4.339715E+03	7.597616E-03	3.500293E-04
4.349534E+03	7.507845E-03	3.435865E-04
4.359352E+03	7.421519E-03	3.375412E-04
4.369170E+03	7.345178E-03	3.321836E-04
4.378989E+03	7.284852E-03	3.277751E-04
4.388807E+03	7.246466E-03	3.245685E-04
4.398625E+03	7.234882E-03	3.227665E-04
4.408444E+03	7.254296E-03	3.225378E-04
4.418262E+03	7.308298E-03	3.240250E-04
4.428081E+03	7.399439E-03	3.273275E-04
4.437899E+03	7.529715E-03	3.325240E-04
4.447717E+03	7.700173E-03	3.396562E-04
4.457536E+03	7.911064E-03	3.487350E-04
4.467354E+03	8.162050E-03	3.597504E-04
4.477172E+03	8.451394E-03	3.726351E-04
4.486991E+03	8.776523E-03	3.872887E-04
4.496809E+03	9.132901E-03	4.035269E-04
4.506627E+03	9.514413E-03	4.210973E-04
4.516446E+03	9.912950E-03	4.396588E-04
4.526264E+03	1.031795E-02	4.587590E-04
4.536082E+03	1.071766E-02	4.778872E-04
4.545901E+03	1.109863E-02	4.964497E-04
4.555719E+03	1.144764E-02	5.138523E-04
4.565538E+03	1.175204E-02	5.295150E-04
4.575356E+03	1.200109E-02	5.429304E-04
4.585174E+03	1.218709E-02	5.537187E-04
4.594993E+03	1.230586E-02	5.616473E-04
4.604811E+03	1.235676E-02	5.666398E-04
4.614629E+03	1.234338E-02	5.688090E-04
4.624448E+03	1.227180E-02	5.683827E-04
4.634266E+03	1.215043E-02	5.657009E-04
4.644084E+03	1.198897E-02	5.611695E-04
4.653903E+03	1.179767E-02	5.552290E-04
4.663721E+03	1.158676E-02	5.483286E-04
4.673540E+03	1.136599E-02	5.409057E-04
4.683358E+03	1.114427E-02	5.333687E-04
4.693176E+03	1.092942E-02	5.260831E-04
4.702995E+03	1.072800E-02	5.193634E-04
4.712813E+03	1.054506E-02	5.134583E-04
4.722631E+03	1.038395E-02	5.085410E-04
4.732450E+03	1.024565E-02	5.046714E-04
4.742268E+03	1.012974E-02	5.018418E-04
4.752086E+03	1.003448E-02	4.999800E-04
4.761905E+03	9.957476E-03	4.989791E-04
4.771723E+03	9.895698E-03	4.986971E-04
4.781541E+03	9.846350E-03	4.990014E-04
4.791360E+03	9.807405E-03	4.997955E-04
4.801178E+03	9.777451E-03	5.010121E-04
4.810997E+03	9.755557E-03	5.026077E-04
4.820815E+03	9.741585E-03	5.045784E-04
4.830633E+03	9.735364E-03	5.069190E-04
4.840452E+03	9.737224E-03	5.096500E-04
4.850270E+03	9.747307E-03	5.127827E-04
4.860088E+03	9.765518E-03	5.163159E-04
4.869907E+03	9.792046E-03	5.202632E-04
4.879725E+03	9.827093E-03	5.246393E-04
4.889543E+03	9.871013E-03	5.294670E-04
4.899362E+03	9.923921E-03	5.347565E-04
4.909180E+03	9.985564E-03	5.404981E-04
4.918999E+03	1.005549E-02	5.466705E-04
4.928817E+03	1.013201E-02	5.531852E-04
4.938635E+03	1.021199E-02	5.598715E-04
4.948454E+03	1.029144E-02	5.665091E-04
4.958272E+03	1.036563E-02	5.728346E-04
4.968090E+03	1.042973E-02	5.785734E-04
4.977909E+03	1.047902E-02	5.834537E-04
4.987727E+03	1.051014E-02	5.872769E-04
4.997545E+03	1.052193E-02	5.899658E-04
5.007364E+03	1.051480E-02	5.915308E-04
5.017182E+03	1.049152E-02	5.921171E-04
5.027000E+03	1.045683E-02	5.919838E-04
5.036819E+03	1.041699E-02	5.914802E-04
5.046637E+03	1.037854E-02	5.909767E-04
5.056456E+03	1.034854E-02	5.908772E-04
5.066274E+03	1.033333E-02	5.915482E-04
5.076092E+03	1.033772E-02	5.932735E-04
5.085911E+03	1.036475E-02	5.962346E-04
5.095729E+03	1.041577E-02	6.005189E-04
5.105547E+03	1.049041E-02	6.061125E-04
5.115366E+03	1.058654E-02	6.128998E-04
5.125184E+03	1.070105E-02	6.207057E-04
5.135002E+03	1.083010E-02	6.293116E-04
5.144821E+03	1.096959E-02	6.384803E-04
5.154639E+03	1.111552E-02	6.479789E-04
5.164458E+03	1.126425E-02	6.575955E-04
5.174276E+03	1.141264E-02	6.671430E-04
5.184094E+03	1.155776E-02	6.764484E-04
5.193913E+03	1.169752E-02	6.853852E-04
5.203731E+03	1.182981E-02	6.938278E-04
5.213549E+03	1.195297E-02	7.016749E-04
5.223368E+03	1.206570E-02	7.088473E-04
5.233186E+03	1.216699E-02	7.152824E-04
5.243004E+03	1.225628E-02	7.209447E-04
5.252823E+03	1.233329E-02	7.258157E-04
5.262641E+03	1.239799E-02	7.298928E-04
5.272459E+03	1.245049E-02	7.331803E-04
5.282278E+03	1.249121E-02	7.357034E-04
5.292096E+03	1.252076E-02	7.374976E-04
5.301915E+03	1.254011E-02	7.386206E-04
5.311733E+03	1.255038E-02	7.391392E-04
5.321551E+03	1.255356E-02	7.391708E-04
5.331370E+03	1.255164E-02	7.388351E-04
5.341188E+03	1.254731E-02	7.382919E-04
5.351006E+03	1.254357E-02	7.377179E-04
5.360825E+03	1.254379E-02	7.373137E-04
5.370643E+03	1.255146E-02	7.372843E-04
5.380461E+03	1.257025E-02	7.378458E-04
5.390280E+03	1.260366E-02	7.392034E-04
5.400098E+03	1.265425E-02	7.415059E-04
5.409917E+03	1.272320E-02	7.448186E-04
5.419735E+03	1.281106E-02	7.491700E-04
5.429553E+03	1.291749E-02	7.545339E-04
5.439372E+03	1.304216E-02	7.608839E-04
5.449190E+03	1.318354E-02	7.681252E-04
5.459008E+03	1.333859E-02	7.760730E-04
5.468827E+03	1.350280E-02	7.844587E-04
5.478645E+03	1.366902E-02	7.928617E-04
5.488463E+03	1.382876E-02	8.007864E-04
5.498282E+03	1.397061E-02	8.075709E-04
5.508100E+03	1.408235E-02	8.125123E-04
5.517919E+03	1.415147E-02	8.148978E-04
5.527737E+03	1.416689E-02	8.141028E-04
5.537555E+03	1.411946E-02	8.096205E-04
5.547374E+03	1.400312E-02	8.011282E-04
5.557192E+03	1.381580E-02	7.885346E-04
5.567010E+03	1.355938E-02	7.719791E-04
5.576829E+03	1.323843E-02	7.517542E-04
5.586647E+03	1.286083E-02	7.283396E-04
5.596465E+03	1.243632E-02	7.023176E-04
5.606284E+03	1.197531E-02	6.743040E-04
5.616102E+03	1.148876E-02	6.449397E-04
5.625920E+03	1.098726E-02	6.148389E-04
5.635739E+03	1.048138E-02	5.846086E-04
5.645557E+03	9.981292E-03	5.548249E-04
5.655376E+03	9.496695E-03	5.260310E-04
5.665194E+03	9.037037E-03	4.987479E-04
5.675012E+03	8.611507E-03	4.734743E-04
5.684831E+03	8.228908E-03	4.506786E-04
5.694649E+03	7.896817E-03	4.307537E-04
5.704467E+03	7.621988E-03	4.140394E-04
5.714286E+03	7.410390E-03	4.008248E-04
5.724104E+03	7.266459E-03	3.913089E-04
5.733922E+03	7.193690E-03	3.856333E-04
5.743741E+03	7.194754E-03	3.838902E-04
5.753559E+03	7.271501E-03	3.861226E-04
5.763378E+03	7.424660E-03	3.923097E-04
5.773196E+03	7.653833E-03	4.023685E-04
5.783014E+03	7.957320E-03	4.161452E-04
5.792833E+03	8.331263E-03	4.333737E-04
5.802651E+03	8.769077E-03	4.536483E-04
5.812469E+03	9.261569E-03	4.764350E-04
5.822288E+03	9.796586E-03	5.010572E-04
5.832106E+03	1.035938E-02	5.267200E-04
5.841924E+03	1.093257E-02	5.525110E-04
5.851743E+03	1.149785E-02	5.774946E-04
5.861561E+03	1.203662E-02	6.007427E-04
5.871379E+03	1.253099E-02	6.213867E-04
5.881198E+03	1.296559E-02	6.387070E-04
5.891016E+03	1.332798E-02	6.521494E-04
5.900835E+03	1.360896E-02	6.613359E-04
5.910653E+03	1.380442E-02	6.661495E-04
5.920471E+03	1.391357E-02	6.666388E-04
5.930290E+03	1.393986E-02	6.630591E-04
5.940108E+03	1.388992E-02	6.558118E-04
5.949926E+03	1.377253E-02	6.453931E-04
5.959745E+03	1.359858E-02	6.323850E-04
5.969563E+03	1.337950E-02	6.173804E-04
5.979381E+03	1.312728E-02	6.009831E-04
5.989200E+03	1.285320E-02	5.837469E-04
5.999018E+03	1.256782E-02	5.661770E-04
6.008837E+03	1.228029E-02	5.487005E-04
6.018655E+03	1.199900E-02	5.316966E-04
6.028473E+03	1.173054E-02	5.154537E-04
6.038292E+03	1.148068E-02	5.002139E-04
6.048110E+03	1.125377E-02	4.861496E-04
6.057928E+03	1.105363E-02	4.734027E-04
6.067747E+03	1.088314E-02	4.620711E-04
6.077565E+03	1.074399E-02	4.521970E-04
6.087383E+03	1.063733E-02	4.437987E-04
6.097202E+03	1.056353E-02	4.368600E-04
6.107020E+03	1.052240E-02	4.313427E-04
6.116838E+03	1.051328E-02	4.271891E-04
6.126657E+03	1.053578E-02	4.243551E-04
6.136475E+03	1.058905E-02	4.227796E-04
6.146294E+03	1.067329E-02	4.224456E-04
6.156112E+03	1.078844E-02	4.233260E-04
6.165930E+03	1.093428E-02	4.253900E-04
6.175749E+03	1.111005E-02	4.285879E-04
6.185567E+03	1.131376E-02	4.328259E-04
6.195385E+03	1.154149E-02	4.379412E-04
6.205204E+03	1.178682E-02	4.436840E-04
6.215022E+03	1.204115E-02	4.497330E-04
6.224840E+03	1.229476E-02	4.557372E-04
6.234659E+03	1.253673E-02	4.613130E-04
6.244477E+03	1.275715E-02	4.661264E-04
6.254296E+03	1.294694E-02	4.698835E-04
6.264114E+03	1.309950E-02	4.723862E-04
6.273932E+03	1.321124E-02	4.735495E-04
6.283751E+03	1.328150E-02	4.733916E-04
6.293569E+03	1.331275E-02	4.720397E-04
6.303387E+03	1.331017E-02	4.697102E-04
6.313206E+03	1.328158E-02	4.667050E-04
6.323024E+03	1.323665E-02	4.633834E-04
6.332842E+03	1.318612E-02	4.601333E-04
6.342661E+03	1.314144E-02	4.573621E-04
6.352479E+03	1.311422E-02	4.554772E-04
6.362297E+03	1.311502E-02	4.548475E-04
6.372116E+03	1.315304E-02	4.557956E-04
6.381934E+03	1.323522E-02	4.585669E-04
6.391753E+03	1.336683E-02	4.633446E-04
6.401571E+03	1.355143E-02	4.702541E-04
6.411389E+03	1.379199E-02	4.794075E-04
6.421208E+03	1.408071E-02	4.905466E-04
6.431026E+03	1.439538E-02	5.029128E-04
6.440844E+03	1.471306E-02	5.157164E-04
6.450663E+03	1.501240E-02	5.282116E-04
6.460481E+03	1.527478E-02	5.397360E-04
6.470299E+03	1.548737E-02	5.498172E-04
6.480118E+03	1.564309E-02	5.581740E-04
6.489936E+03	1.574168E-02	5.647597E-04
6.499755E+03	1.579030E-02	5.697887E-04
6.509573E+03	1.580124E-02	5.736649E-04
6.519391E+03	1.578990E-02	5.769122E-04
6.529210E+03	1.577220E-02	5.800872E-04
6.539028E+03	1.576335E-02	5.837339E-04
6.548846E+03	1.577426E-02	5.882528E-04
6.558665E+03	1.581101E-02	5.938750E-04
6.568483E+03	1.587435E-02	6.006383E-04
6.578301E+03	1.595970E-02	6.083793E-04
6.588120E+03	1.605821E-02	6.167655E-04
6.597938E+03	1.615736E-02	6.253149E-04
6.607757E+03	1.624343E-02	6.334818E-04
6.617575E+03	1.630257E-02	6.407010E-04
6.627393E+03	1.632249E-02	6.464505E-04
6.637212E+03	1.629280E-02	6.502709E-04
6.647030E+03	1.620627E-02	6.518143E-04
6.656848E+03	1.605847E-02	6.508400E-04
6.666667E+03	1.584774E-02	6.472128E-04
6.676485E+03	1.557456E-02	6.408858E-04
6.686303E+03	1.524157E-02	6.319027E-04
6.696122E+03	1.485317E-02	6.203842E-04
6.705940E+03	1.441615E-02	6.065591E-04
6.715758E+03	1.393812E-02	5.907013E-04
6.725577E+03	1.342795E-02	5.731480E-04
6.735395E+03	1.289532E-02	5.542848E-04
6.745214E+03	1.235025E-02	5.345248E-04
6.755032E+03	1.180221E-02	5.142700E-04
6.764850E+03	1.125977E-02	4.938957E-04
6.774669E+03	1.073131E-02	4.737790E-04
6.784487E+03	1.022345E-02	4.542293E-04
6.794305E+03	9.742142E-03	4.355346E-04
6.804124E+03	9.292240E-03	4.179391E-04
6.813942E+03	8.877756E-03	4.016543E-04
6.823760E+03	8.502487E-03	3.868857E-04
6.833579E+03	8.169320E-03	3.738003E-04
6.843397E+03	7.881107E-03	3.625655E-04
6.853216E+03	7.640807E-03	3.533552E-04
6.863034E+03	7.450896E-03	3.463221E-04
6.872852E+03	7.314097E-03	3.416312E-04
6.882671E+03	7.232986E-03	3.394412E-04
6.892489E+03	7.210261E-03	3.399165E-04
6.902307E+03	7.247684E-03	3.431774E-04
6.912126E+03	7.346217E-03	3.493048E-04
6.921944E+03	7.505651E-03	3.583219E-04
6.931762E+03	7.723639E-03	3.701465E-04
6.941581E+03	7.994713E-03	3.845416E-04
6.951399E+03	8.310928E-03	4.011443E-04
6.961217E+03	8.661170E-03	4.194306E-04
6.971036E+03	9.032636E-03	4.387850E-04
6.980854E+03	9.410282E-03	4.584744E-04
6.990673E+03	9.778909E-03	4.777484E-04
7.000491E+03	1.012358E-02	4.958614E-04
7.010309E+03	1.043140E-02	5.121619E-04
7.020128E+03	1.069188E-02	5.261126E-04
7.029946E+03	1.089855E-02	5.373706E-04
7.039764E+03	1.104845E-02	5.457681E-04
7.049583E+03	1.114227E-02	5.513198E-04
7.059401E+03	1.118393E-02	5.542021E-04
7.069219E+03	1.117966E-02	5.547120E-04
7.079038E+03	1.113772E-02	5.532502E-04
7.088856E+03	1.106709E-02	5.502586E-04
7.098675E+03	1.097732E-02	5.462095E-04
7.108493E+03	1.087777E-02	5.415687E-04
7.118311E+03	1.077761E-02	5.367956E-04
7.128130E+03	1.068496E-02	5.322972E-04
7.137948E+03	1.060677E-02	5.284225E-04
7.147766E+03	1.054889E-02	5.254657E-04
7.157585E+03	1.051540E-02	5.236303E-04
7.167403E+03	1.050869E-02	5.230369E-04
7.177221E+03	1.052939E-02	5.237139E-04
7.187040E+03	1.057687E-02	5.256278E-04
7.196858E+03	1.064830E-02	5.286342E-04
7.206676E+03	1.074007E-02	5.325488E-04
7.216495E+03	1.084714E-02	5.371171E-04
7.226313E+03	1.096369E-02	5.420460E-04
7.236132E+03	1.108358E-02	5.470285E-04
7.245950E+03	1.120025E-02	5.517380E-04
7.255768E+03	1.130653E-02	5.558214E-04
7.265587E+03	1.139559E-02	5.589447E-04
7.275405E+03	1.146028E-02	5.607636E-04
7.285223E+03	1.149461E-02	5.609942E-04
7.295042E+03	1.149310E-02	5.593813E-04
7.304860E+03	1.145199E-02	5.557580E-04
7.314678E+03	1.136959E-02	5.500629E-04
7.324497E+03	1.124648E-02	5.423451E-04
7.334315E+03	1.108534E-02	5.327573E-04
7.344134E+03	1.089072E-02	5.215418E-04
7.353952E+03	1.066907E-02	5.090284E-04
7.363770E+03	1.042712E-02	4.955592E-04
7.373589E+03	1.017172E-02	4.814753E-04
7.383407E+03	9.909342E-03	4.670969E-04
7.393225E+03	9.645207E-03	4.526803E-04
7.403044E+03	9.383358E-03	4.384224E-04
7.412862E+03	9.126671E-03	4.244622E-04
7.422680E+03	8.876833E-03	4.108809E-04
7.432499E+03	8.635319E-03	3.977483E-04
7.442317E+03	8.403002E-03	3.851045E-04
7.452135E+03	8.180954E-03	3.729979E-04
7.461954E+03	7.969673E-03	3.614491E-04
7.471772E+03	7.770076E-03	3.504968E-04
7.481591E+03	7.582898E-03	3.401702E-04
7.491409E+03	7.408946E-03	3.305005E-04
7.501227E+03	7.249076E-03	3.215200E-04
7.511046E+03	7.104137E-03	3.132592E-04
7.520864E+03	6.974766E-03	3.057383E-04
7.530682E+03	6.861390E-03	2.989672E-04
7.540501E+03	6.763868E-03	2.929305E-04
7.550319E+03	6.682752E-03	2.876425E-04
7.560137E+03	6.618461E-03	2.831112E-04
7.569956E+03	6.571652E-03	2.793540E-04
7.579774E+03	6.543460E-03	2.764078E-04
7.589593E+03	6.535234E-03	2.743173E-04
7.599411E+03	6.548199E-03	2.731206E-04
7.609229E+03	6.583860E-03	2.728664E-04
7.619048E+03	6.643194E-03	2.735803E-04
