#wls	flux	fluxerr
1.570938E+03	3.906298E-04	2.439205E-05
1.610211E+03	3.952041E-04	2.458319E-05
1.649485E+03	4.000121E-04	2.478413E-05
1.688758E+03	4.049905E-04	2.499066E-05
1.728031E+03	4.101450E-04	2.520286E-05
1.767305E+03	4.156268E-04	2.542969E-05
1.806578E+03	4.212279E-04	2.565808E-05
1.845852E+03	4.271015E-04	2.589706E-05
1.885125E+03	4.332588E-04	2.614690E-05
1.924399E+03	4.396359E-04	2.640335E-05
1.963672E+03	4.462437E-04	2.666668E-05
2.002946E+03	4.532499E-04	2.694648E-05
2.042219E+03	4.604375E-04	2.722934E-05
2.081492E+03	4.680592E-04	2.752975E-05
2.120766E+03	4.758959E-04	2.783427E-05
2.160039E+03	4.842118E-04	2.815781E-05
2.199313E+03	4.928704E-04	2.849178E-05
2.238586E+03	5.019836E-04	2.884201E-05
2.277860E+03	5.115000E-04	2.920483E-05
2.317133E+03	5.215429E-04	2.958653E-05
2.356406E+03	5.321572E-04	2.998881E-05
2.395680E+03	5.433944E-04	3.041360E-05
2.434953E+03	5.552205E-04	3.085800E-05
2.474227E+03	5.677909E-04	3.132958E-05
2.513500E+03	5.810850E-04	3.182600E-05
2.552774E+03	5.952806E-04	3.235569E-05
2.592047E+03	6.104749E-04	3.292242E-05
2.631321E+03	6.267784E-04	3.353045E-05
2.670594E+03	6.443170E-04	3.418464E-05
2.709867E+03	6.631263E-04	3.488481E-05
2.749141E+03	6.834706E-04	3.564262E-05
2.788414E+03	7.055352E-04	3.646507E-05
2.827688E+03	7.294129E-04	3.735408E-05
2.866961E+03	7.554539E-04	3.832433E-05
2.906235E+03	7.839313E-04	3.938592E-05
2.945508E+03	8.151566E-04	4.055025E-05
2.955326E+03	8.234452E-04	4.085947E-05
2.965145E+03	8.319258E-04	4.117574E-05
2.974963E+03	8.406046E-04	4.149927E-05
2.984782E+03	8.494871E-04	4.183028E-05
2.994600E+03	8.585805E-04	4.216900E-05
3.004418E+03	8.678914E-04	4.251569E-05
3.014237E+03	8.774268E-04	4.287059E-05
3.024055E+03	8.871937E-04	4.323394E-05
3.033873E+03	8.971988E-04	4.360598E-05
3.043692E+03	9.074509E-04	4.398703E-05
3.053510E+03	9.179576E-04	4.437735E-05
3.063328E+03	9.288709E-04	4.478416E-05
3.073147E+03	9.399123E-04	4.519391E-05
3.082965E+03	9.512339E-04	4.561383E-05
3.092784E+03	9.629932E-04	4.605133E-05
3.102602E+03	9.749039E-04	4.649257E-05
3.112420E+03	9.872741E-04	4.695215E-05
3.122239E+03	9.998120E-04	4.741602E-05
3.132057E+03	1.012834E-03	4.789910E-05
3.141875E+03	1.026199E-03	4.839446E-05
3.151694E+03	1.039758E-03	4.889502E-05
3.161512E+03	1.053840E-03	4.941612E-05
3.171330E+03	1.068298E-03	4.995065E-05
3.181149E+03	1.082981E-03	5.049142E-05
3.190967E+03	1.098229E-03	5.105411E-05
3.200785E+03	1.113893E-03	5.163155E-05
3.210604E+03	1.129984E-03	5.222419E-05
3.220422E+03	1.146518E-03	5.283248E-05
3.230241E+03	1.163509E-03	5.345688E-05
3.240059E+03	1.180971E-03	5.409790E-05
3.249877E+03	1.198920E-03	5.475600E-05
3.259696E+03	1.217371E-03	5.543170E-05
3.269514E+03	1.236526E-03	5.613396E-05
3.279332E+03	1.256032E-03	5.684649E-05
3.289151E+03	1.276090E-03	5.757821E-05
3.298969E+03	1.296716E-03	5.832960E-05
3.308787E+03	1.318126E-03	5.911015E-05
3.318606E+03	1.339945E-03	5.990274E-05
3.328424E+03	1.362387E-03	6.071674E-05
3.338243E+03	1.385678E-03	6.156189E-05
3.348061E+03	1.409426E-03	6.242050E-05
3.357879E+03	1.434068E-03	6.331169E-05
3.367698E+03	1.459199E-03	6.421728E-05
3.377516E+03	1.485271E-03	6.515682E-05
3.387334E+03	1.511866E-03	6.611173E-05
3.397153E+03	1.539450E-03	6.710203E-05
3.406971E+03	1.567822E-03	6.811863E-05
3.416789E+03	1.596768E-03	6.915190E-05
3.426608E+03	1.626776E-03	7.022270E-05
3.436426E+03	1.657634E-03	7.132146E-05
3.446244E+03	1.689115E-03	7.243810E-05
3.456063E+03	1.721730E-03	7.359421E-05
3.465881E+03	1.755257E-03	7.477985E-05
3.475700E+03	1.789711E-03	7.599536E-05
3.485518E+03	1.825113E-03	7.724118E-05
3.495336E+03	1.861479E-03	7.851765E-05
3.505155E+03	1.898826E-03	7.982509E-05
3.514973E+03	1.937168E-03	8.116368E-05
3.524791E+03	1.976518E-03	8.253364E-05
3.534610E+03	2.016889E-03	8.393503E-05
3.544428E+03	2.058290E-03	8.536789E-05
3.554246E+03	2.100728E-03	8.683209E-05
3.564065E+03	2.144207E-03	8.832744E-05
3.573883E+03	2.188731E-03	8.985364E-05
3.583702E+03	2.234297E-03	9.141025E-05
3.593520E+03	2.280900E-03	9.299667E-05
3.603338E+03	2.328532E-03	9.461219E-05
3.613157E+03	2.377521E-03	9.626973E-05
3.622975E+03	2.427174E-03	9.794082E-05
3.632793E+03	2.477803E-03	9.963782E-05
3.642612E+03	2.529379E-03	1.013593E-04
3.652430E+03	2.581870E-03	1.031035E-04
3.662248E+03	2.635609E-03	1.048836E-04
3.672067E+03	2.689808E-03	1.066678E-04
3.681885E+03	2.744781E-03	1.084684E-04
3.691703E+03	2.800864E-03	1.102985E-04
3.701522E+03	2.857201E-03	1.121242E-04
3.711340E+03	2.914106E-03	1.139578E-04
3.721159E+03	2.971914E-03	1.158122E-04
3.730977E+03	3.029702E-03	1.176513E-04
3.740795E+03	3.087777E-03	1.194872E-04
3.750614E+03	3.146474E-03	1.213329E-04
3.760432E+03	3.204798E-03	1.231499E-04
3.770250E+03	3.263512E-03	1.249680E-04
3.780069E+03	3.321576E-03	1.267473E-04
3.789887E+03	3.379296E-03	1.285001E-04
3.799705E+03	3.437001E-03	1.302390E-04
3.809524E+03	3.493583E-03	1.319225E-04
3.819342E+03	3.549845E-03	1.335814E-04
3.829161E+03	3.604638E-03	1.351730E-04
3.838979E+03	3.658784E-03	1.367288E-04
3.848797E+03	3.711100E-03	1.382052E-04
3.858616E+03	3.761909E-03	1.396151E-04
3.868434E+03	3.811561E-03	1.409723E-04
3.878252E+03	3.858833E-03	1.422324E-04
3.888071E+03	3.904610E-03	1.434291E-04
3.897889E+03	3.947657E-03	1.445179E-04
3.907707E+03	3.988344E-03	1.455137E-04
3.917526E+03	4.027074E-03	1.464321E-04
3.927344E+03	4.062608E-03	1.472293E-04
3.937162E+03	4.095930E-03	1.479421E-04
3.946981E+03	4.125814E-03	1.485276E-04
3.956799E+03	4.152729E-03	1.490040E-04
3.966618E+03	4.177173E-03	1.493904E-04
3.976436E+03	4.197968E-03	1.496459E-04
3.986254E+03	4.216229E-03	1.498116E-04
3.996073E+03	4.230819E-03	1.498484E-04
4.005891E+03	4.242341E-03	1.497790E-04
4.015709E+03	4.251425E-03	1.496267E-04
4.025528E+03	4.257009E-03	1.493554E-04
4.035346E+03	4.259777E-03	1.489903E-04
4.045164E+03	4.259865E-03	1.485372E-04
4.054983E+03	4.258000E-03	1.480224E-04
4.064801E+03	4.253217E-03	1.474132E-04
4.074620E+03	4.246282E-03	1.467372E-04
4.084438E+03	4.237405E-03	1.460024E-04
4.094256E+03	4.227375E-03	1.452365E-04
4.104075E+03	4.215291E-03	1.444092E-04
4.113893E+03	4.201960E-03	1.435488E-04
4.123711E+03	4.187626E-03	1.426640E-04
4.133530E+03	4.172535E-03	1.417635E-04
4.143348E+03	4.156936E-03	1.408561E-04
4.153166E+03	4.141075E-03	1.399503E-04
4.162985E+03	4.125196E-03	1.390545E-04
4.172803E+03	4.109539E-03	1.381767E-04
4.182622E+03	4.094339E-03	1.373250E-04
4.192440E+03	4.079823E-03	1.365068E-04
4.202258E+03	4.066213E-03	1.357294E-04
4.212077E+03	4.053721E-03	1.349998E-04
4.221895E+03	4.042550E-03	1.343246E-04
4.231713E+03	4.032364E-03	1.336923E-04
4.241532E+03	4.024406E-03	1.331440E-04
4.251350E+03	4.018317E-03	1.326675E-04
4.261168E+03	4.014255E-03	1.322676E-04
4.270987E+03	4.011843E-03	1.319316E-04
4.280805E+03	4.012257E-03	1.316981E-04
4.290623E+03	4.014561E-03	1.315360E-04
4.300442E+03	4.019892E-03	1.314822E-04
4.310260E+03	4.027791E-03	1.315214E-04
4.320079E+03	4.037737E-03	1.316364E-04
4.329897E+03	4.050194E-03	1.318422E-04
4.339715E+03	4.065603E-03	1.321530E-04
4.349534E+03	4.082806E-03	1.325305E-04
4.359352E+03	4.102730E-03	1.330046E-04
4.369170E+03	4.124171E-03	1.335361E-04
4.378989E+03	4.147495E-03	1.341365E-04
4.388807E+03	4.172524E-03	1.347999E-04
4.398625E+03	4.199066E-03	1.355199E-04
4.408444E+03	4.226912E-03	1.362898E-04
4.418262E+03	4.256385E-03	1.371198E-04
4.428081E+03	4.286160E-03	1.379672E-04
4.437899E+03	4.315976E-03	1.388235E-04
4.447717E+03	4.346666E-03	1.397157E-04
4.457536E+03	4.377404E-03	1.406170E-04
4.467354E+03	4.407903E-03	1.415183E-04
4.477172E+03	4.437865E-03	1.424101E-04
4.486991E+03	4.466992E-03	1.432828E-04
4.496809E+03	4.494414E-03	1.441086E-04
4.506627E+03	4.520977E-03	1.449146E-04
4.516446E+03	4.545257E-03	1.456552E-04
4.526264E+03	4.568139E-03	1.463588E-04
4.536082E+03	4.588233E-03	1.469807E-04
4.545901E+03	4.606489E-03	1.475514E-04
4.555719E+03	4.621577E-03	1.480283E-04
4.565538E+03	4.633951E-03	1.484256E-04
4.575356E+03	4.643529E-03	1.487408E-04
4.585174E+03	4.650868E-03	1.489915E-04
4.594993E+03	4.654818E-03	1.491406E-04
4.604811E+03	4.656036E-03	1.492091E-04
4.614629E+03	4.654641E-03	1.492004E-04
4.624448E+03	4.650801E-03	1.491198E-04
4.634266E+03	4.644721E-03	1.489736E-04
4.644084E+03	4.636061E-03	1.487505E-04
4.653903E+03	4.626250E-03	1.484962E-04
4.663721E+03	4.614991E-03	1.482008E-04
4.673540E+03	4.602006E-03	1.478552E-04
4.683358E+03	4.588743E-03	1.475055E-04
4.693176E+03	4.574920E-03	1.471426E-04
4.702995E+03	4.560247E-03	1.467568E-04
4.712813E+03	4.545558E-03	1.463747E-04
4.722631E+03	4.531651E-03	1.460218E-04
4.732450E+03	4.517606E-03	1.456683E-04
4.742268E+03	4.504166E-03	1.453380E-04
4.752086E+03	4.491473E-03	1.450354E-04
4.761905E+03	4.479641E-03	1.447639E-04
4.771723E+03	4.468747E-03	1.445259E-04
4.781541E+03	4.458840E-03	1.443229E-04
4.791360E+03	4.449941E-03	1.441557E-04
4.801178E+03	4.442048E-03	1.440238E-04
4.810997E+03	4.435135E-03	1.439265E-04
4.820815E+03	4.428617E-03	1.438447E-04
4.830633E+03	4.423530E-03	1.438120E-04
4.840452E+03	4.419264E-03	1.438085E-04
4.850270E+03	4.415208E-03	1.438142E-04
4.860088E+03	4.411831E-03	1.438443E-04
4.869907E+03	4.409603E-03	1.439141E-04
4.879725E+03	4.407373E-03	1.439860E-04
4.889543E+03	4.405616E-03	1.440753E-04
4.899362E+03	4.404274E-03	1.441802E-04
4.909180E+03	4.403296E-03	1.442988E-04
4.918999E+03	4.403175E-03	1.444473E-04
4.928817E+03	4.402267E-03	1.445717E-04
4.938635E+03	4.402160E-03	1.447239E-04
4.948454E+03	4.402302E-03	1.448859E-04
4.958272E+03	4.402689E-03	1.450573E-04
4.968090E+03	4.403329E-03	1.452384E-04
4.977909E+03	4.403705E-03	1.454119E-04
4.987727E+03	4.404915E-03	1.456143E-04
4.997545E+03	4.405923E-03	1.458110E-04
5.007364E+03	4.407309E-03	1.460213E-04
5.017182E+03	4.409657E-03	1.462644E-04
5.027000E+03	4.411944E-03	1.465064E-04
5.036819E+03	4.414757E-03	1.467667E-04
5.046637E+03	4.418136E-03	1.470467E-04
5.056456E+03	4.422114E-03	1.473474E-04
5.066274E+03	4.426713E-03	1.476695E-04
5.076092E+03	4.431935E-03	1.480132E-04
5.085911E+03	4.437762E-03	1.483778E-04
5.095729E+03	4.444156E-03	1.487621E-04
5.105547E+03	4.451054E-03	1.491638E-04
5.115366E+03	4.457833E-03	1.495622E-04
5.125184E+03	4.465459E-03	1.499896E-04
5.135002E+03	4.472730E-03	1.504056E-04
5.144821E+03	4.480577E-03	1.508414E-04
5.154639E+03	4.487765E-03	1.512554E-04
5.164458E+03	4.494668E-03	1.516602E-04
5.174276E+03	4.501658E-03	1.520682E-04
5.184094E+03	4.507489E-03	1.524371E-04
5.193913E+03	4.512543E-03	1.527799E-04
5.203731E+03	4.516677E-03	1.530914E-04
5.213549E+03	4.519763E-03	1.533671E-04
5.223368E+03	4.521697E-03	1.536035E-04
5.233186E+03	4.522403E-03	1.537976E-04
5.243004E+03	4.521286E-03	1.539292E-04
5.252823E+03	4.519413E-03	1.540342E-04
5.262641E+03	4.516255E-03	1.540946E-04
5.272459E+03	4.511315E-03	1.540931E-04
5.282278E+03	4.505749E-03	1.540691E-04
5.292096E+03	4.498577E-03	1.539889E-04
5.301915E+03	4.491005E-03	1.538936E-04
5.311733E+03	4.482101E-03	1.537513E-04
5.321551E+03	4.472564E-03	1.535857E-04
5.331370E+03	4.462561E-03	1.534024E-04
5.341188E+03	4.452791E-03	1.532255E-04
5.351006E+03	4.442348E-03	1.530238E-04
5.360825E+03	4.431911E-03	1.528205E-04
5.370643E+03	4.421072E-03	1.526017E-04
5.380461E+03	4.410975E-03	1.524067E-04
5.390280E+03	4.401140E-03	1.522189E-04
5.400098E+03	4.391567E-03	1.520382E-04
5.409917E+03	4.382194E-03	1.518626E-04
5.419735E+03	4.372391E-03	1.516700E-04
5.429553E+03	4.363043E-03	1.514911E-04
5.439372E+03	4.352914E-03	1.512829E-04
5.449190E+03	4.342810E-03	1.510733E-04
5.459008E+03	4.331440E-03	1.508173E-04
5.468827E+03	4.319048E-03	1.505231E-04
5.478645E+03	4.305866E-03	1.501988E-04
5.488463E+03	4.290593E-03	1.497988E-04
5.498282E+03	4.273483E-03	1.493317E-04
5.508100E+03	4.254302E-03	1.487891E-04
5.517919E+03	4.232854E-03	1.481639E-04
5.527737E+03	4.208991E-03	1.474507E-04
5.537555E+03	4.182620E-03	1.466460E-04
5.547374E+03	4.153709E-03	1.457484E-04
5.557192E+03	4.121801E-03	1.447417E-04
5.567010E+03	4.087977E-03	1.436636E-04
5.576829E+03	4.051907E-03	1.425023E-04
5.586647E+03	4.013338E-03	1.412488E-04
5.596465E+03	3.973504E-03	1.399463E-04
5.606284E+03	3.931781E-03	1.385728E-04
5.616102E+03	3.889462E-03	1.371738E-04
5.625920E+03	3.846008E-03	1.357301E-04
5.635739E+03	3.802728E-03	1.342881E-04
5.645557E+03	3.759122E-03	1.328300E-04
5.655376E+03	3.716039E-03	1.313859E-04
5.665194E+03	3.673856E-03	1.299693E-04
5.675012E+03	3.632928E-03	1.285928E-04
5.684831E+03	3.593574E-03	1.272678E-04
5.694649E+03	3.556499E-03	1.260195E-04
5.704467E+03	3.520680E-03	1.248116E-04
5.714286E+03	3.487573E-03	1.236961E-04
5.724104E+03	3.456906E-03	1.226633E-04
5.733922E+03	3.428775E-03	1.217170E-04
5.743741E+03	3.403232E-03	1.208589E-04
5.753559E+03	3.380282E-03	1.200896E-04
5.763378E+03	3.359489E-03	1.193935E-04
5.773196E+03	3.341573E-03	1.187964E-04
5.783014E+03	3.325626E-03	1.182662E-04
5.792833E+03	3.312294E-03	1.178258E-04
5.802651E+03	3.300624E-03	1.174415E-04
5.812469E+03	3.291212E-03	1.171344E-04
5.822288E+03	3.283080E-03	1.168700E-04
5.832106E+03	3.276807E-03	1.166687E-04
5.841924E+03	3.271423E-03	1.164961E-04
5.851743E+03	3.267131E-03	1.163593E-04
5.861561E+03	3.263769E-03	1.162528E-04
5.871379E+03	3.261202E-03	1.161715E-04
5.881198E+03	3.259716E-03	1.161257E-04
5.891016E+03	3.258480E-03	1.160858E-04
5.900835E+03	3.257868E-03	1.160651E-04
5.910653E+03	3.257913E-03	1.160648E-04
5.920471E+03	3.258706E-03	1.160880E-04
5.930290E+03	3.260386E-03	1.161397E-04
5.940108E+03	3.262759E-03	1.162129E-04
5.949926E+03	3.266836E-03	1.163437E-04
5.959745E+03	3.272516E-03	1.165283E-04
5.969563E+03	3.280123E-03	1.167783E-04
5.979381E+03	3.289627E-03	1.170924E-04
5.989200E+03	3.302188E-03	1.175120E-04
5.999018E+03	3.317821E-03	1.180373E-04
6.008837E+03	3.336546E-03	1.186691E-04
6.018655E+03	3.359566E-03	1.194497E-04
6.028473E+03	3.386501E-03	1.203657E-04
6.038292E+03	3.418546E-03	1.214590E-04
6.048110E+03	3.455268E-03	1.227141E-04
6.057928E+03	3.497821E-03	1.241716E-04
6.067747E+03	3.545679E-03	1.258124E-04
6.077565E+03	3.599494E-03	1.276592E-04
6.087383E+03	3.659874E-03	1.297331E-04
6.097202E+03	3.726059E-03	1.320066E-04
6.107020E+03	3.798478E-03	1.344943E-04
6.116838E+03	3.877030E-03	1.371920E-04
6.126657E+03	3.961487E-03	1.400911E-04
6.136475E+03	4.051488E-03	1.431781E-04
6.146294E+03	4.146522E-03	1.464342E-04
6.156112E+03	4.246416E-03	1.498527E-04
6.165930E+03	4.349336E-03	1.533683E-04
6.175749E+03	4.454232E-03	1.569432E-04
6.185567E+03	4.560965E-03	1.605722E-04
6.195385E+03	4.667684E-03	1.641896E-04
6.205204E+03	4.772924E-03	1.677436E-04
6.215022E+03	4.875112E-03	1.711788E-04
6.224840E+03	4.972622E-03	1.744381E-04
6.234659E+03	5.063814E-03	1.774641E-04
6.244477E+03	5.146492E-03	1.801804E-04
6.254296E+03	5.220392E-03	1.825783E-04
6.264114E+03	5.283614E-03	1.845923E-04
6.273932E+03	5.334466E-03	1.861641E-04
6.283751E+03	5.373440E-03	1.873123E-04
6.293569E+03	5.399473E-03	1.880011E-04
6.303387E+03	5.411843E-03	1.882069E-04
6.313206E+03	5.412124E-03	1.879860E-04
6.323024E+03	5.399678E-03	1.873179E-04
6.332842E+03	5.376759E-03	1.862823E-04
6.342661E+03	5.343344E-03	1.848800E-04
6.352479E+03	5.302181E-03	1.832074E-04
6.362297E+03	5.253642E-03	1.812787E-04
6.372116E+03	5.200079E-03	1.791760E-04
6.381934E+03	5.143829E-03	1.769807E-04
6.391753E+03	5.085330E-03	1.747083E-04
6.401571E+03	5.026732E-03	1.724331E-04
6.411389E+03	4.969968E-03	1.702216E-04
6.421208E+03	4.914743E-03	1.680634E-04
6.431026E+03	4.861998E-03	1.659906E-04
6.440844E+03	4.811867E-03	1.640076E-04
6.450663E+03	4.764318E-03	1.621128E-04
6.460481E+03	4.719752E-03	1.603197E-04
6.470299E+03	4.676782E-03	1.585808E-04
6.480118E+03	4.635637E-03	1.569036E-04
6.489936E+03	4.595929E-03	1.552750E-04
6.499755E+03	4.557227E-03	1.536801E-04
6.509573E+03	4.519082E-03	1.521038E-04
6.519391E+03	4.481037E-03	1.505307E-04
6.529210E+03	4.442637E-03	1.489457E-04
6.539028E+03	4.403444E-03	1.473343E-04
6.548846E+03	4.363048E-03	1.456832E-04
6.558665E+03	4.321071E-03	1.439800E-04
6.568483E+03	4.276674E-03	1.421974E-04
6.578301E+03	4.230596E-03	1.403605E-04
6.588120E+03	4.182095E-03	1.384453E-04
6.597938E+03	4.131001E-03	1.364468E-04
6.607757E+03	4.077203E-03	1.343622E-04
6.617575E+03	4.020168E-03	1.321747E-04
6.627393E+03	3.960874E-03	1.299173E-04
6.637212E+03	3.898900E-03	1.275771E-04
6.647030E+03	3.834372E-03	1.251588E-04
6.656848E+03	3.767016E-03	1.226545E-04
6.666667E+03	3.697972E-03	1.201021E-04
6.676485E+03	3.626626E-03	1.174824E-04
6.686303E+03	3.554181E-03	1.148350E-04
6.696122E+03	3.480558E-03	1.121580E-04
6.705940E+03	3.405750E-03	1.094517E-04
6.715758E+03	3.331010E-03	1.067567E-04
6.725577E+03	3.255983E-03	1.040621E-04
6.735395E+03	3.181920E-03	1.014080E-04
6.745214E+03	3.108518E-03	9.878473E-05
6.755032E+03	3.036631E-03	9.621951E-05
6.764850E+03	2.967064E-03	9.373759E-05
6.774669E+03	2.899525E-03	9.132934E-05
6.784487E+03	2.835117E-03	8.902912E-05
6.794305E+03	2.773517E-03	8.682606E-05
6.804124E+03	2.715398E-03	8.474060E-05
6.813942E+03	2.661360E-03	8.279062E-05
6.823760E+03	2.610999E-03	8.096251E-05
6.833579E+03	2.564834E-03	7.927146E-05
6.843397E+03	2.523018E-03	7.772105E-05
6.853216E+03	2.485963E-03	7.632273E-05
6.863034E+03	2.453144E-03	7.505911E-05
6.872852E+03	2.424906E-03	7.393951E-05
6.882671E+03	2.401265E-03	7.296307E-05
6.892489E+03	2.382210E-03	7.212810E-05
6.902307E+03	2.367711E-03	7.143230E-05
6.912126E+03	2.357724E-03	7.087292E-05
6.921944E+03	2.352191E-03	7.044681E-05
6.931762E+03	2.351048E-03	7.015067E-05
6.941581E+03	2.354230E-03	6.998106E-05
6.951399E+03	2.361668E-03	6.993453E-05
6.961217E+03	2.373295E-03	7.000771E-05
6.971036E+03	2.389053E-03	7.019742E-05
6.980854E+03	2.408888E-03	7.050065E-05
6.990673E+03	2.432754E-03	7.091465E-05
7.000491E+03	2.460614E-03	7.143689E-05
7.010309E+03	2.492439E-03	7.206512E-05
7.020128E+03	2.527904E-03	7.278851E-05
7.029946E+03	2.567601E-03	7.362272E-05
7.039764E+03	2.611220E-03	7.455728E-05
7.049583E+03	2.658750E-03	7.559046E-05
7.059401E+03	2.709850E-03	7.671110E-05
7.069219E+03	2.765149E-03	7.793557E-05
7.079038E+03	2.824287E-03	7.925219E-05
7.088856E+03	2.886856E-03	8.064804E-05
7.098675E+03	2.953457E-03	8.213855E-05
7.108493E+03	3.023618E-03	8.370906E-05
7.118311E+03	3.096781E-03	8.534280E-05
7.128130E+03	3.173445E-03	8.705230E-05
7.137948E+03	3.252531E-03	8.880672E-05
7.147766E+03	3.334414E-03	9.061533E-05
7.157585E+03	3.417792E-03	9.244181E-05
7.167403E+03	3.502878E-03	9.429133E-05
7.177221E+03	3.588104E-03	9.612123E-05
7.187040E+03	3.673492E-03	9.793208E-05
7.196858E+03	3.757196E-03	9.967489E-05
7.206676E+03	3.838578E-03	1.013336E-04
7.216495E+03	3.916945E-03	1.028909E-04
7.226313E+03	3.990103E-03	1.042908E-04
7.236132E+03	4.057223E-03	1.055140E-04
7.245950E+03	4.117000E-03	1.065291E-04
7.255768E+03	4.168671E-03	1.073196E-04
7.265587E+03	4.210032E-03	1.078324E-04
7.275405E+03	4.240527E-03	1.080576E-04
7.285223E+03	4.259281E-03	1.079776E-04
7.295042E+03	4.265644E-03	1.075808E-04
7.304860E+03	4.259231E-03	1.068626E-04
7.314678E+03	4.239943E-03	1.058258E-04
7.324497E+03	4.207981E-03	1.044806E-04
7.334315E+03	4.163838E-03	1.028445E-04
7.344134E+03	4.108289E-03	1.009413E-04
7.353952E+03	4.042351E-03	9.880067E-05
7.363770E+03	3.967245E-03	9.645633E-05
7.373589E+03	3.884348E-03	9.394528E-05
7.383407E+03	3.795136E-03	9.130611E-05
7.393225E+03	3.701132E-03	8.857780E-05
7.403044E+03	3.603415E-03	8.578786E-05
7.412862E+03	3.504359E-03	8.299394E-05
7.422680E+03	3.404900E-03	8.021857E-05
7.432499E+03	3.306314E-03	7.749179E-05
7.442317E+03	3.209349E-03	7.483067E-05
7.452135E+03	3.115809E-03	7.227639E-05
7.461954E+03	3.026136E-03	6.983780E-05
7.471772E+03	2.940667E-03	6.752123E-05
7.481591E+03	2.860700E-03	6.535469E-05
7.491409E+03	2.785945E-03	6.332960E-05
7.501227E+03	2.717407E-03	6.146682E-05
7.511046E+03	2.654608E-03	5.975339E-05
7.520864E+03	2.598322E-03	5.820468E-05
7.530682E+03	2.547929E-03	5.680471E-05
7.540501E+03	2.503723E-03	5.555802E-05
7.550319E+03	2.465917E-03	5.446742E-05
7.560137E+03	2.433759E-03	5.351438E-05
7.569956E+03	2.407384E-03	5.270024E-05
7.579774E+03	2.386885E-03	5.202539E-05
7.589593E+03	2.371432E-03	5.147026E-05
7.599411E+03	2.361070E-03	5.103460E-05
7.609229E+03	2.355523E-03	5.071126E-05
7.619048E+03	2.354495E-03	5.049288E-05
