#wls	flux	fluxerr
1.570938E+03	2.404492E-04	1.742341E-05
1.610211E+03	2.438181E-04	1.760030E-05
1.649485E+03	2.473306E-04	1.778413E-05
1.688758E+03	2.509945E-04	1.797523E-05
1.728031E+03	2.548634E-04	1.817722E-05
1.767305E+03	2.588569E-04	1.838410E-05
1.806578E+03	2.630765E-04	1.860284E-05
1.845852E+03	2.674881E-04	1.883073E-05
1.885125E+03	2.721520E-04	1.907171E-05
1.924399E+03	2.769869E-04	1.931973E-05
1.963672E+03	2.821045E-04	1.958228E-05
2.002946E+03	2.874739E-04	1.985681E-05
2.042219E+03	2.931137E-04	2.014421E-05
2.081492E+03	2.990972E-04	2.044907E-05
2.120766E+03	3.053435E-04	2.076539E-05
2.160039E+03	3.119845E-04	2.110166E-05
2.199313E+03	3.189969E-04	2.145570E-05
2.238586E+03	3.264700E-04	2.183292E-05
2.277860E+03	3.343274E-04	2.222754E-05
2.317133E+03	3.427252E-04	2.264923E-05
2.356406E+03	3.517133E-04	2.310046E-05
2.395680E+03	3.612225E-04	2.357580E-05
2.434953E+03	3.714347E-04	2.408617E-05
2.474227E+03	3.823539E-04	2.463077E-05
2.513500E+03	3.940537E-04	2.521315E-05
2.552774E+03	4.066166E-04	2.583732E-05
2.592047E+03	4.202079E-04	2.651232E-05
2.631321E+03	4.348651E-04	2.723886E-05
2.670594E+03	4.507068E-04	2.802262E-05
2.709867E+03	4.678671E-04	2.886993E-05
2.749141E+03	4.865801E-04	2.979300E-05
2.788414E+03	5.069400E-04	3.079505E-05
2.827688E+03	5.291402E-04	3.188504E-05
2.866961E+03	5.534929E-04	3.307866E-05
2.906235E+03	5.800611E-04	3.437611E-05
2.945508E+03	6.093149E-04	3.580141E-05
2.955326E+03	6.170432E-04	3.617692E-05
2.965145E+03	6.250629E-04	3.656731E-05
2.974963E+03	6.331699E-04	3.696053E-05
2.984782E+03	6.414741E-04	3.736298E-05
2.994600E+03	6.500902E-04	3.778122E-05
3.004418E+03	6.588072E-04	3.820289E-05
3.014237E+03	6.677387E-04	3.863453E-05
3.024055E+03	6.770050E-04	3.908300E-05
3.033873E+03	6.863862E-04	3.953548E-05
3.043692E+03	6.960012E-04	3.999877E-05
3.053510E+03	7.059751E-04	4.047996E-05
3.063328E+03	7.160806E-04	4.096587E-05
3.073147E+03	7.264402E-04	4.146346E-05
3.082965E+03	7.371850E-04	4.198010E-05
3.092784E+03	7.480778E-04	4.250214E-05
3.102602E+03	7.593744E-04	4.304402E-05
3.112420E+03	7.708318E-04	4.359185E-05
3.122239E+03	7.827120E-04	4.416033E-05
3.132057E+03	7.947658E-04	4.473528E-05
3.141875E+03	8.072635E-04	4.533180E-05
3.151694E+03	8.199470E-04	4.593525E-05
3.161512E+03	8.330967E-04	4.656123E-05
3.171330E+03	8.464462E-04	4.719470E-05
3.181149E+03	8.602844E-04	4.785164E-05
3.190967E+03	8.743364E-04	4.851662E-05
3.200785E+03	8.889006E-04	4.920606E-05
3.210604E+03	9.036935E-04	4.990410E-05
3.220422E+03	9.190228E-04	5.062761E-05
3.230241E+03	9.347506E-04	5.136879E-05
3.240059E+03	9.507302E-04	5.211944E-05
3.249877E+03	9.672845E-04	5.289713E-05
3.259696E+03	9.841059E-04	5.368485E-05
3.269514E+03	1.001528E-03	5.450062E-05
3.279332E+03	1.019401E-03	5.533614E-05
3.289151E+03	1.037564E-03	5.618250E-05
3.298969E+03	1.056369E-03	5.705850E-05
3.308787E+03	1.075656E-03	5.795545E-05
3.318606E+03	1.095258E-03	5.886403E-05
3.328424E+03	1.115541E-03	5.980381E-05
3.338243E+03	1.136339E-03	6.076568E-05
3.348061E+03	1.157662E-03	6.174996E-05
3.357879E+03	1.179327E-03	6.274668E-05
3.367698E+03	1.201728E-03	6.377661E-05
3.377516E+03	1.224684E-03	6.483000E-05
3.387334E+03	1.248000E-03	6.589624E-05
3.397153E+03	1.272090E-03	6.699704E-05
3.406971E+03	1.296763E-03	6.812206E-05
3.416789E+03	1.322025E-03	6.927148E-05
3.426608E+03	1.347664E-03	7.043389E-05
3.436426E+03	1.374123E-03	7.163236E-05
3.446244E+03	1.401192E-03	7.285565E-05
3.456063E+03	1.428876E-03	7.410377E-05
3.465881E+03	1.457179E-03	7.537672E-05
3.475700E+03	1.485861E-03	7.666192E-05
3.485518E+03	1.515405E-03	7.798414E-05
3.495336E+03	1.545573E-03	7.933083E-05
3.505155E+03	1.576365E-03	8.070178E-05
3.514973E+03	1.607779E-03	8.209668E-05
3.524791E+03	1.639543E-03	8.350150E-05
3.534610E+03	1.672181E-03	8.494278E-05
3.544428E+03	1.705424E-03	8.640654E-05
3.554246E+03	1.739261E-03	8.789212E-05
3.564065E+03	1.773681E-03	8.939879E-05
3.573883E+03	1.808670E-03	9.092567E-05
3.583702E+03	1.843913E-03	9.245676E-05
3.593520E+03	1.879982E-03	9.402072E-05
3.603338E+03	1.916563E-03	9.560161E-05
3.613157E+03	1.953630E-03	9.719806E-05
3.622975E+03	1.991158E-03	9.880860E-05
3.632793E+03	2.029114E-03	1.004316E-04
3.642612E+03	2.067464E-03	1.020654E-04
3.652430E+03	2.105831E-03	1.036913E-04
3.662248E+03	2.144848E-03	1.053404E-04
3.672067E+03	2.184137E-03	1.069942E-04
3.681885E+03	2.223651E-03	1.086503E-04
3.691703E+03	2.263337E-03	1.103061E-04
3.701522E+03	2.303139E-03	1.119592E-04
3.711340E+03	2.342999E-03	1.136066E-04
3.721159E+03	2.382854E-03	1.152455E-04
3.730977E+03	2.422248E-03	1.168540E-04
3.740795E+03	2.461883E-03	1.184661E-04
3.750614E+03	2.501303E-03	1.200602E-04
3.760432E+03	2.540430E-03	1.216326E-04
3.770250E+03	2.579184E-03	1.231797E-04
3.780069E+03	2.617481E-03	1.246980E-04
3.789887E+03	2.655235E-03	1.261835E-04
3.799705E+03	2.692355E-03	1.276325E-04
3.809524E+03	2.728316E-03	1.290203E-04
3.819342E+03	2.763889E-03	1.303840E-04
3.829161E+03	2.798549E-03	1.316992E-04
3.838979E+03	2.832199E-03	1.329618E-04
3.848797E+03	2.864742E-03	1.341677E-04
3.858616E+03	2.896078E-03	1.353129E-04
3.868434E+03	2.926111E-03	1.363934E-04
3.878252E+03	2.954272E-03	1.373835E-04
3.888071E+03	2.981399E-03	1.383227E-04
3.897889E+03	3.006933E-03	1.391857E-04
3.907707E+03	3.030779E-03	1.399689E-04
3.917526E+03	3.052847E-03	1.406687E-04
3.926271E+03	1.571339E-03	7.225914E-05
3.931051E+03	1.597218E-03	7.336944E-05
3.935830E+03	1.484885E-03	6.813563E-05
3.940610E+03	1.506224E-03	6.904049E-05
3.945389E+03	1.558966E-03	7.138155E-05
3.950169E+03	1.729193E-03	7.909161E-05
3.954948E+03	1.954451E-03	8.930006E-05
3.959728E+03	2.263957E-03	1.033327E-04
3.964508E+03	2.509784E-03	1.144329E-04
3.969287E+03	2.781284E-03	1.266799E-04
3.974067E+03	2.963930E-03	1.348593E-04
3.978846E+03	3.212260E-03	1.460080E-04
3.983626E+03	3.418319E-03	1.552153E-04
3.988405E+03	3.680073E-03	1.669310E-04
3.993185E+03	3.903513E-03	1.768877E-04
3.997965E+03	4.130031E-03	1.869647E-04
4.002744E+03	4.310446E-03	1.949376E-04
4.007524E+03	4.449258E-03	2.010163E-04
4.012304E+03	4.541278E-03	2.049722E-04
4.017083E+03	4.525483E-03	2.040601E-04
4.021863E+03	4.345693E-03	1.957634E-04
4.026643E+03	4.151080E-03	1.868168E-04
4.031423E+03	3.970091E-03	1.785011E-04
4.036202E+03	3.744508E-03	1.681993E-04
4.040982E+03	3.557444E-03	1.596465E-04
4.045761E+03	3.497169E-03	1.567955E-04
4.050541E+03	3.255364E-03	1.458194E-04
4.055321E+03	2.944449E-03	1.317716E-04
4.060100E+03	2.788118E-03	1.246621E-04
4.064880E+03	2.779173E-03	1.241504E-04
4.069659E+03	2.760037E-03	1.231857E-04
4.074439E+03	2.723110E-03	1.214302E-04
4.079218E+03	2.599188E-03	1.158028E-04
4.083998E+03	2.547172E-03	1.133870E-04
4.088778E+03	2.569305E-03	1.142741E-04
4.093557E+03	2.559514E-03	1.137420E-04
4.098337E+03	2.584525E-03	1.147570E-04
4.103116E+03	2.697044E-03	1.196534E-04
4.107896E+03	2.826144E-03	1.252778E-04
4.112676E+03	3.079567E-03	1.364006E-04
4.117455E+03	3.228023E-03	1.428610E-04
4.122235E+03	3.367208E-03	1.489024E-04
4.127014E+03	3.461551E-03	1.529542E-04
4.131794E+03	3.614446E-03	1.595862E-04
4.136573E+03	3.653970E-03	1.612076E-04
4.141353E+03	3.716747E-03	1.638532E-04
4.146134E+03	3.769675E-03	1.660624E-04
4.150913E+03	3.720990E-03	1.637970E-04
4.155693E+03	3.551794E-03	1.562354E-04
4.160472E+03	3.371574E-03	1.482017E-04
4.165252E+03	3.243123E-03	1.424548E-04
4.170031E+03	3.037392E-03	1.333252E-04
4.174811E+03	2.863980E-03	1.256272E-04
4.179591E+03	2.644453E-03	1.159195E-04
4.184370E+03	2.412965E-03	1.057020E-04
4.189150E+03	2.241550E-03	9.812887E-05
4.193929E+03	2.100042E-03	9.187503E-05
4.198709E+03	2.134504E-03	9.332375E-05
4.203488E+03	2.153064E-03	9.407684E-05
4.208268E+03	2.127895E-03	9.292049E-05
4.213048E+03	2.188483E-03	9.550910E-05
4.217827E+03	2.240959E-03	9.774196E-05
4.222607E+03	2.362219E-03	1.029716E-04
4.227386E+03	2.589484E-03	1.128148E-04
4.232166E+03	2.735877E-03	1.191269E-04
4.236946E+03	2.768175E-03	1.204682E-04
4.241725E+03	2.876456E-03	1.251145E-04
4.246505E+03	3.013457E-03	1.310060E-04
4.251284E+03	3.148886E-03	1.368247E-04
4.256064E+03	3.299991E-03	1.433200E-04
4.260843E+03	3.310816E-03	1.437213E-04
4.265624E+03	3.342370E-03	1.450234E-04
4.270403E+03	3.380539E-03	1.466130E-04
4.275183E+03	3.401546E-03	1.474590E-04
4.279963E+03	3.330653E-03	1.443238E-04
4.284742E+03	3.310260E-03	1.433805E-04
4.289522E+03	3.343845E-03	1.447769E-04
4.294301E+03	3.292705E-03	1.425072E-04
4.299081E+03	3.286550E-03	1.421872E-04
4.303861E+03	3.274948E-03	1.416338E-04
4.308640E+03	3.250432E-03	1.405243E-04
4.313420E+03	3.188137E-03	1.377847E-04
4.318199E+03	3.134311E-03	1.354146E-04
4.322979E+03	3.063423E-03	1.323109E-04
4.327758E+03	2.969731E-03	1.282263E-04
4.332538E+03	2.935183E-03	1.266986E-04
4.337318E+03	2.994752E-03	1.292351E-04
4.342097E+03	3.099449E-03	1.337188E-04
4.346877E+03	3.120333E-03	1.345869E-04
4.351656E+03	3.131367E-03	1.350316E-04
4.356436E+03	3.172055E-03	1.367564E-04
4.361216E+03	3.129071E-03	1.348756E-04
4.365995E+03	3.066332E-03	1.321458E-04
4.370775E+03	3.053735E-03	1.315792E-04
4.375554E+03	3.025191E-03	1.303275E-04
4.380334E+03	2.955107E-03	1.272885E-04
4.385113E+03	2.957572E-03	1.273765E-04
4.389893E+03	2.975760E-03	1.281432E-04
4.394674E+03	2.962960E-03	1.275769E-04
4.399453E+03	2.950909E-03	1.270446E-04
4.404233E+03	2.930110E-03	1.261373E-04
4.409012E+03	2.930455E-03	1.261418E-04
4.413792E+03	2.906867E-03	1.251176E-04
4.418571E+03	2.899814E-03	1.248067E-04
4.423351E+03	2.889293E-03	1.243481E-04
4.428131E+03	2.873294E-03	1.236551E-04
4.432910E+03	2.951328E-03	1.270103E-04
4.437690E+03	2.942471E-03	1.266276E-04
4.442469E+03	2.934496E-03	1.262842E-04
4.447249E+03	2.971440E-03	1.278753E-04
4.452028E+03	3.035841E-03	1.306495E-04
4.456808E+03	3.109014E-03	1.338028E-04
4.461588E+03	3.172184E-03	1.365272E-04
4.466367E+03	3.199039E-03	1.376903E-04
4.471147E+03	3.146320E-03	1.354299E-04
4.475926E+03	3.119234E-03	1.342739E-04
4.480706E+03	3.067094E-03	1.320406E-04
4.485486E+03	3.050546E-03	1.313407E-04
4.490265E+03	3.066799E-03	1.320544E-04
4.495045E+03	3.106275E-03	1.337695E-04
4.499824E+03	3.120302E-03	1.343905E-04
4.504604E+03	3.111077E-03	1.340112E-04
4.509383E+03	3.108322E-03	1.339119E-04
4.514164E+03	3.130286E-03	1.348790E-04
4.518943E+03	3.176797E-03	1.369055E-04
4.523723E+03	3.215001E-03	1.385760E-04
4.528503E+03	3.286273E-03	1.416739E-04
4.533282E+03	3.358287E-03	1.448063E-04
4.538062E+03	3.414992E-03	1.472810E-04
4.542841E+03	3.481876E-03	1.501971E-04
4.547621E+03	3.520544E-03	1.518984E-04
4.552401E+03	3.534004E-03	1.525139E-04
4.557180E+03	3.529656E-03	1.523623E-04
4.561960E+03	3.548026E-03	1.531928E-04
4.566739E+03	3.555879E-03	1.535708E-04
4.571519E+03	3.508497E-03	1.515642E-04
4.576298E+03	3.489306E-03	1.507758E-04
4.581078E+03	3.378799E-03	1.460414E-04
4.585858E+03	3.318867E-03	1.434920E-04
4.590637E+03	3.334977E-03	1.442310E-04
4.595417E+03	3.333492E-03	1.442104E-04
4.600196E+03	3.331138E-03	1.441532E-04
4.604976E+03	3.310343E-03	1.432988E-04
4.609756E+03	3.308477E-03	1.432645E-04
4.614535E+03	3.275051E-03	1.418642E-04
4.619315E+03	3.237802E-03	1.402984E-04
4.624094E+03	3.220036E-03	1.395770E-04
4.628874E+03	3.207569E-03	1.390858E-04
4.633653E+03	3.187687E-03	1.382735E-04
4.638433E+03	3.126968E-03	1.356896E-04
4.643214E+03	3.107189E-03	1.348818E-04
4.647992E+03	3.096665E-03	1.344762E-04
4.652773E+03	3.114423E-03	1.352998E-04
4.657552E+03	3.071392E-03	1.334830E-04
4.662332E+03	3.049885E-03	1.326014E-04
4.667111E+03	3.062149E-03	1.331887E-04
4.671891E+03	3.052654E-03	1.328306E-04
4.676671E+03	3.048692E-03	1.327137E-04
4.681450E+03	2.969829E-03	1.293356E-04
4.686230E+03	2.874964E-03	1.252582E-04
4.691009E+03	2.824482E-03	1.231124E-04
4.695789E+03	2.778407E-03	1.211576E-04
4.700568E+03	2.735581E-03	1.193435E-04
4.705348E+03	2.664421E-03	1.162916E-04
4.710128E+03	2.567761E-03	1.121242E-04
4.714907E+03	2.519365E-03	1.100618E-04
4.719687E+03	2.506885E-03	1.095679E-04
4.724466E+03	2.454300E-03	1.073204E-04
4.729246E+03	2.403317E-03	1.051413E-04
4.734026E+03	2.412977E-03	1.056149E-04
4.738805E+03	2.415503E-03	1.057770E-04
4.743585E+03	2.425949E-03	1.062867E-04
4.748364E+03	2.433109E-03	1.066534E-04
4.753144E+03	2.511851E-03	1.101602E-04
4.757923E+03	2.511359E-03	1.101943E-04
4.762704E+03	2.557901E-03	1.122937E-04
4.767483E+03	2.630029E-03	1.155194E-04
4.772263E+03	2.649639E-03	1.164411E-04
4.777043E+03	2.646967E-03	1.163843E-04
4.781822E+03	2.668004E-03	1.173709E-04
4.786602E+03	2.674755E-03	1.177302E-04
4.791381E+03	2.702415E-03	1.190111E-04
4.796161E+03	2.698268E-03	1.188922E-04
4.800941E+03	2.638709E-03	1.163307E-04
4.805720E+03	2.593642E-03	1.144059E-04
4.810500E+03	2.567044E-03	1.132946E-04
4.815279E+03	2.618341E-03	1.156221E-04
4.820059E+03	2.719480E-03	1.201547E-04
4.824838E+03	2.770727E-03	1.224870E-04
4.829618E+03	2.867149E-03	1.268204E-04
4.834398E+03	2.997837E-03	1.326754E-04
4.839177E+03	3.160624E-03	1.399589E-04
4.843957E+03	3.272014E-03	1.449736E-04
4.848736E+03	3.356439E-03	1.487990E-04
4.853516E+03	3.464604E-03	1.536820E-04
4.858296E+03	3.582947E-03	1.590228E-04
4.863075E+03	3.670868E-03	1.630190E-04
4.867855E+03	3.671185E-03	1.631275E-04
4.872634E+03	3.641322E-03	1.618945E-04
4.877414E+03	3.646878E-03	1.622361E-04
4.882193E+03	3.588779E-03	1.597450E-04
4.886973E+03	3.531667E-03	1.572951E-04
4.891754E+03	3.439885E-03	1.532976E-04
4.896532E+03	3.271738E-03	1.458902E-04
4.901313E+03	3.051840E-03	1.361654E-04
4.906092E+03	2.900871E-03	1.295064E-04
4.910872E+03	2.763554E-03	1.234495E-04
4.915651E+03	2.631552E-03	1.176231E-04
4.920431E+03	2.529551E-03	1.131316E-04
4.925211E+03	2.528453E-03	1.131503E-04
4.929990E+03	2.548405E-03	1.141117E-04
4.934770E+03	2.593111E-03	1.161834E-04
4.939549E+03	2.625046E-03	1.176852E-04
4.944329E+03	2.656885E-03	1.191845E-04
4.949108E+03	2.692437E-03	1.208524E-04
4.953888E+03	2.700848E-03	1.213034E-04
4.958668E+03	2.773789E-03	1.246550E-04
4.963447E+03	2.905301E-03	1.306444E-04
4.968227E+03	3.092311E-03	1.391384E-04
4.973006E+03	3.327494E-03	1.498115E-04
4.977786E+03	3.494334E-03	1.574188E-04
4.982566E+03	3.653452E-03	1.646874E-04
4.987345E+03	3.792847E-03	1.710751E-04
4.992125E+03	3.930081E-03	1.773732E-04
4.996904E+03	4.005350E-03	1.808805E-04
5.001684E+03	4.010145E-03	1.812076E-04
5.006463E+03	4.023555E-03	1.819246E-04
5.011243E+03	3.992864E-03	1.806472E-04
5.016023E+03	3.939777E-03	1.783542E-04
5.020803E+03	3.885057E-03	1.759844E-04
5.025583E+03	3.786987E-03	1.716467E-04
5.030362E+03	3.700493E-03	1.678287E-04
5.035142E+03	3.563554E-03	1.617166E-04
5.039921E+03	3.376927E-03	1.533407E-04
5.044701E+03	3.211146E-03	1.459017E-04
5.049481E+03	3.037639E-03	1.381022E-04
5.054260E+03	2.882444E-03	1.311261E-04
5.059040E+03	2.748035E-03	1.250876E-04
5.063819E+03	2.623412E-03	1.194874E-04
5.068599E+03	2.588429E-03	1.179655E-04
5.073378E+03	2.600629E-03	1.185932E-04
5.078158E+03	2.597188E-03	1.185080E-04
5.082938E+03	2.649733E-03	1.209785E-04
5.087717E+03	2.758445E-03	1.260179E-04
5.092497E+03	2.808147E-03	1.283657E-04
5.097276E+03	2.812692E-03	1.286507E-04
5.102056E+03	2.854645E-03	1.306479E-04
5.106836E+03	2.921462E-03	1.337859E-04
5.111615E+03	3.030007E-03	1.388395E-04
5.116395E+03	3.152635E-03	1.445446E-04
5.121174E+03	3.233231E-03	1.483281E-04
5.125954E+03	3.339895E-03	1.533123E-04
5.130733E+03	3.483823E-03	1.600138E-04
5.135513E+03	3.579725E-03	1.645157E-04
5.140294E+03	3.594031E-03	1.652705E-04
5.145073E+03	3.568264E-03	1.641820E-04
5.149852E+03	3.582294E-03	1.649242E-04
5.154632E+03	3.580081E-03	1.649186E-04
5.159412E+03	3.561011E-03	1.641357E-04
5.164191E+03	3.500331E-03	1.614326E-04
5.168971E+03	3.486202E-03	1.608741E-04
5.173751E+03	3.522140E-03	1.626263E-04
5.178530E+03	3.554120E-03	1.641974E-04
5.183310E+03	3.616180E-03	1.671603E-04
5.188089E+03	3.663078E-03	1.694250E-04
5.192869E+03	3.684272E-03	1.705024E-04
5.197649E+03	3.726388E-03	1.725493E-04
5.202428E+03	3.749117E-03	1.737000E-04
5.207208E+03	3.736694E-03	1.732219E-04
5.211987E+03	3.754412E-03	1.741410E-04
5.216767E+03	3.723810E-03	1.728181E-04
5.221546E+03	3.682831E-03	1.710115E-04
5.226326E+03	3.662846E-03	1.701778E-04
5.231106E+03	3.670801E-03	1.706416E-04
5.235885E+03	3.687432E-03	1.715090E-04
5.240665E+03	3.704013E-03	1.723745E-04
5.245444E+03	3.715762E-03	1.730155E-04
5.250224E+03	3.702649E-03	1.724984E-04
5.255003E+03	3.694821E-03	1.722267E-04
5.259783E+03	3.691920E-03	1.721840E-04
5.264564E+03	3.666373E-03	1.710839E-04
5.269342E+03	3.722935E-03	1.738157E-04
5.274123E+03	3.802323E-03	1.776162E-04
5.278902E+03	3.850040E-03	1.799399E-04
5.283682E+03	3.812028E-03	1.782568E-04
5.288461E+03	3.788396E-03	1.772440E-04
5.293241E+03	3.879898E-03	1.816191E-04
5.298021E+03	3.906749E-03	1.829704E-04
5.302800E+03	3.833960E-03	1.796534E-04
5.307580E+03	3.731530E-03	1.749429E-04
5.312359E+03	3.684658E-03	1.728329E-04
5.317139E+03	3.650875E-03	1.713346E-04
5.321919E+03	3.603211E-03	1.691824E-04
5.326698E+03	3.589862E-03	1.686396E-04
5.331478E+03	3.541790E-03	1.664637E-04
5.336257E+03	3.524055E-03	1.657116E-04
5.341037E+03	3.549028E-03	1.669675E-04
5.345816E+03	3.546273E-03	1.669188E-04
5.350596E+03	3.540152E-03	1.667111E-04
5.355376E+03	3.544259E-03	1.669844E-04
5.360155E+03	3.508585E-03	1.653823E-04
5.364935E+03	3.457892E-03	1.630699E-04
5.369714E+03	3.395594E-03	1.602071E-04
5.374494E+03	3.359588E-03	1.585821E-04
5.379273E+03	3.342503E-03	1.578487E-04
5.384053E+03	3.322542E-03	1.569780E-04
5.388833E+03	3.307658E-03	1.563460E-04
5.393613E+03	3.335738E-03	1.577446E-04
5.398392E+03	3.315350E-03	1.568508E-04
5.403172E+03	3.290040E-03	1.557227E-04
5.407952E+03	3.269438E-03	1.548160E-04
5.412731E+03	3.275181E-03	1.551559E-04
5.417511E+03	3.240811E-03	1.535944E-04
5.422291E+03	3.174621E-03	1.505222E-04
5.427070E+03	3.114982E-03	1.477576E-04
5.431850E+03	3.131434E-03	1.486009E-04
5.436629E+03	3.181030E-03	1.510179E-04
5.441409E+03	3.178856E-03	1.509775E-04
5.446189E+03	3.171148E-03	1.506735E-04
5.450968E+03	3.186617E-03	1.514704E-04
5.455748E+03	3.176777E-03	1.510638E-04
5.460527E+03	3.156146E-03	1.501430E-04
5.465307E+03	3.151887E-03	1.499999E-04
5.470086E+03	3.174750E-03	1.511474E-04
5.474866E+03	3.162205E-03	1.506088E-04
5.479646E+03	3.191723E-03	1.520733E-04
5.484425E+03	3.282049E-03	1.564367E-04
5.489205E+03	3.309478E-03	1.578037E-04
5.493984E+03	3.375224E-03	1.609988E-04
5.498764E+03	3.451514E-03	1.646987E-04
5.503543E+03	3.505303E-03	1.673266E-04
5.508323E+03	3.599820E-03	1.719005E-04
5.513103E+03	3.683070E-03	1.759389E-04
5.517882E+03	3.728861E-03	1.781893E-04
5.522663E+03	3.754115E-03	1.794588E-04
5.527442E+03	3.768673E-03	1.802169E-04
5.532222E+03	3.773509E-03	1.805098E-04
5.537001E+03	3.812957E-03	1.824583E-04
5.541781E+03	3.827348E-03	1.832079E-04
5.546561E+03	3.835147E-03	1.836416E-04
5.551340E+03	3.786514E-03	1.813716E-04
5.556120E+03	3.671481E-03	1.759180E-04
5.560899E+03	3.545815E-03	1.699504E-04
5.565679E+03	3.404946E-03	1.632494E-04
5.570459E+03	3.323715E-03	1.594038E-04
5.575238E+03	3.225703E-03	1.547501E-04
5.580018E+03	3.136972E-03	1.505383E-04
5.584797E+03	3.105372E-03	1.490657E-04
5.589577E+03	3.082463E-03	1.480089E-04
5.594356E+03	3.044586E-03	1.462320E-04
5.599136E+03	3.000694E-03	1.441643E-04
5.603916E+03	2.950849E-03	1.418089E-04
5.608695E+03	2.856971E-03	1.373348E-04
5.613475E+03	2.795627E-03	1.344219E-04
5.618254E+03	2.772161E-03	1.333288E-04
5.623034E+03	2.725819E-03	1.311339E-04
5.627813E+03	2.712765E-03	1.305391E-04
5.632593E+03	2.606329E-03	1.254487E-04
5.637373E+03	2.571682E-03	1.238114E-04
5.642153E+03	2.513691E-03	1.210487E-04
5.646932E+03	2.491403E-03	1.200037E-04
5.651712E+03	2.505749E-03	1.207227E-04
5.656492E+03	2.512773E-03	1.210886E-04
5.661271E+03	2.496681E-03	1.203399E-04
5.666051E+03	2.455783E-03	1.183944E-04
5.670831E+03	2.403484E-03	1.158977E-04
5.675610E+03	2.397689E-03	1.156424E-04
5.680390E+03	2.416874E-03	1.165914E-04
5.685169E+03	2.389205E-03	1.152796E-04
5.689949E+03	2.356084E-03	1.137037E-04
5.694729E+03	2.289006E-03	1.104874E-04
5.699508E+03	2.170305E-03	1.047773E-04
5.704288E+03	2.089407E-03	1.008899E-04
5.709067E+03	1.983855E-03	9.581001E-05
5.713847E+03	1.877844E-03	9.070569E-05
5.718626E+03	1.769166E-03	8.547039E-05
5.723406E+03	1.695333E-03	8.191665E-05
