#wls	flux	fluxerr
1.596488E+03	1.984333E-05	5.959400E-06
1.636400E+03	2.019470E-05	6.046715E-06
1.676312E+03	2.055223E-05	6.134780E-06
1.716224E+03	2.091664E-05	6.223765E-06
1.756136E+03	2.128478E-05	6.312675E-06
1.796049E+03	2.165842E-05	6.401988E-06
1.835961E+03	2.203407E-05	6.490624E-06
1.875873E+03	2.241327E-05	6.578987E-06
1.915785E+03	2.279347E-05	6.666285E-06
1.955697E+03	2.317194E-05	6.751671E-06
1.995610E+03	2.354971E-05	6.835415E-06
2.035522E+03	2.392227E-05	6.916170E-06
2.075434E+03	2.429030E-05	6.994107E-06
2.115346E+03	2.465021E-05	7.068165E-06
2.155258E+03	2.499810E-05	7.137221E-06
2.195171E+03	2.533267E-05	7.200899E-06
2.235083E+03	2.565102E-05	7.258390E-06
2.274995E+03	2.595006E-05	7.308842E-06
2.314907E+03	2.622659E-05	7.351386E-06
2.354819E+03	2.647725E-05	7.385143E-06
2.394732E+03	2.669728E-05	7.408849E-06
2.434644E+03	2.688618E-05	7.422465E-06
2.474556E+03	2.703793E-05	7.424434E-06
2.514468E+03	2.714963E-05	7.414095E-06
2.554380E+03	2.722159E-05	7.391689E-06
2.594293E+03	2.724908E-05	7.356091E-06
2.634205E+03	2.723095E-05	7.307189E-06
2.674117E+03	2.716980E-05	7.245877E-06
2.714029E+03	2.706252E-05	7.171536E-06
2.753941E+03	2.691570E-05	7.086124E-06
2.793854E+03	2.672945E-05	6.989875E-06
2.833766E+03	2.651383E-05	6.885616E-06
2.873678E+03	2.627319E-05	6.774629E-06
2.913590E+03	2.602076E-05	6.660456E-06
2.953502E+03	2.576978E-05	6.546537E-06
2.993414E+03	2.553510E-05	6.436618E-06
3.003393E+03	2.548025E-05	6.410074E-06
3.013371E+03	2.542913E-05	6.384454E-06
3.023349E+03	2.538089E-05	6.359538E-06
3.033327E+03	2.533589E-05	6.335411E-06
3.043305E+03	2.529330E-05	6.311863E-06
3.053283E+03	2.525589E-05	6.289580E-06
3.063261E+03	2.522288E-05	6.268358E-06
3.073239E+03	2.519468E-05	6.248295E-06
3.083217E+03	2.517172E-05	6.229487E-06
3.093195E+03	2.515445E-05	6.212039E-06
3.103173E+03	2.514216E-05	6.195768E-06
3.113151E+03	2.513769E-05	6.181361E-06
3.123129E+03	2.514036E-05	6.168639E-06
3.133107E+03	2.515069E-05	6.157719E-06
3.143085E+03	2.516921E-05	6.148718E-06
3.153063E+03	2.519649E-05	6.141763E-06
3.163041E+03	2.523313E-05	6.136978E-06
3.173019E+03	2.527970E-05	6.134494E-06
3.182997E+03	2.533684E-05	6.134444E-06
3.192975E+03	2.540521E-05	6.136971E-06
3.202954E+03	2.548549E-05	6.142219E-06
3.212932E+03	2.557837E-05	6.150333E-06
3.222910E+03	2.568460E-05	6.161469E-06
3.232888E+03	2.580375E-05	6.175504E-06
3.242866E+03	2.593897E-05	6.193165E-06
3.252844E+03	2.608992E-05	6.214342E-06
3.262822E+03	2.625744E-05	6.239208E-06
3.272800E+03	2.644245E-05	6.267948E-06
3.282778E+03	2.664586E-05	6.300745E-06
3.292756E+03	2.686865E-05	6.337800E-06
3.302734E+03	2.711183E-05	6.379308E-06
3.312712E+03	2.737644E-05	6.425481E-06
3.322690E+03	2.766356E-05	6.476530E-06
3.332668E+03	2.797432E-05	6.532675E-06
3.342646E+03	2.830990E-05	6.594143E-06
3.352624E+03	2.867149E-05	6.661167E-06
3.362602E+03	2.906034E-05	6.733985E-06
3.372580E+03	2.947774E-05	6.812840E-06
3.382558E+03	2.992500E-05	6.897980E-06
3.392536E+03	3.040212E-05	6.989345E-06
3.402514E+03	3.091314E-05	7.087804E-06
3.412493E+03	3.145814E-05	7.193303E-06
3.422471E+03	3.203852E-05	7.306094E-06
3.432449E+03	3.265568E-05	7.426427E-06
3.442427E+03	3.331104E-05	7.554546E-06
3.452405E+03	3.400599E-05	7.690686E-06
3.462383E+03	3.474034E-05	7.834726E-06
3.472361E+03	3.551843E-05	7.987555E-06
3.482339E+03	3.633999E-05	8.149025E-06
3.492317E+03	3.720619E-05	8.319301E-06
3.502295E+03	3.811640E-05	8.498150E-06
3.512273E+03	3.907479E-05	8.686408E-06
3.522251E+03	4.008050E-05	8.883774E-06
3.532229E+03	4.113408E-05	9.090270E-06
3.542207E+03	4.223403E-05	9.305462E-06
3.552185E+03	4.338407E-05	9.530060E-06
3.562163E+03	4.458220E-05	9.763519E-06
3.572141E+03	4.582600E-05	1.000520E-05
3.582119E+03	4.711852E-05	1.025566E-05
3.592097E+03	4.845461E-05	1.051367E-05
3.602075E+03	4.983682E-05	1.077968E-05
3.612053E+03	5.125903E-05	1.105226E-05
3.622032E+03	5.272325E-05	1.133175E-05
3.632010E+03	5.422235E-05	1.161652E-05
3.641988E+03	5.575778E-05	1.190680E-05
3.651966E+03	5.732142E-05	1.220074E-05
3.661944E+03	5.891425E-05	1.249851E-05
3.671922E+03	6.052726E-05	1.279810E-05
3.681900E+03	6.215845E-05	1.309904E-05
3.691878E+03	6.380321E-05	1.340030E-05
3.701856E+03	6.545950E-05	1.370142E-05
3.711834E+03	6.711696E-05	1.400018E-05
3.721812E+03	6.877331E-05	1.429609E-05
3.731790E+03	7.042360E-05	1.458812E-05
3.741768E+03	7.206294E-05	1.487524E-05
3.751746E+03	7.368658E-05	1.515649E-05
3.761724E+03	7.528996E-05	1.543095E-05
3.771702E+03	7.686878E-05	1.569777E-05
3.781680E+03	7.841902E-05	1.595616E-05
3.791658E+03	7.993689E-05	1.620541E-05
3.801636E+03	8.141905E-05	1.644490E-05
3.811614E+03	8.286251E-05	1.667409E-05
3.821592E+03	8.426463E-05	1.689251E-05
3.831571E+03	8.562292E-05	1.709976E-05
3.841549E+03	8.693192E-05	1.729483E-05
3.851527E+03	8.819689E-05	1.747886E-05
3.861505E+03	8.941288E-05	1.765096E-05
3.871483E+03	9.057497E-05	1.781027E-05
3.881461E+03	9.168933E-05	1.795809E-05
3.891439E+03	9.274757E-05	1.809290E-05
3.901417E+03	9.375626E-05	1.821610E-05
3.911395E+03	9.470691E-05	1.832613E-05
3.921373E+03	9.560243E-05	1.842370E-05
3.931351E+03	9.644581E-05	1.850949E-05
3.941329E+03	9.722820E-05	1.858193E-05
3.951307E+03	9.795251E-05	1.864171E-05
3.961285E+03	9.861747E-05	1.868872E-05
3.971263E+03	9.922207E-05	1.872290E-05
3.981241E+03	9.976504E-05	1.874416E-05
3.991219E+03	1.002453E-04	1.875243E-05
4.001197E+03	1.006616E-04	1.874765E-05
4.011175E+03	1.010134E-04	1.872984E-05
4.021153E+03	1.012998E-04	1.869900E-05
4.031132E+03	1.015164E-04	1.865450E-05
4.041110E+03	1.016717E-04	1.859804E-05
4.051088E+03	1.017618E-04	1.852908E-05
4.061066E+03	1.017840E-04	1.844729E-05
4.071044E+03	1.017479E-04	1.835456E-05
4.081022E+03	1.016476E-04	1.825001E-05
4.091000E+03	1.014902E-04	1.813502E-05
4.100978E+03	1.012827E-04	1.801102E-05
4.110956E+03	1.010212E-04	1.787746E-05
4.120934E+03	1.007140E-04	1.773591E-05
4.130912E+03	1.003659E-04	1.758736E-05
4.140890E+03	9.998190E-05	1.743279E-05
4.150868E+03	9.956758E-05	1.727326E-05
4.160846E+03	9.912862E-05	1.710983E-05
4.170824E+03	9.867065E-05	1.694354E-05
4.180802E+03	9.819985E-05	1.677550E-05
4.190780E+03	9.771845E-05	1.660614E-05
4.200758E+03	9.724020E-05	1.643780E-05
4.210736E+03	9.676359E-05	1.627024E-05
4.220714E+03	9.630238E-05	1.610575E-05
4.230692E+03	9.585507E-05	1.594406E-05
4.240671E+03	9.543505E-05	1.578733E-05
4.250649E+03	9.504077E-05	1.563525E-05
4.260627E+03	9.468141E-05	1.548925E-05
4.270605E+03	9.436221E-05	1.535010E-05
4.280583E+03	9.408814E-05	1.521848E-05
4.290561E+03	9.386358E-05	1.509499E-05
4.300539E+03	9.369275E-05	1.498016E-05
4.310517E+03	9.357559E-05	1.487384E-05
4.320495E+03	9.352239E-05	1.477750E-05
4.330473E+03	9.353229E-05	1.469083E-05
4.340451E+03	9.360397E-05	1.461345E-05
4.350429E+03	9.374653E-05	1.454658E-05
4.360407E+03	9.395433E-05	1.448916E-05
4.370385E+03	9.423234E-05	1.444177E-05
4.380363E+03	9.458184E-05	1.440439E-05
4.390341E+03	9.500383E-05	1.437696E-05
4.400319E+03	9.549924E-05	1.435942E-05
4.410297E+03	9.606909E-05	1.435170E-05
4.420275E+03	9.671424E-05	1.435370E-05
4.430253E+03	9.743571E-05	1.436535E-05
4.440231E+03	9.823068E-05	1.438600E-05
4.450210E+03	9.910712E-05	1.441659E-05
4.460188E+03	1.000583E-04	1.445590E-05
4.470166E+03	1.010918E-04	1.450479E-05
4.480144E+03	1.022002E-04	1.456194E-05
4.490122E+03	1.033862E-04	1.462751E-05
4.500100E+03	1.046485E-04	1.470108E-05
4.510078E+03	1.059847E-04	1.478206E-05
4.520056E+03	1.073913E-04	1.486973E-05
4.530034E+03	1.088597E-04	1.496269E-05
4.540012E+03	1.103919E-04	1.506101E-05
4.549990E+03	1.119765E-04	1.516294E-05
4.559968E+03	1.136001E-04	1.526651E-05
4.569946E+03	1.152566E-04	1.537077E-05
4.579924E+03	1.169382E-04	1.547459E-05
4.589902E+03	1.186232E-04	1.557502E-05
4.599880E+03	1.203017E-04	1.567074E-05
4.609858E+03	1.219585E-04	1.575980E-05
4.619836E+03	1.235781E-04	1.584028E-05
4.629814E+03	1.251401E-04	1.590969E-05
4.639792E+03	1.266384E-04	1.596743E-05
4.649771E+03	1.280494E-04	1.601075E-05
4.659749E+03	1.293694E-04	1.603944E-05
4.669727E+03	1.305775E-04	1.605125E-05
4.679705E+03	1.316697E-04	1.604601E-05
4.689683E+03	1.326392E-04	1.602328E-05
4.699661E+03	1.334825E-04	1.598304E-05
4.709639E+03	1.341988E-04	1.592559E-05
4.719617E+03	1.347901E-04	1.585159E-05
4.729595E+03	1.352565E-04	1.576144E-05
4.739573E+03	1.356149E-04	1.565750E-05
4.749551E+03	1.358650E-04	1.554012E-05
4.759529E+03	1.360230E-04	1.541146E-05
4.769507E+03	1.361064E-04	1.527380E-05
4.779485E+03	1.361186E-04	1.512780E-05
4.789463E+03	1.360784E-04	1.497575E-05
4.799441E+03	1.359947E-04	1.481880E-05
4.809419E+03	1.358911E-04	1.465966E-05
4.819397E+03	1.357752E-04	1.449923E-05
4.829375E+03	1.356541E-04	1.433831E-05
4.839353E+03	1.355433E-04	1.417856E-05
4.849331E+03	1.354566E-04	1.402139E-05
4.859310E+03	1.353917E-04	1.386650E-05
4.869288E+03	1.353590E-04	1.371490E-05
4.879266E+03	1.353573E-04	1.356638E-05
4.889244E+03	1.353978E-04	1.342197E-05
4.899222E+03	1.354756E-04	1.328108E-05
4.909200E+03	1.355840E-04	1.314295E-05
4.919178E+03	1.357243E-04	1.300765E-05
4.929156E+03	1.358968E-04	1.287512E-05
4.939134E+03	1.360861E-04	1.274383E-05
4.949112E+03	1.362858E-04	1.261318E-05
4.959090E+03	1.364992E-04	1.248344E-05
4.969068E+03	1.367145E-04	1.235358E-05
4.979046E+03	1.369252E-04	1.222301E-05
4.989024E+03	1.371204E-04	1.209084E-05
4.999002E+03	1.372994E-04	1.195709E-05
5.008980E+03	1.374569E-04	1.182141E-05
5.018958E+03	1.375887E-04	1.168356E-05
5.028936E+03	1.376909E-04	1.154334E-05
5.038914E+03	1.377605E-04	1.140064E-05
5.048892E+03	1.377953E-04	1.125545E-05
5.058870E+03	1.377892E-04	1.110744E-05
5.068849E+03	1.377471E-04	1.095719E-05
5.078827E+03	1.376752E-04	1.080536E-05
5.088805E+03	1.375667E-04	1.065159E-05
5.098783E+03	1.374311E-04	1.049678E-05
5.108761E+03	1.372699E-04	1.034119E-05
5.118739E+03	1.371004E-04	1.018628E-05
5.128717E+03	1.369222E-04	1.003211E-05
5.138695E+03	1.367549E-04	9.880203E-06
5.148673E+03	1.365999E-04	9.730706E-06
5.158651E+03	1.364726E-04	9.584766E-06
5.168629E+03	1.363836E-04	9.443118E-06
5.178607E+03	1.363424E-04	9.306399E-06
5.188585E+03	1.363572E-04	9.175130E-06
5.198563E+03	1.364296E-04	9.049367E-06
5.208541E+03	1.365689E-04	8.929682E-06
5.218519E+03	1.367818E-04	8.816444E-06
5.228497E+03	1.370588E-04	8.708995E-06
5.238475E+03	1.374023E-04	8.607463E-06
5.248453E+03	1.378035E-04	8.511285E-06
5.258431E+03	1.382662E-04	8.420720E-06
5.268409E+03	1.387787E-04	8.335097E-06
5.278388E+03	1.393290E-04	8.253773E-06
5.288366E+03	1.399140E-04	8.176701E-06
5.298344E+03	1.405268E-04	8.103611E-06
5.308322E+03	1.411613E-04	8.034331E-06
5.318300E+03	1.418125E-04	7.968787E-06
5.328278E+03	1.424724E-04	7.906744E-06
5.338256E+03	1.431499E-04	7.848941E-06
5.348234E+03	1.438360E-04	7.795139E-06
5.358212E+03	1.445393E-04	7.746058E-06
5.368190E+03	1.452658E-04	7.702282E-06
5.378168E+03	1.460244E-04	7.664535E-06
5.388146E+03	1.468268E-04	7.633680E-06
5.398124E+03	1.476826E-04	7.610461E-06
5.408102E+03	1.486195E-04	7.596542E-06
5.418080E+03	1.496480E-04	7.592682E-06
5.428058E+03	1.507965E-04	7.600547E-06
5.438036E+03	1.520909E-04	7.621662E-06
5.448014E+03	1.535586E-04	7.657629E-06
5.457992E+03	1.552226E-04	7.709839E-06
5.467970E+03	1.571201E-04	7.780416E-06
5.477949E+03	1.592633E-04	7.870262E-06
5.487927E+03	1.616685E-04	7.980556E-06
5.497905E+03	1.643268E-04	8.111248E-06
5.507883E+03	1.672155E-04	8.261569E-06
5.517861E+03	1.703019E-04	8.430230E-06
5.527839E+03	1.735377E-04	8.615186E-06
5.537817E+03	1.768821E-04	8.814754E-06
5.547795E+03	1.802615E-04	9.025576E-06
5.557773E+03	1.836105E-04	9.244617E-06
5.567751E+03	1.868496E-04	9.468024E-06
5.577729E+03	1.898861E-04	9.691116E-06
5.587707E+03	1.926428E-04	9.909793E-06
5.597685E+03	1.950157E-04	1.011836E-05
5.607663E+03	1.969311E-04	1.031243E-05
5.617641E+03	1.982972E-04	1.048637E-05
5.627619E+03	1.990549E-04	1.063603E-05
5.637597E+03	1.991489E-04	1.075715E-05
5.647575E+03	1.985642E-04	1.084747E-05
5.657553E+03	1.972809E-04	1.090428E-05
5.667531E+03	1.953273E-04	1.092740E-05
5.677509E+03	1.927258E-04	1.091630E-05
5.687488E+03	1.895365E-04	1.087258E-05
5.697466E+03	1.858268E-04	1.079840E-05
5.707444E+03	1.816683E-04	1.069630E-05
5.717422E+03	1.771577E-04	1.057049E-05
5.727400E+03	1.723693E-04	1.042414E-05
5.737378E+03	1.673946E-04	1.026171E-05
5.747356E+03	1.623160E-04	1.008738E-05
5.757334E+03	1.572098E-04	9.905262E-06
5.767312E+03	1.521405E-04	9.718997E-06
5.777290E+03	1.471807E-04	9.533009E-06
5.787268E+03	1.423744E-04	9.350130E-06
5.797246E+03	1.377732E-04	9.173904E-06
5.807224E+03	1.334158E-04	9.007214E-06
5.817202E+03	1.293339E-04	8.852658E-06
5.827180E+03	1.255528E-04	8.712536E-06
5.837158E+03	1.220871E-04	8.588530E-06
5.847136E+03	1.189548E-04	8.482646E-06
5.857114E+03	1.161638E-04	8.396273E-06
5.867092E+03	1.137180E-04	8.330540E-06
5.877070E+03	1.116165E-04	8.286288E-06
5.887048E+03	1.098546E-04	8.264075E-06
5.897027E+03	1.084205E-04	8.263910E-06
5.907005E+03	1.073094E-04	8.286340E-06
5.916983E+03	1.064996E-04	8.330547E-06
5.926961E+03	1.059768E-04	8.396261E-06
5.936939E+03	1.057173E-04	8.482388E-06
5.946917E+03	1.057058E-04	8.588446E-06
5.956895E+03	1.059114E-04	8.712590E-06
5.966873E+03	1.063158E-04	8.853935E-06
5.976851E+03	1.068862E-04	9.010278E-06
5.986829E+03	1.076004E-04	9.180200E-06
5.996807E+03	1.084332E-04	9.361944E-06
6.006785E+03	1.093576E-04	9.553483E-06
6.016763E+03	1.103598E-04	9.753839E-06
6.026741E+03	1.114144E-04	9.960959E-06
6.036719E+03	1.125112E-04	1.017406E-05
6.046697E+03	1.136408E-04	1.039237E-05
6.056675E+03	1.147993E-04	1.061562E-05
6.066653E+03	1.159842E-04	1.084364E-05
6.076631E+03	1.172101E-04	1.107785E-05
6.086609E+03	1.184815E-04	1.131879E-05
6.096588E+03	1.198196E-04	1.156862E-05
6.106566E+03	1.212459E-04	1.182961E-05
6.116544E+03	1.227859E-04	1.210452E-05
6.126522E+03	1.244641E-04	1.239613E-05
6.136500E+03	1.263202E-04	1.270880E-05
6.146478E+03	1.283795E-04	1.304562E-05
6.156456E+03	1.306811E-04	1.341121E-05
6.166434E+03	1.332613E-04	1.381001E-05
6.176412E+03	1.361523E-04	1.424620E-05
6.186390E+03	1.393994E-04	1.472548E-05
6.196368E+03	1.430292E-04	1.525171E-05
6.206346E+03	1.470842E-04	1.583057E-05
6.216324E+03	1.515848E-04	1.646550E-05
6.226302E+03	1.565554E-04	1.716044E-05
6.236280E+03	1.620236E-04	1.791980E-05
6.246258E+03	1.679920E-04	1.874528E-05
6.256236E+03	1.744497E-04	1.963706E-05
6.266214E+03	1.813808E-04	2.059471E-05
6.276192E+03	1.887443E-04	2.161485E-05
6.286170E+03	1.964769E-04	2.269134E-05
6.296148E+03	2.044897E-04	2.381483E-05
6.306127E+03	2.126604E-04	2.497168E-05
6.316105E+03	2.208614E-04	2.614713E-05
6.326083E+03	2.289139E-04	2.731986E-05
6.336061E+03	2.366429E-04	2.846828E-05
6.346039E+03	2.438570E-04	2.956817E-05
6.356017E+03	2.503576E-04	3.059370E-05
6.365995E+03	2.559837E-04	3.152294E-05
6.375973E+03	2.605668E-04	3.233245E-05
6.385951E+03	2.640003E-04	3.300587E-05
6.395929E+03	2.662146E-04	3.353117E-05
6.405907E+03	2.671902E-04	3.390244E-05
6.415885E+03	2.669595E-04	3.412033E-05
6.425863E+03	2.655931E-04	3.419059E-05
6.435841E+03	2.632283E-04	3.412789E-05
6.445819E+03	2.599974E-04	3.394675E-05
6.455797E+03	2.560759E-04	3.366792E-05
6.465775E+03	2.516283E-04	3.331133E-05
6.475753E+03	2.468384E-04	3.290010E-05
6.485731E+03	2.418505E-04	3.245270E-05
6.495709E+03	2.367880E-04	3.198533E-05
6.505687E+03	2.317650E-04	3.151336E-05
6.515666E+03	2.268606E-04	3.104776E-05
6.525644E+03	2.221264E-04	3.059603E-05
6.535622E+03	2.175816E-04	3.016133E-05
6.545600E+03	2.132457E-04	2.974692E-05
6.555578E+03	2.090921E-04	2.934969E-05
6.565556E+03	2.051023E-04	2.896752E-05
6.575534E+03	2.012414E-04	2.859594E-05
6.585512E+03	1.974694E-04	2.822961E-05
6.595490E+03	1.937439E-04	2.786270E-05
6.605468E+03	1.900177E-04	2.748854E-05
6.615446E+03	1.862653E-04	2.710350E-05
6.625424E+03	1.824417E-04	2.670092E-05
6.635402E+03	1.785269E-04	2.627775E-05
6.645380E+03	1.745017E-04	2.583097E-05
6.655358E+03	1.703491E-04	2.535780E-05
6.665336E+03	1.660764E-04	2.485909E-05
6.675314E+03	1.616762E-04	2.433347E-05
6.685292E+03	1.571640E-04	2.378301E-05
6.695270E+03	1.525562E-04	2.321000E-05
6.705248E+03	1.478734E-04	2.261743E-05
6.715227E+03	1.431410E-04	2.200905E-05
6.725205E+03	1.383820E-04	2.138836E-05
6.735183E+03	1.336348E-04	2.076133E-05
6.745161E+03	1.289202E-04	2.013130E-05
6.755139E+03	1.242717E-04	1.950365E-05
6.765117E+03	1.197167E-04	1.888290E-05
6.775095E+03	1.152797E-04	1.827325E-05
6.785073E+03	1.109792E-04	1.767794E-05
6.795051E+03	1.068410E-04	1.710150E-05
6.805029E+03	1.028732E-04	1.654564E-05
6.815007E+03	9.909114E-05	1.601329E-05
6.824985E+03	9.550354E-05	1.550634E-05
6.834963E+03	9.211620E-05	1.502622E-05
6.844941E+03	8.892967E-05	1.457352E-05
6.854919E+03	8.595110E-05	1.414991E-05
6.864897E+03	8.317429E-05	1.375487E-05
6.874875E+03	8.060025E-05	1.338905E-05
6.884853E+03	7.822598E-05	1.305244E-05
6.894831E+03	7.604774E-05	1.274487E-05
6.904809E+03	7.405878E-05	1.246568E-05
6.914787E+03	7.225940E-05	1.221535E-05
6.924766E+03	7.064003E-05	1.199269E-05
6.934744E+03	6.919830E-05	1.179771E-05
6.944722E+03	6.793171E-05	1.163038E-05
6.954700E+03	6.682897E-05	1.148916E-05
6.964678E+03	6.589230E-05	1.137478E-05
6.974656E+03	6.511509E-05	1.128647E-05
6.984634E+03	6.449099E-05	1.122347E-05
6.994612E+03	6.401792E-05	1.118574E-05
7.004590E+03	6.369376E-05	1.117324E-05
7.014568E+03	6.351009E-05	1.118480E-05
7.024546E+03	6.346262E-05	1.121995E-05
7.034524E+03	6.355113E-05	1.127894E-05
7.044502E+03	6.376701E-05	1.136051E-05
7.054480E+03	6.410990E-05	1.146485E-05
7.064458E+03	6.457113E-05	1.159066E-05
7.074436E+03	6.514841E-05	1.173776E-05
7.084414E+03	6.583764E-05	1.190564E-05
7.094392E+03	6.663514E-05	1.209386E-05
7.104370E+03	6.753569E-05	1.230165E-05
7.114348E+03	6.854154E-05	1.252964E-05
7.124326E+03	6.964718E-05	1.277701E-05
7.134305E+03	7.085509E-05	1.304439E-05
7.144283E+03	7.216695E-05	1.333229E-05
7.154261E+03	7.358610E-05	1.364151E-05
7.164239E+03	7.511756E-05	1.397318E-05
7.174217E+03	7.676804E-05	1.432875E-05
7.184195E+03	7.854338E-05	1.470953E-05
7.194173E+03	8.045602E-05	1.511807E-05
7.204151E+03	8.251734E-05	1.555677E-05
7.214129E+03	8.473982E-05	1.602823E-05
7.224107E+03	8.713664E-05	1.653524E-05
7.234085E+03	8.972120E-05	1.708065E-05
7.244063E+03	9.250636E-05	1.766724E-05
7.254041E+03	9.550054E-05	1.829696E-05
7.264019E+03	9.871592E-05	1.897251E-05
7.273997E+03	1.021615E-04	1.969600E-05
7.283975E+03	1.058316E-04	2.046669E-05
7.293953E+03	1.097204E-04	2.128387E-05
7.303931E+03	1.138221E-04	2.214672E-05
7.313909E+03	1.181115E-04	2.305068E-05
7.323887E+03	1.225526E-04	2.398900E-05
7.333865E+03	1.271113E-04	2.495523E-05
7.343844E+03	1.317268E-04	2.593752E-05
7.353822E+03	1.363406E-04	2.692442E-05
7.363800E+03	1.408827E-04	2.790200E-05
7.373778E+03	1.452722E-04	2.885406E-05
7.383756E+03	1.494409E-04	2.976670E-05
7.393734E+03	1.533077E-04	3.062331E-05
7.403712E+03	1.567969E-04	3.140818E-05
7.413690E+03	1.598520E-04	3.210933E-05
7.423668E+03	1.624245E-04	3.271622E-05
7.433646E+03	1.644800E-04	3.322110E-05
7.443624E+03	1.660004E-04	3.361940E-05
7.453602E+03	1.669824E-04	3.390958E-05
7.463580E+03	1.674320E-04	3.409198E-05
7.473558E+03	1.673842E-04	3.417288E-05
7.483536E+03	1.668625E-04	3.415628E-05
7.493514E+03	1.659147E-04	3.405124E-05
7.503492E+03	1.645886E-04	3.386690E-05
7.513470E+03	1.629353E-04	3.361324E-05
7.523448E+03	1.610075E-04	3.330062E-05
7.533426E+03	1.588572E-04	3.293945E-05
7.543405E+03	1.565306E-04	3.253897E-05
7.553383E+03	1.540869E-04	3.211128E-05
7.563361E+03	1.515621E-04	3.166372E-05
7.573339E+03	1.490045E-04	3.120634E-05
7.583317E+03	1.464539E-04	3.074743E-05
7.593295E+03	1.439468E-04	3.029470E-05
7.603273E+03	1.415164E-04	2.985527E-05
7.613251E+03	1.391879E-04	2.943461E-05
7.623229E+03	1.369979E-04	2.904064E-05
7.633207E+03	1.349619E-04	2.867685E-05
7.643185E+03	1.331113E-04	2.835023E-05
7.653163E+03	1.314577E-04	2.806353E-05
7.663141E+03	1.300248E-04	2.782213E-05
7.673119E+03	1.288301E-04	2.763012E-05
7.683097E+03	1.278854E-04	2.749042E-05
7.693075E+03	1.272140E-04	2.740837E-05
7.703053E+03	1.268241E-04	2.738624E-05
7.713031E+03	1.267226E-04	2.742585E-05
7.723009E+03	1.269219E-04	2.753038E-05
7.732987E+03	1.274318E-04	2.770239E-05
7.742965E+03	1.282465E-04	2.794101E-05
