#wls	flux	fluxerr
1.591042E+03	3.749409E-05	2.592303E-06
1.630818E+03	3.974529E-05	2.733656E-06
1.670595E+03	4.193888E-05	2.869103E-06
1.710371E+03	4.402461E-05	2.995229E-06
1.750147E+03	4.596662E-05	3.109671E-06
1.789923E+03	4.766513E-05	3.205827E-06
1.829699E+03	4.898988E-05	3.275228E-06
1.869475E+03	4.978752E-05	3.308092E-06
1.909251E+03	4.990418E-05	3.294883E-06
1.949027E+03	4.922330E-05	3.228803E-06
1.988803E+03	4.782080E-05	3.115840E-06
2.028579E+03	4.598299E-05	2.975501E-06
2.068355E+03	4.430726E-05	2.846802E-06
2.108131E+03	4.362664E-05	2.782697E-06
2.147907E+03	4.464777E-05	2.826543E-06
2.187683E+03	4.778110E-05	3.001655E-06
2.227459E+03	5.299268E-05	3.302736E-06
2.267235E+03	5.989610E-05	3.702642E-06
2.307012E+03	6.790787E-05	4.162817E-06
2.346788E+03	7.646636E-05	4.647160E-06
2.386564E+03	8.508737E-05	5.125371E-06
2.426340E+03	9.338392E-05	5.573976E-06
2.466116E+03	1.010945E-04	5.977782E-06
2.505892E+03	1.080662E-04	6.328563E-06
2.545668E+03	1.141574E-04	6.619155E-06
2.585444E+03	1.192982E-04	6.846864E-06
2.625220E+03	1.234874E-04	7.013157E-06
2.664996E+03	1.266793E-04	7.117032E-06
2.704772E+03	1.289748E-04	7.165830E-06
2.744548E+03	1.304240E-04	7.163905E-06
2.784324E+03	1.311331E-04	7.118590E-06
2.824100E+03	1.312307E-04	7.038193E-06
2.863876E+03	1.308874E-04	6.932952E-06
2.903652E+03	1.302283E-04	6.810322E-06
2.943428E+03	1.294596E-04	6.681623E-06
2.983205E+03	1.287325E-04	6.554816E-06
2.993149E+03	1.285754E-04	6.524329E-06
3.003093E+03	1.284279E-04	6.494302E-06
3.013037E+03	1.283163E-04	6.466065E-06
3.022981E+03	1.282222E-04	6.438663E-06
3.032925E+03	1.281834E-04	6.413992E-06
3.042869E+03	1.281666E-04	6.390353E-06
3.052813E+03	1.282409E-04	6.371172E-06
3.062757E+03	1.283337E-04	6.352803E-06
3.072701E+03	1.284908E-04	6.337506E-06
3.082645E+03	1.287114E-04	6.325195E-06
3.092589E+03	1.289716E-04	6.314669E-06
3.102533E+03	1.292712E-04	6.305902E-06
3.112477E+03	1.296337E-04	6.300009E-06
3.122421E+03	1.300593E-04	6.296972E-06
3.132365E+03	1.305488E-04	6.296787E-06
3.142309E+03	1.310799E-04	6.298357E-06
3.152253E+03	1.316541E-04	6.301720E-06
3.162197E+03	1.323186E-04	6.309110E-06
3.172141E+03	1.330291E-04	6.318372E-06
3.182085E+03	1.338105E-04	6.330655E-06
3.192029E+03	1.346648E-04	6.346018E-06
3.201973E+03	1.355943E-04	6.364525E-06
3.211917E+03	1.366016E-04	6.386253E-06
3.221861E+03	1.376893E-04	6.411281E-06
3.231805E+03	1.388372E-04	6.438633E-06
3.241749E+03	1.400947E-04	6.470543E-06
3.251693E+03	1.414419E-04	6.506046E-06
3.261637E+03	1.429057E-04	6.546316E-06
3.271581E+03	1.444434E-04	6.589338E-06
3.281525E+03	1.461056E-04	6.637368E-06
3.291469E+03	1.478731E-04	6.689470E-06
3.301413E+03	1.497505E-04	6.745783E-06
3.311357E+03	1.517660E-04	6.807514E-06
3.321301E+03	1.539248E-04	6.874816E-06
3.331245E+03	1.562085E-04	6.946779E-06
3.341189E+03	1.586221E-04	7.023560E-06
3.351133E+03	1.611955E-04	7.106397E-06
3.361077E+03	1.639348E-04	7.195465E-06
3.371021E+03	1.668462E-04	7.290938E-06
3.380965E+03	1.699361E-04	7.392994E-06
3.390909E+03	1.732109E-04	7.501802E-06
3.400853E+03	1.766512E-04	7.616426E-06
3.410797E+03	1.803142E-04	7.739214E-06
3.420741E+03	1.841803E-04	7.869198E-06
3.430685E+03	1.882545E-04	8.006478E-06
3.440629E+03	1.925678E-04	8.152238E-06
3.450573E+03	1.970970E-04	8.305362E-06
3.460517E+03	2.018431E-04	8.465767E-06
3.470461E+03	2.068327E-04	8.634431E-06
3.480405E+03	2.120622E-04	8.811066E-06
3.490349E+03	2.175241E-04	8.995216E-06
3.500293E+03	2.231763E-04	9.185015E-06
3.510237E+03	2.290271E-04	9.380694E-06
3.520181E+03	2.350482E-04	9.580977E-06
3.530125E+03	2.412312E-04	9.785433E-06
3.540069E+03	2.474651E-04	9.989484E-06
3.550013E+03	2.537476E-04	1.019301E-05
3.559957E+03	2.599739E-04	1.039179E-05
3.569901E+03	2.660679E-04	1.058285E-05
3.579845E+03	2.720066E-04	1.076535E-05
3.589789E+03	2.777787E-04	1.093896E-05
3.599734E+03	2.833778E-04	1.110351E-05
3.609678E+03	2.889094E-04	1.126324E-05
3.619622E+03	2.943513E-04	1.141732E-05
3.629566E+03	2.997747E-04	1.156858E-05
3.639510E+03	3.052134E-04	1.171833E-05
3.649454E+03	3.106952E-04	1.186762E-05
3.659398E+03	3.162759E-04	1.201857E-05
3.669342E+03	3.219410E-04	1.217057E-05
3.679286E+03	3.277379E-04	1.232538E-05
3.689230E+03	3.336450E-04	1.248210E-05
3.699174E+03	3.397036E-04	1.264223E-05
3.709118E+03	3.459203E-04	1.280592E-05
3.719062E+03	3.522660E-04	1.297204E-05
3.729006E+03	3.588097E-04	1.314304E-05
3.738950E+03	3.655192E-04	1.331764E-05
3.748894E+03	3.723929E-04	1.349571E-05
3.758838E+03	3.794283E-04	1.367708E-05
3.768782E+03	3.866531E-04	1.386265E-05
3.778726E+03	3.940269E-04	1.405091E-05
3.788670E+03	4.015730E-04	1.424260E-05
3.798614E+03	4.092784E-04	1.443719E-05
3.808558E+03	4.171281E-04	1.463408E-05
3.818502E+03	4.251039E-04	1.483258E-05
3.828446E+03	4.332190E-04	1.503310E-05
3.838390E+03	4.413833E-04	1.523247E-05
3.848334E+03	4.496386E-04	1.543213E-05
3.858278E+03	4.579574E-04	1.563111E-05
3.868222E+03	4.662774E-04	1.582730E-05
3.878166E+03	4.746035E-04	1.602090E-05
3.888110E+03	4.829084E-04	1.621102E-05
3.898054E+03	4.911695E-04	1.639694E-05
3.907998E+03	4.993687E-04	1.657813E-05
3.917942E+03	5.075292E-04	1.675544E-05
3.927886E+03	5.156151E-04	1.692773E-05
3.937830E+03	5.236639E-04	1.709633E-05
3.947774E+03	5.316541E-04	1.726059E-05
3.957718E+03	5.396656E-04	1.742318E-05
3.967662E+03	5.476491E-04	1.758254E-05
3.977606E+03	5.556487E-04	1.774015E-05
3.987550E+03	5.637010E-04	1.789720E-05
3.997494E+03	5.717645E-04	1.805243E-05
4.007438E+03	5.798453E-04	1.820607E-05
4.017382E+03	5.878653E-04	1.835572E-05
4.027326E+03	5.957868E-04	1.850032E-05
4.037270E+03	6.035175E-04	1.863713E-05
4.047214E+03	6.109441E-04	1.876282E-05
4.057158E+03	6.179368E-04	1.887365E-05
4.067102E+03	6.243892E-04	1.896667E-05
4.077046E+03	6.301081E-04	1.903639E-05
4.086990E+03	6.350681E-04	1.908246E-05
4.096934E+03	6.390979E-04	1.910020E-05
4.106878E+03	6.422477E-04	1.909162E-05
4.116822E+03	6.444799E-04	1.905607E-05
4.126766E+03	6.459061E-04	1.899734E-05
4.136710E+03	6.466754E-04	1.892020E-05
4.146654E+03	6.470277E-04	1.883199E-05
4.156598E+03	6.471800E-04	1.873923E-05
4.166542E+03	6.475032E-04	1.865274E-05
4.176486E+03	6.483242E-04	1.858186E-05
4.186430E+03	6.500423E-04	1.853781E-05
4.196374E+03	6.530148E-04	1.853039E-05
4.206318E+03	6.576442E-04	1.857051E-05
4.216262E+03	6.642692E-04	1.866709E-05
4.226206E+03	6.732719E-04	1.883008E-05
4.236150E+03	6.849021E-04	1.906561E-05
4.246094E+03	6.994242E-04	1.938011E-05
4.256039E+03	7.170055E-04	1.977726E-05
4.265983E+03	7.377145E-04	2.025800E-05
4.275927E+03	7.614918E-04	2.081977E-05
4.285871E+03	7.881419E-04	2.145644E-05
4.295815E+03	8.172015E-04	2.215472E-05
4.305759E+03	8.480808E-04	2.289822E-05
4.315703E+03	8.799006E-04	2.366305E-05
4.325647E+03	9.115192E-04	2.441870E-05
4.335591E+03	9.416557E-04	2.513143E-05
4.345535E+03	9.688956E-04	2.576446E-05
4.355479E+03	9.919907E-04	2.628592E-05
4.365423E+03	1.010055E-03	2.667388E-05
4.375367E+03	1.022871E-03	2.692428E-05
4.385311E+03	1.030877E-03	2.705016E-05
4.395255E+03	1.035076E-03	2.707910E-05
4.405199E+03	1.036810E-03	2.704717E-05
4.415143E+03	1.037522E-03	2.699253E-05
4.425087E+03	1.038668E-03	2.695327E-05
4.435031E+03	1.041589E-03	2.696410E-05
4.444975E+03	1.047492E-03	2.705597E-05
4.454919E+03	1.057449E-03	2.725612E-05
4.464863E+03	1.072343E-03	2.758682E-05
4.474807E+03	1.092910E-03	2.806648E-05
4.484751E+03	1.119725E-03	2.870941E-05
4.494695E+03	1.153063E-03	2.952223E-05
4.504639E+03	1.193091E-03	3.050885E-05
4.514583E+03	1.239556E-03	3.166260E-05
4.524527E+03	1.291887E-03	3.296886E-05
4.534471E+03	1.349087E-03	3.440236E-05
4.544415E+03	1.409644E-03	3.592488E-05
4.554359E+03	1.471577E-03	3.748638E-05
4.564303E+03	1.532516E-03	3.902709E-05
4.574247E+03	1.589720E-03	4.047780E-05
4.584191E+03	1.640419E-03	4.176854E-05
4.594135E+03	1.681945E-03	4.283175E-05
4.604079E+03	1.711971E-03	4.360841E-05
4.614023E+03	1.728799E-03	4.405512E-05
4.623967E+03	1.731470E-03	4.414706E-05
4.633911E+03	1.719912E-03	4.388164E-05
4.643855E+03	1.694901E-03	4.327772E-05
4.653799E+03	1.657907E-03	4.237162E-05
4.663743E+03	1.611146E-03	4.121875E-05
4.673687E+03	1.557144E-03	3.988247E-05
4.683631E+03	1.498762E-03	3.843488E-05
4.693575E+03	1.438837E-03	3.694786E-05
4.703519E+03	1.380136E-03	3.549172E-05
4.713463E+03	1.325134E-03	3.412980E-05
4.723407E+03	1.275990E-03	3.291770E-05
4.733351E+03	1.234477E-03	3.190154E-05
4.743295E+03	1.201978E-03	3.111768E-05
4.753239E+03	1.179499E-03	3.059320E-05
4.763183E+03	1.167677E-03	3.034587E-05
4.773127E+03	1.166885E-03	3.038684E-05
4.783071E+03	1.177177E-03	3.071913E-05
4.793015E+03	1.198336E-03	3.133887E-05
4.802959E+03	1.229840E-03	3.223424E-05
4.812903E+03	1.270864E-03	3.338539E-05
4.822847E+03	1.320299E-03	3.476493E-05
4.832791E+03	1.376735E-03	3.633732E-05
4.842735E+03	1.438513E-03	3.806012E-05
4.852679E+03	1.503769E-03	3.988501E-05
4.862623E+03	1.570503E-03	4.175967E-05
4.872567E+03	1.636629E-03	4.362891E-05
4.882511E+03	1.700181E-03	4.544016E-05
4.892455E+03	1.759212E-03	4.714077E-05
4.902399E+03	1.811986E-03	4.868325E-05
4.912344E+03	1.857055E-03	5.002722E-05
4.922288E+03	1.893191E-03	5.113789E-05
4.932232E+03	1.919602E-03	5.199183E-05
4.942176E+03	1.935844E-03	5.257472E-05
4.952120E+03	1.941864E-03	5.288286E-05
4.962064E+03	1.938000E-03	5.292301E-05
4.972008E+03	1.924981E-03	5.271285E-05
4.981952E+03	1.903770E-03	5.227658E-05
4.991896E+03	1.875689E-03	5.164861E-05
5.001840E+03	1.842200E-03	5.086764E-05
5.011784E+03	1.804887E-03	4.997611E-05
5.021728E+03	1.765476E-03	4.902095E-05
5.031672E+03	1.725631E-03	4.804792E-05
5.041616E+03	1.686941E-03	4.710117E-05
5.051560E+03	1.650873E-03	4.622196E-05
5.061504E+03	1.618714E-03	4.544694E-05
5.071448E+03	1.591490E-03	4.480583E-05
5.081392E+03	1.569972E-03	4.432150E-05
5.091336E+03	1.554721E-03	4.401107E-05
5.101280E+03	1.545970E-03	4.388256E-05
5.111224E+03	1.543763E-03	4.393868E-05
5.121168E+03	1.547845E-03	4.417356E-05
5.131112E+03	1.557791E-03	4.457648E-05
5.141056E+03	1.572980E-03	4.513091E-05
5.151000E+03	1.592654E-03	4.581613E-05
5.160944E+03	1.615944E-03	4.660806E-05
5.170888E+03	1.641992E-03	4.748263E-05
5.180832E+03	1.669905E-03	4.841447E-05
5.190776E+03	1.698857E-03	4.937991E-05
5.200720E+03	1.728105E-03	5.035747E-05
5.210664E+03	1.757029E-03	5.132897E-05
5.220608E+03	1.785063E-03	5.227772E-05
5.230552E+03	1.811822E-03	5.319215E-05
5.240496E+03	1.836992E-03	5.406259E-05
5.250440E+03	1.860330E-03	5.488150E-05
5.260384E+03	1.881694E-03	5.564419E-05
5.270328E+03	1.901028E-03	5.634855E-05
5.280272E+03	1.918295E-03	5.699293E-05
5.290216E+03	1.933517E-03	5.757751E-05
5.300160E+03	1.946773E-03	5.810416E-05
5.310104E+03	1.958136E-03	5.857464E-05
5.320048E+03	1.967754E-03	5.899290E-05
5.329992E+03	1.975749E-03	5.936227E-05
5.339936E+03	1.982361E-03	5.968955E-05
5.349880E+03	1.987794E-03	5.998065E-05
5.359824E+03	1.992291E-03	6.024265E-05
5.369768E+03	1.996076E-03	6.048211E-05
5.379712E+03	1.999398E-03	6.070641E-05
5.389656E+03	2.002445E-03	6.092121E-05
5.399600E+03	2.005410E-03	6.113229E-05
5.409544E+03	2.008484E-03	6.134546E-05
5.419488E+03	2.011878E-03	6.156716E-05
5.429432E+03	2.015823E-03	6.180456E-05
5.439376E+03	2.020628E-03	6.206717E-05
5.449320E+03	2.026623E-03	6.236531E-05
5.459264E+03	2.034109E-03	6.270842E-05
5.469208E+03	2.043226E-03	6.310109E-05
5.479152E+03	2.053730E-03	6.353597E-05
5.489096E+03	2.065257E-03	6.400196E-05
5.499040E+03	2.077328E-03	6.448434E-05
5.508984E+03	2.089436E-03	6.496736E-05
5.518928E+03	2.101049E-03	6.543440E-05
5.528872E+03	2.111607E-03	6.586787E-05
5.538816E+03	2.120518E-03	6.624910E-05
5.548760E+03	2.127143E-03	6.655777E-05
5.558704E+03	2.130886E-03	6.677485E-05
5.568649E+03	2.131039E-03	6.687773E-05
5.578593E+03	2.126989E-03	6.684661E-05
5.588537E+03	2.118129E-03	6.666180E-05
5.598481E+03	2.103877E-03	6.630435E-05
5.608425E+03	2.083726E-03	6.575759E-05
5.618369E+03	2.057318E-03	6.500951E-05
5.628313E+03	2.024411E-03	6.405175E-05
5.638257E+03	1.984978E-03	6.288273E-05
5.648201E+03	1.939288E-03	6.151031E-05
5.658145E+03	1.887898E-03	5.995159E-05
5.668089E+03	1.831794E-03	5.823745E-05
5.678033E+03	1.772220E-03	5.640708E-05
5.687977E+03	1.710794E-03	5.451179E-05
5.697921E+03	1.649296E-03	5.260841E-05
5.707865E+03	1.589666E-03	5.075905E-05
5.717809E+03	1.533776E-03	4.902386E-05
5.727753E+03	1.483447E-03	4.746161E-05
5.737697E+03	1.440275E-03	4.612412E-05
5.747641E+03	1.405620E-03	4.505572E-05
5.757585E+03	1.380570E-03	4.429222E-05
5.767529E+03	1.366013E-03	4.386298E-05
5.777473E+03	1.362517E-03	4.378721E-05
5.787417E+03	1.370498E-03	4.407921E-05
5.797361E+03	1.390079E-03	4.474378E-05
5.807305E+03	1.421175E-03	4.577901E-05
5.817249E+03	1.463412E-03	4.717367E-05
5.827193E+03	1.516108E-03	4.890638E-05
5.837137E+03	1.578228E-03	5.094431E-05
5.847081E+03	1.648372E-03	5.324280E-05
5.857025E+03	1.724737E-03	5.574383E-05
5.866969E+03	1.805184E-03	5.837850E-05
5.876913E+03	1.887326E-03	6.106958E-05
5.886857E+03	1.968610E-03	6.373436E-05
5.896801E+03	2.046469E-03	6.628951E-05
5.906745E+03	2.118543E-03	6.865818E-05
5.916689E+03	2.182787E-03	7.077371E-05
5.926633E+03	2.237628E-03	7.258452E-05
5.936577E+03	2.282027E-03	7.405650E-05
5.946521E+03	2.315603E-03	7.517670E-05
5.956465E+03	2.338508E-03	7.594967E-05
5.966409E+03	2.351367E-03	7.639526E-05
5.976353E+03	2.355317E-03	7.655010E-05
5.986297E+03	2.351693E-03	7.645733E-05
5.996241E+03	2.342070E-03	7.616799E-05
6.006185E+03	2.328100E-03	7.573569E-05
6.016129E+03	2.311373E-03	7.521211E-05
6.026073E+03	2.293451E-03	7.464810E-05
6.036017E+03	2.275672E-03	7.408728E-05
6.045961E+03	2.259295E-03	7.357071E-05
6.055905E+03	2.245296E-03	7.313030E-05
6.065849E+03	2.234457E-03	7.279165E-05
6.075793E+03	2.227377E-03	7.257438E-05
6.085737E+03	2.224416E-03	7.249038E-05
6.095681E+03	2.225686E-03	7.254341E-05
6.105625E+03	2.231138E-03	7.273199E-05
6.115569E+03	2.240564E-03	7.304946E-05
6.125513E+03	2.253581E-03	7.348347E-05
6.135457E+03	2.269660E-03	7.401678E-05
6.145401E+03	2.288186E-03	7.462950E-05
6.155345E+03	2.308492E-03	7.529990E-05
6.165289E+03	2.329840E-03	7.600399E-05
6.175233E+03	2.351479E-03	7.671737E-05
6.185177E+03	2.372606E-03	7.741383E-05
6.195121E+03	2.392477E-03	7.806920E-05
6.205065E+03	2.410329E-03	7.865860E-05
6.215009E+03	2.425433E-03	7.915835E-05
6.224954E+03	2.437170E-03	7.954824E-05
6.234898E+03	2.444989E-03	7.981034E-05
6.244842E+03	2.448416E-03	7.992924E-05
6.254786E+03	2.447217E-03	7.989732E-05
6.264730E+03	2.441273E-03	7.971075E-05
6.274674E+03	2.430693E-03	7.937311E-05
6.284618E+03	2.415837E-03	7.889619E-05
6.294562E+03	2.397291E-03	7.829915E-05
6.304506E+03	2.375901E-03	7.760968E-05
6.314450E+03	2.352784E-03	7.686429E-05
6.324394E+03	2.329345E-03	7.610890E-05
6.334338E+03	2.307224E-03	7.539718E-05
6.344282E+03	2.288318E-03	7.479123E-05
6.354226E+03	2.274707E-03	7.435907E-05
6.364170E+03	2.268627E-03	7.417405E-05
6.374114E+03	2.272447E-03	7.431381E-05
6.384058E+03	2.288590E-03	7.485788E-05
6.394002E+03	2.319465E-03	7.588546E-05
6.403946E+03	2.367463E-03	7.747526E-05
6.413890E+03	2.435002E-03	7.970699E-05
6.423834E+03	2.524438E-03	8.265861E-05
6.433778E+03	2.638392E-03	8.641678E-05
6.443722E+03	2.779720E-03	9.107622E-05
6.453666E+03	2.951879E-03	9.675157E-05
6.463610E+03	3.159316E-03	1.035902E-04
6.473554E+03	3.407560E-03	1.117754E-04
6.483498E+03	3.703215E-03	1.215263E-04
6.493442E+03	4.051865E-03	1.330293E-04
6.503386E+03	4.452864E-03	1.462666E-04
6.513330E+03	4.895475E-03	1.608892E-04
6.523274E+03	5.360062E-03	1.762547E-04
6.533218E+03	5.821292E-03	1.915321E-04
6.543162E+03	6.251133E-03	2.057994E-04
6.553106E+03	6.622487E-03	2.181632E-04
6.563050E+03	6.912746E-03	2.278753E-04
6.572994E+03	7.106522E-03	2.344235E-04
6.582938E+03	7.196855E-03	2.375717E-04
6.592882E+03	7.185039E-03	2.373554E-04
6.602826E+03	7.079685E-03	2.340518E-04
6.612770E+03	6.894409E-03	2.281040E-04
6.622714E+03	6.645672E-03	2.200501E-04
6.632658E+03	6.350706E-03	2.104556E-04
6.642602E+03	6.026138E-03	1.998673E-04
6.652546E+03	5.686685E-03	1.887707E-04
6.662490E+03	5.344621E-03	1.775712E-04
6.672434E+03	5.009726E-03	1.665933E-04
6.682378E+03	4.689160E-03	1.560751E-04
6.692322E+03	4.387895E-03	1.461830E-04
6.702266E+03	4.109050E-03	1.370221E-04
6.712210E+03	3.854110E-03	1.286435E-04
6.722154E+03	3.623485E-03	1.210629E-04
6.732098E+03	3.416601E-03	1.142629E-04
6.742042E+03	3.232455E-03	1.082119E-04
6.751986E+03	3.069519E-03	1.028607E-04
6.761930E+03	2.926209E-03	9.815798E-05
6.771874E+03	2.800730E-03	9.404534E-05
6.781818E+03	2.691434E-03	9.046896E-05
6.791762E+03	2.596626E-03	8.737336E-05
6.801706E+03	2.514790E-03	8.470881E-05
6.811650E+03	2.444598E-03	8.243184E-05
6.821594E+03	2.384749E-03	8.049962E-05
6.831538E+03	2.334133E-03	7.887573E-05
6.841482E+03	2.291768E-03	7.752781E-05
6.851426E+03	2.256807E-03	7.642804E-05
6.861370E+03	2.228447E-03	7.554996E-05
6.871314E+03	2.205996E-03	7.487075E-05
6.881259E+03	2.188832E-03	7.436987E-05
6.891203E+03	2.176390E-03	7.402867E-05
6.901147E+03	2.168156E-03	7.383013E-05
6.911091E+03	2.163632E-03	7.375772E-05
6.921035E+03	2.162409E-03	7.379787E-05
6.930979E+03	2.164084E-03	7.393716E-05
6.940923E+03	2.168233E-03	7.416138E-05
6.950867E+03	2.174562E-03	7.446069E-05
6.960811E+03	2.182747E-03	7.482428E-05
6.970755E+03	2.192444E-03	7.524047E-05
6.980699E+03	2.203410E-03	7.570106E-05
6.990643E+03	2.215405E-03	7.619798E-05
7.000587E+03	2.228225E-03	7.672426E-05
7.010531E+03	2.241703E-03	7.727419E-05
7.020475E+03	2.255682E-03	7.784248E-05
7.030419E+03	2.270103E-03	7.842707E-05
7.040363E+03	2.284892E-03	7.902545E-05
7.050307E+03	2.300067E-03	7.963832E-05
7.060251E+03	2.315628E-03	8.026562E-05
7.070195E+03	2.331626E-03	8.090920E-05
7.080139E+03	2.348133E-03	8.157160E-05
7.090083E+03	2.365232E-03	8.225573E-05
7.100027E+03	2.383006E-03	8.296455E-05
7.109971E+03	2.401525E-03	8.370056E-05
7.119915E+03	2.420837E-03	8.446553E-05
7.129859E+03	2.440924E-03	8.525887E-05
7.139803E+03	2.461810E-03	8.608156E-05
7.149747E+03	2.483345E-03	8.692837E-05
7.159691E+03	2.505371E-03	8.779390E-05
7.169635E+03	2.527700E-03	8.867155E-05
7.179579E+03	2.550043E-03	8.955119E-05
7.189523E+03	2.572044E-03	9.042037E-05
7.199467E+03	2.593221E-03	9.126205E-05
7.209411E+03	2.613201E-03	9.206306E-05
7.219355E+03	2.631406E-03	9.280278E-05
7.229299E+03	2.647287E-03	9.346171E-05
7.239243E+03	2.660318E-03	9.402098E-05
7.249187E+03	2.669907E-03	9.445939E-05
7.259131E+03	2.675562E-03	9.475906E-05
7.269075E+03	2.676800E-03	9.490253E-05
7.279019E+03	2.673185E-03	9.487378E-05
7.288963E+03	2.664442E-03	9.466258E-05
7.298907E+03	2.650345E-03	9.426029E-05
7.308851E+03	2.630863E-03	9.366527E-05
7.318795E+03	2.606067E-03	9.287947E-05
7.328739E+03	2.576161E-03	9.190956E-05
7.338683E+03	2.541477E-03	9.076686E-05
7.348627E+03	2.502462E-03	8.946691E-05
7.358571E+03	2.459665E-03	8.802882E-05
7.368515E+03	2.413715E-03	8.647477E-05
7.378459E+03	2.365305E-03	8.482924E-05
7.388403E+03	2.315170E-03	8.311839E-05
7.398347E+03	2.264098E-03	8.137035E-05
7.408291E+03	2.212820E-03	7.961129E-05
7.418235E+03	2.162052E-03	7.786708E-05
7.428179E+03	2.112571E-03	7.616573E-05
7.438123E+03	2.065015E-03	7.453045E-05
7.448067E+03	2.020020E-03	7.298443E-05
7.458011E+03	1.978061E-03	7.154519E-05
7.467955E+03	1.939646E-03	7.023146E-05
7.477899E+03	1.905112E-03	6.905586E-05
7.487843E+03	1.874736E-03	6.802894E-05
7.497787E+03	1.848736E-03	6.715915E-05
7.507731E+03	1.827205E-03	6.645037E-05
7.517675E+03	1.810192E-03	6.590494E-05
7.527620E+03	1.797713E-03	6.552403E-05
7.537564E+03	1.789660E-03	6.530427E-05
7.547508E+03	1.785981E-03	6.524434E-05
7.557452E+03	1.786511E-03	6.533880E-05
7.567396E+03	1.791073E-03	6.558173E-05
7.577340E+03	1.799454E-03	6.596591E-05
7.587284E+03	1.811431E-03	6.648367E-05
7.597228E+03	1.826668E-03	6.712318E-05
7.607172E+03	1.844891E-03	6.787495E-05
7.617116E+03	1.865719E-03	6.872532E-05
7.627060E+03	1.888759E-03	6.966028E-05
7.637004E+03	1.913616E-03	7.066563E-05
7.646948E+03	1.939784E-03	7.172305E-05
7.656892E+03	1.966846E-03	7.281731E-05
7.666836E+03	1.994307E-03	7.393039E-05
7.676780E+03	2.021606E-03	7.504157E-05
7.686724E+03	2.048318E-03	7.613516E-05
7.696668E+03	2.073842E-03	7.718889E-05
7.706612E+03	2.097771E-03	7.818746E-05
7.716556E+03	2.119572E-03	7.911085E-05
