#wls	flux	fluxerr
1.591042E+03	9.710628E-06	1.771398E-06
1.630818E+03	1.025736E-05	1.858276E-06
1.670595E+03	1.077623E-05	1.938470E-06
1.710371E+03	1.125703E-05	2.010215E-06
1.750147E+03	1.168296E-05	2.070635E-06
1.789923E+03	1.203170E-05	2.115986E-06
1.829699E+03	1.227140E-05	2.140989E-06
1.869475E+03	1.236603E-05	2.139843E-06
1.909251E+03	1.227822E-05	2.106743E-06
1.949027E+03	1.199529E-05	2.040332E-06
1.988803E+03	1.152863E-05	1.943427E-06
2.028579E+03	1.096333E-05	1.831114E-06
2.068355E+03	1.044257E-05	1.727590E-06
2.108131E+03	1.015923E-05	1.664290E-06
2.147907E+03	1.027211E-05	1.665838E-06
2.187683E+03	1.085832E-05	1.742634E-06
2.227459E+03	1.189669E-05	1.888866E-06
2.267235E+03	1.328459E-05	2.085982E-06
2.307012E+03	1.489199E-05	2.311816E-06
2.346788E+03	1.658938E-05	2.545158E-06
2.386564E+03	1.828568E-05	2.771533E-06
2.426340E+03	1.991197E-05	2.980451E-06
2.466116E+03	2.142943E-05	3.166397E-06
2.505892E+03	2.281823E-05	3.326949E-06
2.545668E+03	2.407559E-05	3.462310E-06
2.585444E+03	2.519748E-05	3.572561E-06
2.625220E+03	2.619887E-05	3.660495E-06
2.664996E+03	2.708391E-05	3.727325E-06
2.704772E+03	2.786879E-05	3.775881E-06
2.744548E+03	2.856685E-05	3.808504E-06
2.784324E+03	2.919318E-05	3.827664E-06
2.824100E+03	2.976945E-05	3.836568E-06
2.863876E+03	3.030905E-05	3.837195E-06
2.903652E+03	3.084649E-05	3.834034E-06
2.943428E+03	3.139341E-05	3.828479E-06
2.983205E+03	3.198262E-05	3.824340E-06
2.993149E+03	3.213941E-05	3.823829E-06
3.003093E+03	3.229843E-05	3.823328E-06
3.013037E+03	3.246488E-05	3.823443E-06
3.022981E+03	3.264004E-05	3.824310E-06
3.032925E+03	3.282265E-05	3.825768E-06
3.042869E+03	3.301636E-05	3.828224E-06
3.052813E+03	3.322540E-05	3.832145E-06
3.062757E+03	3.344936E-05	3.837455E-06
3.072701E+03	3.368793E-05	3.844089E-06
3.082645E+03	3.393141E-05	3.850920E-06
3.092589E+03	3.419392E-05	3.859530E-06
3.102533E+03	3.446590E-05	3.868811E-06
3.112477E+03	3.475219E-05	3.879283E-06
3.122421E+03	3.504811E-05	3.890400E-06
3.132365E+03	3.535862E-05	3.902689E-06
3.142309E+03	3.568403E-05	3.916155E-06
3.152253E+03	3.601984E-05	3.930279E-06
3.162197E+03	3.637130E-05	3.945608E-06
3.172141E+03	3.673887E-05	3.962161E-06
3.182085E+03	3.711827E-05	3.979448E-06
3.192029E+03	3.751497E-05	3.998027E-06
3.201973E+03	3.792967E-05	4.017936E-06
3.211917E+03	3.836315E-05	4.039223E-06
3.221861E+03	3.881135E-05	4.061425E-06
3.231805E+03	3.928010E-05	4.085118E-06
3.241749E+03	3.977043E-05	4.110367E-06
3.251693E+03	4.028346E-05	4.137243E-06
3.261637E+03	4.081536E-05	4.165309E-06
3.271581E+03	4.137752E-05	4.195682E-06
3.281525E+03	4.196125E-05	4.227425E-06
3.291469E+03	4.257314E-05	4.261153E-06
3.301413E+03	4.320971E-05	4.296464E-06
3.311357E+03	4.388310E-05	4.334504E-06
3.321301E+03	4.459017E-05	4.374891E-06
3.331245E+03	4.532779E-05	4.417253E-06
3.341189E+03	4.610354E-05	4.462258E-06
3.351133E+03	4.692540E-05	4.510595E-06
3.361077E+03	4.778546E-05	4.561416E-06
3.371021E+03	4.869216E-05	4.615441E-06
3.380965E+03	4.964887E-05	4.672894E-06
3.390909E+03	5.065938E-05	4.734022E-06
3.400853E+03	5.172775E-05	4.799094E-06
3.410797E+03	5.286431E-05	4.868940E-06
3.420741E+03	5.406257E-05	4.942827E-06
3.430685E+03	5.533374E-05	5.021645E-06
3.440629E+03	5.668388E-05	5.105790E-06
3.450573E+03	5.811974E-05	5.195700E-06
3.460517E+03	5.965501E-05	5.292413E-06
3.470461E+03	6.128547E-05	5.395351E-06
3.480405E+03	6.303282E-05	5.506214E-06
3.490349E+03	6.489418E-05	5.624510E-06
3.500293E+03	6.689370E-05	5.752077E-06
3.510237E+03	6.903693E-05	5.889103E-06
3.520181E+03	7.134422E-05	6.037012E-06
3.530125E+03	7.381586E-05	6.195489E-06
3.540069E+03	7.647435E-05	6.366063E-06
3.550013E+03	7.934403E-05	6.550357E-06
3.559957E+03	8.243514E-05	6.748770E-06
3.569901E+03	8.577385E-05	6.962966E-06
3.579845E+03	8.936135E-05	7.192526E-06
3.589789E+03	9.322994E-05	7.439512E-06
3.599734E+03	9.738524E-05	7.703783E-06
3.609678E+03	1.018490E-04	7.986450E-06
3.619622E+03	1.066141E-04	8.286314E-06
3.629566E+03	1.117097E-04	8.605004E-06
3.639510E+03	1.171458E-04	8.942600E-06
3.649454E+03	1.229203E-04	9.298224E-06
3.659398E+03	1.290388E-04	9.671607E-06
3.669342E+03	1.355050E-04	1.006232E-05
3.679286E+03	1.423327E-04	1.047065E-05
3.689230E+03	1.495221E-04	1.089586E-05
3.699174E+03	1.570569E-04	1.133606E-05
3.709118E+03	1.649292E-04	1.178995E-05
3.719062E+03	1.731413E-04	1.225704E-05
3.729006E+03	1.816634E-04	1.273453E-05
3.738950E+03	1.904890E-04	1.322135E-05
3.748894E+03	1.995767E-04	1.371405E-05
3.758838E+03	2.089096E-04	1.421097E-05
3.768782E+03	2.184328E-04	1.470792E-05
3.778726E+03	2.281179E-04	1.520265E-05
3.788670E+03	2.378953E-04	1.569028E-05
3.798614E+03	2.477247E-04	1.616801E-05
3.808558E+03	2.575434E-04	1.663174E-05
3.818502E+03	2.672646E-04	1.707599E-05
3.828446E+03	2.768391E-04	1.749791E-05
3.838390E+03	2.861790E-04	1.789235E-05
3.848334E+03	2.952428E-04	1.825729E-05
3.858278E+03	3.039773E-04	1.859011E-05
3.868222E+03	3.123180E-04	1.888763E-05
3.878166E+03	3.202588E-04	1.915037E-05
3.888110E+03	3.277625E-04	1.937702E-05
3.898054E+03	3.348773E-04	1.957134E-05
3.907998E+03	3.415714E-04	1.973238E-05
3.917942E+03	3.478716E-04	1.986259E-05
3.927886E+03	3.538385E-04	1.996627E-05
3.937830E+03	3.595167E-04	2.004665E-05
3.947774E+03	3.649572E-04	2.010721E-05
3.957718E+03	3.701905E-04	2.015018E-05
3.967662E+03	3.752988E-04	2.018049E-05
3.977606E+03	3.803414E-04	2.020163E-05
3.987550E+03	3.853770E-04	2.021692E-05
3.997494E+03	3.904352E-04	2.022801E-05
4.007438E+03	3.955888E-04	2.023871E-05
4.017382E+03	4.008490E-04	2.024951E-05
4.027326E+03	4.062859E-04	2.026385E-05
4.037270E+03	4.118508E-04	2.027913E-05
4.047214E+03	4.175462E-04	2.029538E-05
4.057158E+03	4.233023E-04	2.030918E-05
4.067102E+03	4.290762E-04	2.031854E-05
4.077046E+03	4.347829E-04	2.031965E-05
4.086990E+03	4.403256E-04	2.030836E-05
4.096934E+03	4.455804E-04	2.027954E-05
4.106878E+03	4.504822E-04	2.023100E-05
4.116822E+03	4.549596E-04	2.016043E-05
4.126766E+03	4.589684E-04	2.006688E-05
4.136710E+03	4.624739E-04	1.994990E-05
4.146654E+03	4.655305E-04	1.981291E-05
4.156598E+03	4.681812E-04	1.965872E-05
4.166542E+03	4.705817E-04	1.949471E-05
4.176486E+03	4.727932E-04	1.932402E-05
4.186430E+03	4.750545E-04	1.915684E-05
4.196374E+03	4.774966E-04	1.899855E-05
4.206318E+03	4.803372E-04	1.885768E-05
4.216262E+03	4.837468E-04	1.874048E-05
4.226206E+03	4.879402E-04	1.865459E-05
4.236150E+03	4.930951E-04	1.860590E-05
4.246094E+03	4.993422E-04	1.859822E-05
4.256039E+03	5.068053E-04	1.863498E-05
4.265983E+03	5.156173E-04	1.871978E-05
4.275927E+03	5.257335E-04	1.884973E-05
4.285871E+03	5.371939E-04	1.902517E-05
4.295815E+03	5.498116E-04	1.923852E-05
4.305759E+03	5.634380E-04	1.948402E-05
4.315703E+03	5.777775E-04	1.975121E-05
4.325647E+03	5.924074E-04	2.002593E-05
4.335591E+03	6.068365E-04	2.029245E-05
4.345535E+03	6.205304E-04	2.053435E-05
4.355479E+03	6.328921E-04	2.073388E-05
4.365423E+03	6.435142E-04	2.088014E-05
4.375367E+03	6.522289E-04	2.097029E-05
4.385311E+03	6.593342E-04	2.101637E-05
4.395255E+03	6.652787E-04	2.103463E-05
4.405199E+03	6.705396E-04	2.104164E-05
4.415143E+03	6.757297E-04	2.105761E-05
4.425087E+03	6.813667E-04	2.109925E-05
4.435031E+03	6.879628E-04	2.118270E-05
4.444975E+03	6.959831E-04	2.132240E-05
4.454919E+03	7.058311E-04	2.153073E-05
4.464863E+03	7.178390E-04	2.181758E-05
4.474807E+03	7.322512E-04	2.219008E-05
4.484751E+03	7.492106E-04	2.265241E-05
4.494695E+03	7.687403E-04	2.320534E-05
4.504639E+03	7.907248E-04	2.384569E-05
4.514583E+03	8.148923E-04	2.456582E-05
4.524527E+03	8.408015E-04	2.535314E-05
4.534471E+03	8.678368E-04	2.618992E-05
4.544415E+03	8.951838E-04	2.705241E-05
4.554359E+03	9.219564E-04	2.791450E-05
4.564303E+03	9.471434E-04	2.874601E-05
4.574247E+03	9.696723E-04	2.951437E-05
4.584191E+03	9.885880E-04	3.018995E-05
4.594135E+03	1.003029E-03	3.074528E-05
4.604079E+03	1.012297E-03	3.115717E-05
4.614023E+03	1.016022E-03	3.141178E-05
4.623967E+03	1.014048E-03	3.150140E-05
4.633911E+03	1.006582E-03	3.142917E-05
4.643855E+03	9.940335E-04	3.120443E-05
4.653799E+03	9.770772E-04	3.084486E-05
4.663743E+03	9.565952E-04	3.037508E-05
4.673687E+03	9.335172E-04	2.982174E-05
4.683631E+03	9.088618E-04	2.921501E-05
4.693575E+03	8.836767E-04	2.858680E-05
4.703519E+03	8.589049E-04	2.796654E-05
4.713463E+03	8.354405E-04	2.738290E-05
4.723407E+03	8.140717E-04	2.686196E-05
4.733351E+03	7.954640E-04	2.642651E-05
4.743295E+03	7.801513E-04	2.609567E-05
4.753239E+03	7.685315E-04	2.588457E-05
4.763183E+03	7.608671E-04	2.580424E-05
4.773127E+03	7.572876E-04	2.586148E-05
4.783071E+03	7.577938E-04	2.605890E-05
4.793015E+03	7.622380E-04	2.639400E-05
4.802959E+03	7.704208E-04	2.686240E-05
4.812903E+03	7.819378E-04	2.745237E-05
4.822847E+03	7.963485E-04	2.815051E-05
4.832791E+03	8.131008E-04	2.893905E-05
4.842735E+03	8.315701E-04	2.979708E-05
4.852679E+03	8.510616E-04	3.070053E-05
4.862623E+03	8.708851E-04	3.162485E-05
4.872567E+03	8.904123E-04	3.254708E-05
4.882511E+03	9.089292E-04	3.344048E-05
4.892455E+03	9.259416E-04	3.428579E-05
4.902399E+03	9.409141E-04	3.506175E-05
4.912344E+03	9.534644E-04	3.575237E-05
4.922288E+03	9.633487E-04	3.634653E-05
4.932232E+03	9.703827E-04	3.683520E-05
4.942176E+03	9.745169E-04	3.721436E-05
4.952120E+03	9.758291E-04	3.748486E-05
4.962064E+03	9.744326E-04	3.764908E-05
4.972008E+03	9.705448E-04	3.771357E-05
4.981952E+03	9.644733E-04	3.768864E-05
4.991896E+03	9.565288E-04	3.758505E-05
5.001840E+03	9.470940E-04	3.741671E-05
5.011784E+03	9.365871E-04	3.719931E-05
5.021728E+03	9.254514E-04	3.694992E-05
5.031672E+03	9.141654E-04	3.668740E-05
5.041616E+03	9.031333E-04	3.642805E-05
5.051560E+03	8.928344E-04	3.619153E-05
5.061504E+03	8.836400E-04	3.599349E-05
5.071448E+03	8.758693E-04	3.584774E-05
5.081392E+03	8.698405E-04	3.576826E-05
5.091336E+03	8.657278E-04	3.576333E-05
5.101280E+03	8.636195E-04	3.583776E-05
5.111224E+03	8.635817E-04	3.599549E-05
5.121168E+03	8.655287E-04	3.623412E-05
5.131112E+03	8.692957E-04	3.654783E-05
5.141056E+03	8.746898E-04	3.692948E-05
5.151000E+03	8.814415E-04	3.736854E-05
5.160944E+03	8.892633E-04	3.785350E-05
5.170888E+03	8.977614E-04	3.836811E-05
5.180832E+03	9.066678E-04	3.890122E-05
5.190776E+03	9.156202E-04	3.943749E-05
5.200720E+03	9.243689E-04	3.996616E-05
5.210664E+03	9.326119E-04	4.047409E-05
5.220608E+03	9.401298E-04	4.095151E-05
5.230552E+03	9.467874E-04	4.139226E-05
5.240496E+03	9.523998E-04	4.178788E-05
5.250440E+03	9.568841E-04	4.213433E-05
5.260384E+03	9.601679E-04	4.242798E-05
5.270328E+03	9.621865E-04	4.266552E-05
5.280272E+03	9.629474E-04	4.284683E-05
5.290216E+03	9.624418E-04	4.297107E-05
5.300160E+03	9.607545E-04	4.304160E-05
5.310104E+03	9.578904E-04	4.305825E-05
5.320048E+03	9.540131E-04	4.302800E-05
5.329992E+03	9.492069E-04	4.295437E-05
5.339936E+03	9.436248E-04	4.284402E-05
5.349880E+03	9.374631E-04	4.270572E-05
5.359824E+03	9.309129E-04	4.254806E-05
5.369768E+03	9.241547E-04	4.237930E-05
5.379712E+03	9.174134E-04	4.220983E-05
5.389656E+03	9.108725E-04	4.204827E-05
5.399600E+03	9.047490E-04	4.190490E-05
5.409544E+03	8.992162E-04	4.178808E-05
5.419488E+03	8.944782E-04	4.170775E-05
5.429432E+03	8.906957E-04	4.167192E-05
5.439376E+03	8.880380E-04	4.168913E-05
5.449320E+03	8.866710E-04	4.176786E-05
5.459264E+03	8.866796E-04	4.191288E-05
5.469208E+03	8.879793E-04	4.212094E-05
5.479152E+03	8.904070E-04	4.238485E-05
5.489096E+03	8.935680E-04	4.268623E-05
5.499040E+03	8.971080E-04	4.300838E-05
5.508984E+03	9.005959E-04	4.333067E-05
5.518928E+03	9.036346E-04	4.363381E-05
5.528872E+03	9.057985E-04	4.389685E-05
5.538816E+03	9.067016E-04	4.410046E-05
5.548760E+03	9.059909E-04	4.422663E-05
5.558704E+03	9.033797E-04	4.426036E-05
5.568649E+03	8.986024E-04	4.418746E-05
5.578593E+03	8.914816E-04	4.399790E-05
5.588537E+03	8.819154E-04	4.368523E-05
5.598481E+03	8.698968E-04	4.324768E-05
5.608425E+03	8.554425E-04	4.268463E-05
5.618369E+03	8.387133E-04	4.200268E-05
5.628313E+03	8.198853E-04	4.120936E-05
5.638257E+03	7.992329E-04	4.031724E-05
5.648201E+03	7.770401E-04	3.933963E-05
5.658145E+03	7.536933E-04	3.829523E-05
5.668089E+03	7.296224E-04	3.720526E-05
5.678033E+03	7.052516E-04	3.609100E-05
5.687977E+03	6.810888E-04	3.497829E-05
5.697921E+03	6.576127E-04	3.389191E-05
5.707865E+03	6.353024E-04	3.285698E-05
5.717809E+03	6.146593E-04	3.190013E-05
5.727753E+03	5.961150E-04	3.104473E-05
5.737697E+03	5.800617E-04	3.031241E-05
5.747641E+03	5.668736E-04	2.972410E-05
5.757585E+03	5.568235E-04	2.929570E-05
5.767529E+03	5.501687E-04	2.904243E-05
5.777473E+03	5.470625E-04	2.897420E-05
5.787417E+03	5.476290E-04	2.909942E-05
5.797361E+03	5.519164E-04	2.942256E-05
5.807305E+03	5.599070E-04	2.994455E-05
5.817249E+03	5.715067E-04	3.066220E-05
5.827193E+03	5.865402E-04	3.156781E-05
5.837137E+03	6.047288E-04	3.264802E-05
5.847081E+03	6.257189E-04	3.388514E-05
5.857025E+03	6.490480E-04	3.525534E-05
5.866969E+03	6.741594E-04	3.672931E-05
5.876913E+03	7.004199E-04	3.827319E-05
5.886857E+03	7.271289E-04	3.984900E-05
5.896801E+03	7.535934E-04	4.141872E-05
5.906745E+03	7.791117E-04	4.294340E-05
5.916689E+03	8.030864E-04	4.438945E-05
5.926633E+03	8.249588E-04	4.572505E-05
5.936577E+03	8.443423E-04	4.692762E-05
5.946521E+03	8.609684E-04	4.798096E-05
5.956465E+03	8.747545E-04	4.887912E-05
5.966409E+03	8.857552E-04	4.962381E-05
5.976353E+03	8.941445E-04	5.022353E-05
5.986297E+03	9.002430E-04	5.069516E-05
5.996241E+03	9.044411E-04	5.105972E-05
6.006185E+03	9.071682E-04	5.134069E-05
6.016129E+03	9.089134E-04	5.156520E-05
6.026073E+03	9.101488E-04	5.175969E-05
6.036017E+03	9.113070E-04	5.194863E-05
6.045961E+03	9.128159E-04	5.215643E-05
6.055905E+03	9.150183E-04	5.240290E-05
6.065849E+03	9.182341E-04	5.270667E-05
6.075793E+03	9.226907E-04	5.308124E-05
6.085737E+03	9.285915E-04	5.353883E-05
6.095681E+03	9.360697E-04	5.408768E-05
6.105625E+03	9.451928E-04	5.473231E-05
6.115569E+03	9.560211E-04	5.547681E-05
6.125513E+03	9.685643E-04	5.632240E-05
6.135457E+03	9.827845E-04	5.726746E-05
6.145401E+03	9.986588E-04	5.831126E-05
6.155345E+03	1.016111E-03	5.944991E-05
6.165289E+03	1.035088E-03	6.068088E-05
6.175233E+03	1.055508E-03	6.199993E-05
6.185177E+03	1.077265E-03	6.340117E-05
6.195121E+03	1.100280E-03	6.488055E-05
6.205065E+03	1.124435E-03	6.643143E-05
6.215009E+03	1.149670E-03	6.805074E-05
6.224954E+03	1.175830E-03	6.972956E-05
6.234898E+03	1.202898E-03	7.146733E-05
6.244842E+03	1.230782E-03	7.325878E-05
6.254786E+03	1.259490E-03	7.510479E-05
6.264730E+03	1.289065E-03	7.700827E-05
6.274674E+03	1.319620E-03	7.897621E-05
6.284618E+03	1.351316E-03	8.101877E-05
6.294562E+03	1.384451E-03	8.315421E-05
6.304506E+03	1.419383E-03	8.540462E-05
6.314450E+03	1.456527E-03	8.779581E-05
6.324394E+03	1.496458E-03	9.036327E-05
6.334338E+03	1.539716E-03	9.314074E-05
6.344282E+03	1.586987E-03	9.617095E-05
6.354226E+03	1.638987E-03	9.949893E-05
6.364170E+03	1.696493E-03	1.031735E-04
6.374114E+03	1.760332E-03	1.072473E-04
6.384058E+03	1.831395E-03	1.117769E-04
6.394002E+03	1.910636E-03	1.168234E-04
6.403946E+03	1.999078E-03	1.224524E-04
6.413890E+03	2.097819E-03	1.287348E-04
6.423834E+03	2.208034E-03	1.357468E-04
6.433778E+03	2.330986E-03	1.435706E-04
6.443722E+03	2.468034E-03	1.522950E-04
6.453666E+03	2.620700E-03	1.620199E-04
6.463610E+03	2.790501E-03	1.728453E-04
6.473554E+03	2.979243E-03	1.848905E-04
6.483498E+03	3.188396E-03	1.982549E-04
6.493442E+03	3.418163E-03	2.129597E-04
6.503386E+03	3.665088E-03	2.287983E-04
6.513330E+03	3.920709E-03	2.452497E-04
6.523274E+03	4.172417E-03	2.615286E-04
6.533218E+03	4.405452E-03	2.767084E-04
6.543162E+03	4.604631E-03	2.898280E-04
6.553106E+03	4.755857E-03	2.999858E-04
6.563050E+03	4.848021E-03	3.064608E-04
6.572994E+03	4.874377E-03	3.088016E-04
6.582938E+03	4.833081E-03	3.068635E-04
6.592882E+03	4.727184E-03	3.008115E-04
6.602826E+03	4.564132E-03	2.910919E-04
6.612770E+03	4.354606E-03	2.783618E-04
6.622714E+03	4.110551E-03	2.633647E-04
6.632658E+03	3.844661E-03	2.468993E-04
6.642602E+03	3.568411E-03	2.296929E-04
6.652546E+03	3.291827E-03	2.123864E-04
6.662490E+03	3.023038E-03	1.955040E-04
6.672434E+03	2.767832E-03	1.794234E-04
6.682378E+03	2.530220E-03	1.644104E-04
6.692322E+03	2.312432E-03	1.506174E-04
6.702266E+03	2.115486E-03	1.381193E-04
6.712210E+03	1.939219E-03	1.269146E-04
6.722154E+03	1.782890E-03	1.169640E-04
6.732098E+03	1.645265E-03	1.081951E-04
6.742042E+03	1.524855E-03	1.005183E-04
6.751986E+03	1.420068E-03	9.383630E-05
6.761930E+03	1.329310E-03	8.805074E-05
6.771874E+03	1.251052E-03	8.306666E-05
6.781818E+03	1.183876E-03	7.879539E-05
6.791762E+03	1.126489E-03	7.515593E-05
6.801706E+03	1.077736E-03	7.207568E-05
6.811650E+03	1.036598E-03	6.949023E-05
6.821594E+03	1.002198E-03	6.734437E-05
6.831538E+03	9.737202E-04	6.558632E-05
6.841482E+03	9.505284E-04	6.417586E-05
6.851426E+03	9.320039E-04	6.307363E-05
6.861370E+03	9.176787E-04	6.225007E-05
6.871314E+03	9.070995E-04	6.167634E-05
6.881259E+03	8.999045E-04	6.132950E-05
6.891203E+03	8.957286E-04	6.118620E-05
6.901147E+03	8.943169E-04	6.123037E-05
6.911091E+03	8.953943E-04	6.144439E-05
6.921035E+03	8.987504E-04	6.181491E-05
6.930979E+03	9.041617E-04	6.232755E-05
6.940923E+03	9.114419E-04	6.297034E-05
6.950867E+03	9.204386E-04	6.373355E-05
6.960811E+03	9.309793E-04	6.460593E-05
6.970755E+03	9.429211E-04	6.557821E-05
6.980699E+03	9.561537E-04	6.664325E-05
6.990643E+03	9.705439E-04	6.779228E-05
7.000587E+03	9.860108E-04	6.902008E-05
7.010531E+03	1.002451E-03	7.031982E-05
7.020475E+03	1.019799E-03	7.168725E-05
7.030419E+03	1.038030E-03	7.312090E-05
7.040363E+03	1.057120E-03	7.461947E-05
7.050307E+03	1.077046E-03	7.618157E-05
7.060251E+03	1.097847E-03	7.781025E-05
7.070195E+03	1.119537E-03	7.950686E-05
7.080139E+03	1.142191E-03	8.127689E-05
7.090083E+03	1.165847E-03	8.312341E-05
7.100027E+03	1.190591E-03	8.505295E-05
7.109971E+03	1.216485E-03	8.707026E-05
7.119915E+03	1.243552E-03	8.917731E-05
7.129859E+03	1.271814E-03	9.137623E-05
7.139803E+03	1.301319E-03	9.367063E-05
7.149747E+03	1.331962E-03	9.605353E-05
7.159691E+03	1.363638E-03	9.851761E-05
7.169635E+03	1.396231E-03	1.010548E-04
7.179579E+03	1.429438E-03	1.036433E-04
7.189523E+03	1.462918E-03	1.062586E-04
7.199467E+03	1.496270E-03	1.088714E-04
7.209411E+03	1.528960E-03	1.114427E-04
7.219355E+03	1.560357E-03	1.139261E-04
7.229299E+03	1.589707E-03	1.162659E-04
7.239243E+03	1.616251E-03	1.184055E-04
7.249187E+03	1.639152E-03	1.202826E-04
7.259131E+03	1.657570E-03	1.218341E-04
7.269075E+03	1.670666E-03	1.229965E-04
7.279019E+03	1.677763E-03	1.237179E-04
7.288963E+03	1.678282E-03	1.239535E-04
7.298907E+03	1.671792E-03	1.236692E-04
7.308851E+03	1.658143E-03	1.228515E-04
7.318795E+03	1.637379E-03	1.215012E-04
7.328739E+03	1.609772E-03	1.196362E-04
7.338683E+03	1.575779E-03	1.172883E-04
7.348627E+03	1.536107E-03	1.145083E-04
7.358571E+03	1.491577E-03	1.113555E-04
7.368515E+03	1.443109E-03	1.078975E-04
7.378459E+03	1.391680E-03	1.042060E-04
7.388403E+03	1.338248E-03	1.003523E-04
7.398347E+03	1.283806E-03	9.641023E-05
7.408291E+03	1.229259E-03	9.244781E-05
7.418235E+03	1.175435E-03	8.852747E-05
7.428179E+03	1.123067E-03	8.470488E-05
7.438123E+03	1.072765E-03	8.102675E-05
7.448067E+03	1.025088E-03	7.753605E-05
7.458011E+03	9.804669E-04	7.426637E-05
7.467955E+03	9.392404E-04	7.124452E-05
7.477899E+03	9.016417E-04	6.848935E-05
7.487843E+03	8.678910E-04	6.601887E-05
7.497787E+03	8.380651E-04	6.384020E-05
7.507731E+03	8.122480E-04	6.196108E-05
7.517675E+03	7.904615E-04	6.038451E-05
7.527620E+03	7.726962E-04	5.911113E-05
7.537564E+03	7.588972E-04	5.813807E-05
7.547508E+03	7.490375E-04	5.746461E-05
7.557452E+03	7.429992E-04	5.708302E-05
7.567396E+03	7.406869E-04	5.698728E-05
7.577340E+03	7.419592E-04	5.716780E-05
7.587284E+03	7.466353E-04	5.761189E-05
7.597228E+03	7.544915E-04	5.830348E-05
7.607172E+03	7.652365E-04	5.922122E-05
7.617116E+03	7.785592E-04	6.034210E-05
7.627060E+03	7.940968E-04	6.163895E-05
7.637004E+03	8.113807E-04	6.307628E-05
7.646948E+03	8.299545E-04	6.461931E-05
7.656892E+03	8.492921E-04	6.622765E-05
7.666836E+03	8.689110E-04	6.786408E-05
7.676780E+03	8.882536E-04	6.948527E-05
7.686724E+03	9.068632E-04	7.105554E-05
7.696668E+03	9.242421E-04	7.253574E-05
7.706612E+03	9.400108E-04	7.389579E-05
7.716556E+03	9.538407E-04	7.510938E-05
