#wls	flux	fluxerr
1.591533E+03	1.126105E-02	4.555266E-05
1.631321E+03	1.141571E-02	4.617827E-05
1.671110E+03	1.155111E-02	4.672598E-05
1.710898E+03	1.166757E-02	4.719710E-05
1.750686E+03	1.176505E-02	4.759143E-05
1.790475E+03	1.184372E-02	4.790965E-05
1.830263E+03	1.190377E-02	4.815257E-05
1.870051E+03	1.194627E-02	4.832450E-05
1.909840E+03	1.197273E-02	4.843151E-05
1.949628E+03	1.198652E-02	4.848728E-05
1.989416E+03	1.199316E-02	4.851414E-05
2.029205E+03	1.200281E-02	4.855320E-05
2.068993E+03	1.203048E-02	4.866511E-05
2.108781E+03	1.210042E-02	4.894801E-05
2.148570E+03	1.224705E-02	4.954117E-05
2.188358E+03	1.249625E-02	5.054921E-05
2.228146E+03	1.285613E-02	5.200500E-05
2.267935E+03	1.332289E-02	5.389311E-05
2.307723E+03	1.388839E-02	5.618065E-05
2.347511E+03	1.453965E-02	5.881508E-05
2.387300E+03	1.526543E-02	6.175096E-05
2.427088E+03	1.605589E-02	6.494852E-05
2.466876E+03	1.689929E-02	6.836019E-05
2.506665E+03	1.777986E-02	7.192224E-05
2.546453E+03	1.867119E-02	7.552780E-05
2.586241E+03	1.953252E-02	7.901200E-05
2.626030E+03	2.031815E-02	8.218997E-05
2.665818E+03	2.101786E-02	8.502041E-05
2.705606E+03	2.165489E-02	8.759728E-05
2.745395E+03	2.225404E-02	9.002093E-05
2.785183E+03	2.284240E-02	9.240095E-05
2.824971E+03	2.344442E-02	9.483621E-05
2.864759E+03	2.407880E-02	9.740238E-05
2.904548E+03	2.476178E-02	1.001651E-04
2.944336E+03	2.550661E-02	1.031781E-04
2.984124E+03	2.632378E-02	1.064837E-04
2.994072E+03	2.654074E-02	1.073613E-04
3.004019E+03	2.676270E-02	1.082591E-04
3.013966E+03	2.699025E-02	1.091796E-04
3.023913E+03	2.722333E-02	1.101225E-04
3.033860E+03	2.746228E-02	1.110890E-04
3.043807E+03	2.770743E-02	1.120807E-04
3.053754E+03	2.795884E-02	1.130977E-04
3.063701E+03	2.821656E-02	1.141402E-04
3.073648E+03	2.848064E-02	1.152085E-04
3.083595E+03	2.875092E-02	1.163018E-04
3.093542E+03	2.902769E-02	1.174214E-04
3.103489E+03	2.931055E-02	1.185656E-04
3.113437E+03	2.960003E-02	1.197366E-04
3.123384E+03	2.989574E-02	1.209328E-04
3.133331E+03	3.019774E-02	1.221544E-04
3.143278E+03	3.050609E-02	1.234017E-04
3.153225E+03	3.082062E-02	1.246740E-04
3.163172E+03	3.114116E-02	1.259707E-04
3.173119E+03	3.146799E-02	1.272928E-04
3.183066E+03	3.180093E-02	1.286396E-04
3.193013E+03	3.213979E-02	1.300103E-04
3.202960E+03	3.248413E-02	1.314032E-04
3.212907E+03	3.283443E-02	1.328202E-04
3.222854E+03	3.319001E-02	1.342586E-04
3.232801E+03	3.355086E-02	1.357183E-04
3.242749E+03	3.391649E-02	1.371973E-04
3.252696E+03	3.428685E-02	1.386955E-04
3.262643E+03	3.466167E-02	1.402116E-04
3.272590E+03	3.504060E-02	1.417445E-04
3.282537E+03	3.542282E-02	1.432906E-04
3.292484E+03	3.580819E-02	1.448495E-04
3.302431E+03	3.619606E-02	1.464185E-04
3.312378E+03	3.658596E-02	1.479957E-04
3.322325E+03	3.697715E-02	1.495781E-04
3.332272E+03	3.736858E-02	1.511615E-04
3.342219E+03	3.775990E-02	1.527444E-04
3.352166E+03	3.814992E-02	1.543222E-04
3.362114E+03	3.853790E-02	1.558916E-04
3.372061E+03	3.892204E-02	1.574455E-04
3.382008E+03	3.930165E-02	1.589811E-04
3.391955E+03	3.967526E-02	1.604924E-04
3.401902E+03	4.004151E-02	1.619739E-04
3.411849E+03	4.039848E-02	1.634179E-04
3.421796E+03	4.074465E-02	1.648182E-04
3.431743E+03	4.107822E-02	1.661676E-04
3.441690E+03	4.139770E-02	1.674599E-04
3.451637E+03	4.170143E-02	1.686886E-04
3.461584E+03	4.198836E-02	1.698492E-04
3.471531E+03	4.225793E-02	1.709397E-04
3.481479E+03	4.251060E-02	1.719617E-04
3.481647E+03	3.923604E-02	1.587157E-04
3.483334E+03	3.933250E-02	1.591059E-04
3.485022E+03	3.943881E-02	1.595359E-04
3.486710E+03	3.954429E-02	1.599626E-04
3.488398E+03	3.963822E-02	1.603426E-04
3.490086E+03	3.971989E-02	1.606729E-04
3.491774E+03	3.980857E-02	1.610317E-04
3.493462E+03	3.990141E-02	1.614072E-04
3.495150E+03	3.999554E-02	1.617880E-04
3.496838E+03	4.009954E-02	1.622087E-04
3.498525E+03	4.021555E-02	1.626779E-04
3.500213E+03	4.029789E-02	1.630110E-04
3.501901E+03	4.036015E-02	1.632629E-04
3.503589E+03	4.042300E-02	1.635171E-04
3.505277E+03	4.049785E-02	1.638199E-04
3.506965E+03	4.057615E-02	1.641366E-04
3.508653E+03	4.067360E-02	1.645308E-04
3.510340E+03	4.079232E-02	1.650111E-04
3.512028E+03	4.091306E-02	1.654995E-04
3.513716E+03	4.101728E-02	1.659210E-04
3.515404E+03	4.110997E-02	1.662960E-04
3.517092E+03	4.118615E-02	1.666042E-04
3.518780E+03	4.124867E-02	1.668571E-04
3.520468E+03	4.128185E-02	1.669913E-04
3.522156E+03	4.130637E-02	1.670905E-04
3.523843E+03	4.133649E-02	1.672123E-04
3.525531E+03	4.137863E-02	1.673828E-04
3.527219E+03	4.141354E-02	1.675240E-04
3.528907E+03	4.146545E-02	1.677340E-04
3.530595E+03	4.152226E-02	1.679638E-04
3.532283E+03	4.157468E-02	1.681758E-04
3.533971E+03	4.163341E-02	1.684134E-04
3.535659E+03	4.168422E-02	1.686189E-04
3.537347E+03	4.172637E-02	1.687894E-04
3.539034E+03	4.175846E-02	1.689193E-04
3.540722E+03	4.178833E-02	1.690400E-04
3.542410E+03	4.180883E-02	1.691230E-04
3.544098E+03	4.182926E-02	1.692056E-04
3.545786E+03	4.183607E-02	1.692332E-04
3.547474E+03	4.183211E-02	1.692172E-04
3.549162E+03	4.181170E-02	1.691346E-04
3.550849E+03	4.177912E-02	1.690028E-04
3.552538E+03	4.177351E-02	1.689801E-04
3.554226E+03	4.180555E-02	1.691097E-04
3.555914E+03	4.186527E-02	1.693513E-04
3.557602E+03	4.193700E-02	1.696415E-04
3.559290E+03	4.202786E-02	1.700090E-04
3.560978E+03	4.210440E-02	1.703186E-04
3.562666E+03	4.215239E-02	1.705127E-04
3.564354E+03	4.217897E-02	1.706202E-04
3.566041E+03	4.218627E-02	1.706498E-04
3.567729E+03	4.217643E-02	1.706100E-04
3.569417E+03	4.215728E-02	1.705325E-04
3.571105E+03	4.213737E-02	1.704520E-04
3.572793E+03	4.213374E-02	1.704373E-04
3.574481E+03	4.215991E-02	1.705432E-04
3.576169E+03	4.218033E-02	1.706258E-04
3.577856E+03	4.218789E-02	1.706564E-04
3.579544E+03	4.219539E-02	1.706867E-04
3.581232E+03	4.218507E-02	1.706449E-04
3.582920E+03	4.214983E-02	1.705024E-04
3.584608E+03	4.211029E-02	1.703424E-04
3.586296E+03	4.206573E-02	1.701622E-04
3.587984E+03	4.201615E-02	1.699616E-04
3.589672E+03	4.196299E-02	1.697466E-04
3.591359E+03	4.189844E-02	1.694855E-04
3.593047E+03	4.185798E-02	1.693218E-04
3.594735E+03	4.183948E-02	1.692470E-04
3.596423E+03	4.181456E-02	1.691462E-04
3.598111E+03	4.177257E-02	1.689763E-04
3.599799E+03	4.174260E-02	1.688551E-04
3.601487E+03	4.170054E-02	1.686849E-04
3.603175E+03	4.166058E-02	1.685233E-04
3.604862E+03	4.166242E-02	1.685307E-04
3.606550E+03	4.168194E-02	1.686097E-04
3.608238E+03	4.169787E-02	1.686741E-04
3.609926E+03	4.173431E-02	1.688215E-04
3.611614E+03	4.181465E-02	1.691465E-04
3.613302E+03	4.188216E-02	1.694196E-04
3.614990E+03	4.194890E-02	1.696896E-04
3.616678E+03	4.202764E-02	1.700081E-04
3.618365E+03	4.210418E-02	1.703177E-04
3.620053E+03	4.215730E-02	1.705326E-04
3.621741E+03	4.221462E-02	1.707645E-04
3.623429E+03	4.227401E-02	1.710047E-04
3.625117E+03	4.235316E-02	1.713249E-04
3.626805E+03	4.242943E-02	1.716334E-04
3.628493E+03	4.248725E-02	1.718673E-04
3.630181E+03	4.253369E-02	1.720552E-04
3.631868E+03	4.256737E-02	1.721914E-04
3.633556E+03	4.255077E-02	1.721243E-04
3.635244E+03	4.254548E-02	1.721028E-04
3.636933E+03	4.258469E-02	1.722615E-04
3.638621E+03	4.265852E-02	1.725601E-04
3.640309E+03	4.275985E-02	1.729700E-04
3.641997E+03	4.287951E-02	1.734540E-04
3.643684E+03	4.299910E-02	1.739378E-04
3.645372E+03	4.309673E-02	1.743327E-04
3.647060E+03	4.317946E-02	1.746674E-04
3.648748E+03	4.326144E-02	1.749990E-04
3.650436E+03	4.335962E-02	1.753962E-04
3.652124E+03	4.345491E-02	1.757816E-04
3.653812E+03	4.357557E-02	1.762697E-04
3.655500E+03	4.373569E-02	1.769174E-04
3.657188E+03	4.392255E-02	1.776733E-04
3.658875E+03	4.411428E-02	1.784489E-04
3.660563E+03	4.431862E-02	1.792754E-04
3.662251E+03	4.450806E-02	1.800418E-04
3.663939E+03	4.467979E-02	1.807364E-04
3.665627E+03	4.485074E-02	1.814280E-04
3.667315E+03	4.502232E-02	1.821220E-04
3.669003E+03	4.519524E-02	1.828215E-04
3.670690E+03	4.536245E-02	1.834979E-04
3.672378E+03	4.548731E-02	1.840030E-04
3.674066E+03	4.557829E-02	1.843710E-04
3.675754E+03	4.565162E-02	1.846677E-04
3.677442E+03	4.570027E-02	1.848644E-04
3.679130E+03	4.574325E-02	1.850383E-04
3.680818E+03	4.579184E-02	1.852348E-04
3.682506E+03	4.582561E-02	1.853715E-04
3.684194E+03	4.585515E-02	1.854910E-04
3.685881E+03	4.589874E-02	1.856673E-04
3.687569E+03	4.595286E-02	1.858862E-04
3.689257E+03	4.601258E-02	1.861278E-04
3.690945E+03	4.608563E-02	1.864233E-04
3.692633E+03	4.616217E-02	1.867329E-04
3.694321E+03	4.622391E-02	1.869826E-04
3.696009E+03	4.626805E-02	1.871612E-04
3.697697E+03	4.628897E-02	1.872458E-04
3.699384E+03	4.626772E-02	1.871599E-04
3.701072E+03	4.623452E-02	1.870256E-04
3.702760E+03	4.618377E-02	1.868203E-04
3.704448E+03	4.609370E-02	1.864559E-04
3.706136E+03	4.596995E-02	1.859554E-04
3.707824E+03	4.583993E-02	1.854294E-04
3.709512E+03	4.569871E-02	1.848581E-04
3.711199E+03	4.552455E-02	1.841536E-04
3.712887E+03	4.531606E-02	1.833103E-04
3.714575E+03	4.510624E-02	1.824615E-04
3.716263E+03	4.489018E-02	1.815875E-04
3.717951E+03	4.464543E-02	1.805975E-04
3.719640E+03	4.437622E-02	1.795085E-04
3.721328E+03	4.412674E-02	1.784993E-04
3.723016E+03	4.387034E-02	1.774621E-04
3.724704E+03	4.357828E-02	1.762807E-04
3.726391E+03	4.325338E-02	1.749664E-04
3.728079E+03	4.295523E-02	1.737603E-04
3.729767E+03	4.265437E-02	1.725433E-04
3.731455E+03	4.234662E-02	1.712984E-04
3.733143E+03	4.203758E-02	1.700483E-04
3.734831E+03	4.173635E-02	1.688298E-04
3.736519E+03	4.143102E-02	1.675947E-04
3.738206E+03	4.112580E-02	1.663600E-04
3.739894E+03	4.082770E-02	1.651542E-04
3.741582E+03	4.053599E-02	1.639742E-04
3.743270E+03	4.025489E-02	1.628370E-04
3.744958E+03	3.998718E-02	1.617541E-04
3.746646E+03	3.974264E-02	1.607649E-04
3.748334E+03	3.953106E-02	1.599091E-04
3.750022E+03	3.937130E-02	1.592628E-04
3.751709E+03	3.926962E-02	1.588515E-04
3.753397E+03	3.917986E-02	1.584884E-04
3.755085E+03	3.907965E-02	1.580831E-04
3.756773E+03	3.896482E-02	1.576186E-04
3.758461E+03	3.882489E-02	1.570525E-04
3.760149E+03	3.864869E-02	1.563398E-04
3.761837E+03	3.846419E-02	1.555934E-04
3.763525E+03	3.830000E-02	1.549292E-04
3.765212E+03	3.814705E-02	1.543105E-04
3.766900E+03	3.802557E-02	1.538191E-04
3.768588E+03	3.794391E-02	1.534888E-04
3.770276E+03	3.788672E-02	1.532574E-04
3.771964E+03	3.784769E-02	1.530996E-04
3.773652E+03	3.782543E-02	1.530095E-04
3.775340E+03	3.778087E-02	1.528293E-04
3.777028E+03	3.771890E-02	1.525786E-04
3.778715E+03	3.765976E-02	1.523394E-04
3.780403E+03	3.758531E-02	1.520382E-04
3.782091E+03	3.750742E-02	1.517231E-04
3.783779E+03	3.744419E-02	1.514674E-04
3.785467E+03	3.737891E-02	1.512033E-04
3.787155E+03	3.730948E-02	1.509224E-04
3.788843E+03	3.723731E-02	1.506305E-04
3.790531E+03	3.717283E-02	1.503697E-04
3.792218E+03	3.711117E-02	1.501202E-04
3.793906E+03	3.704815E-02	1.498653E-04
3.795594E+03	3.699839E-02	1.496640E-04
3.797282E+03	3.698486E-02	1.496093E-04
3.798970E+03	3.696925E-02	1.495461E-04
3.800658E+03	3.695018E-02	1.494690E-04
3.802347E+03	3.695687E-02	1.494961E-04
3.804034E+03	3.698166E-02	1.495964E-04
3.805722E+03	3.698908E-02	1.496264E-04
3.807410E+03	3.699094E-02	1.496339E-04
3.809098E+03	3.700742E-02	1.497005E-04
3.810786E+03	3.701209E-02	1.497195E-04
3.812474E+03	3.699454E-02	1.496484E-04
3.814162E+03	3.699786E-02	1.496619E-04
3.815850E+03	3.702550E-02	1.497737E-04
3.817538E+03	3.706010E-02	1.499137E-04
3.819225E+03	3.711416E-02	1.501324E-04
3.820913E+03	3.717933E-02	1.503960E-04
3.822601E+03	3.721534E-02	1.505416E-04
3.824289E+03	3.723885E-02	1.506367E-04
3.825977E+03	3.725474E-02	1.507010E-04
3.827665E+03	3.727065E-02	1.507653E-04
3.829353E+03	3.729905E-02	1.508803E-04
3.831040E+03	3.735939E-02	1.511243E-04
3.832728E+03	3.744609E-02	1.514750E-04
3.834416E+03	3.755288E-02	1.519070E-04
3.836104E+03	3.766106E-02	1.523446E-04
3.837792E+03	3.775882E-02	1.527401E-04
3.839480E+03	3.784271E-02	1.530794E-04
3.841168E+03	3.792036E-02	1.533935E-04
3.842856E+03	3.801394E-02	1.537721E-04
3.844544E+03	3.812761E-02	1.542319E-04
3.846231E+03	3.825998E-02	1.547674E-04
3.847919E+03	3.840411E-02	1.553504E-04
3.849607E+03	3.854821E-02	1.559333E-04
3.851295E+03	3.869022E-02	1.565077E-04
3.852983E+03	3.883775E-02	1.571045E-04
3.854671E+03	3.899219E-02	1.577292E-04
3.856359E+03	3.915352E-02	1.583818E-04
3.858047E+03	3.931759E-02	1.590456E-04
3.859734E+03	3.950588E-02	1.598072E-04
3.861422E+03	3.970589E-02	1.606163E-04
3.863110E+03	3.990794E-02	1.614336E-04
3.864798E+03	4.011342E-02	1.622648E-04
3.866486E+03	4.032233E-02	1.631099E-04
3.868174E+03	4.050976E-02	1.638680E-04
3.869862E+03	4.067434E-02	1.645338E-04
3.871549E+03	4.083199E-02	1.651715E-04
3.873237E+03	4.100207E-02	1.658595E-04
3.874925E+03	4.117557E-02	1.665614E-04
3.876613E+03	4.135251E-02	1.672771E-04
3.878301E+03	4.154049E-02	1.680375E-04
3.879989E+03	4.173051E-02	1.688062E-04
3.881677E+03	4.193156E-02	1.696195E-04
3.883365E+03	4.216298E-02	1.705556E-04
3.885054E+03	4.241025E-02	1.715558E-04
3.886741E+03	4.266024E-02	1.725671E-04
3.888429E+03	4.291227E-02	1.735866E-04
3.890117E+03	4.314700E-02	1.745361E-04
3.891805E+03	4.336167E-02	1.754044E-04
3.893493E+03	4.354042E-02	1.761275E-04
3.895181E+03	4.368948E-02	1.767305E-04
3.896869E+03	4.380540E-02	1.771994E-04
3.898556E+03	4.390339E-02	1.775958E-04
3.900244E+03	4.398274E-02	1.779168E-04
3.901932E+03	4.404141E-02	1.781541E-04
3.903620E+03	4.409802E-02	1.783831E-04
3.905308E+03	4.417258E-02	1.786847E-04
3.906996E+03	4.424370E-02	1.789724E-04
3.908684E+03	4.429139E-02	1.791653E-04
3.910372E+03	4.432531E-02	1.793025E-04
3.912059E+03	4.433512E-02	1.793422E-04
3.913747E+03	4.431463E-02	1.792593E-04
3.915435E+03	4.424111E-02	1.789619E-04
3.917123E+03	4.411665E-02	1.784585E-04
3.918811E+03	4.396538E-02	1.778465E-04
3.920499E+03	4.378799E-02	1.771290E-04
3.922187E+03	4.357278E-02	1.762584E-04
3.923874E+03	4.335009E-02	1.753576E-04
3.925562E+03	4.314537E-02	1.745295E-04
3.927250E+03	4.295588E-02	1.737630E-04
3.928938E+03	4.275751E-02	1.729605E-04
3.930626E+03	4.254751E-02	1.721110E-04
3.932314E+03	4.233345E-02	1.712451E-04
3.934002E+03	4.211534E-02	1.703629E-04
3.935690E+03	4.187323E-02	1.693835E-04
3.937378E+03	4.162293E-02	1.683710E-04
3.939065E+03	4.137479E-02	1.673672E-04
3.940753E+03	4.113773E-02	1.664083E-04
3.942441E+03	4.091451E-02	1.655053E-04
3.944129E+03	4.071131E-02	1.646834E-04
3.945817E+03	4.051713E-02	1.638978E-04
3.947505E+03	4.032783E-02	1.631321E-04
3.949193E+03	4.013102E-02	1.623360E-04
3.950880E+03	3.992536E-02	1.615041E-04
3.952568E+03	3.970464E-02	1.606112E-04
3.954256E+03	3.948330E-02	1.597159E-04
3.955944E+03	3.927372E-02	1.588681E-04
3.957632E+03	3.907315E-02	1.580567E-04
3.959320E+03	3.888844E-02	1.573096E-04
3.961008E+03	3.872579E-02	1.566516E-04
3.962696E+03	3.858450E-02	1.560801E-04
3.964383E+03	3.845631E-02	1.555615E-04
3.966071E+03	3.835702E-02	1.551599E-04
3.967760E+03	3.828251E-02	1.548585E-04
3.969448E+03	3.821010E-02	1.545656E-04
3.971136E+03	3.815215E-02	1.543311E-04
3.972824E+03	3.811071E-02	1.541635E-04
3.974512E+03	3.805558E-02	1.539405E-04
3.976200E+03	3.798881E-02	1.536704E-04
3.977888E+03	3.794062E-02	1.534755E-04
3.979575E+03	3.790275E-02	1.533223E-04
3.981263E+03	3.786561E-02	1.531720E-04
3.982951E+03	3.782026E-02	1.529886E-04
3.984639E+03	3.776397E-02	1.527609E-04
3.986327E+03	3.771938E-02	1.525805E-04
3.988015E+03	3.768580E-02	1.524447E-04
3.989703E+03	3.767215E-02	1.523895E-04
3.991390E+03	3.767705E-02	1.524093E-04
3.993078E+03	3.771626E-02	1.525679E-04
3.994766E+03	3.776921E-02	1.527821E-04
3.996454E+03	3.782286E-02	1.529991E-04
3.998142E+03	3.786624E-02	1.531746E-04
3.999830E+03	3.793707E-02	1.534611E-04
4.001518E+03	3.804287E-02	1.538891E-04
4.003206E+03	3.816035E-02	1.543643E-04
4.004894E+03	3.827782E-02	1.548395E-04
4.006581E+03	3.841655E-02	1.554007E-04
4.008269E+03	3.856214E-02	1.559896E-04
4.009957E+03	3.868306E-02	1.564788E-04
4.011645E+03	3.879165E-02	1.569180E-04
4.013333E+03	3.890984E-02	1.573961E-04
4.015021E+03	3.902873E-02	1.578771E-04
4.016709E+03	3.915311E-02	1.583802E-04
4.018396E+03	3.929394E-02	1.589498E-04
4.020084E+03	3.944984E-02	1.595805E-04
4.021772E+03	3.961602E-02	1.602527E-04
4.023460E+03	3.980137E-02	1.610025E-04
4.025148E+03	4.000179E-02	1.618132E-04
4.026836E+03	4.020427E-02	1.626323E-04
4.028524E+03	4.040331E-02	1.634374E-04
4.030212E+03	4.059346E-02	1.642066E-04
4.031899E+03	4.074595E-02	1.648235E-04
4.033587E+03	4.086354E-02	1.652991E-04
4.035275E+03	4.095854E-02	1.656834E-04
4.036963E+03	4.102755E-02	1.659626E-04
4.038651E+03	4.109042E-02	1.662169E-04
4.040339E+03	4.116905E-02	1.665350E-04
4.042027E+03	4.125660E-02	1.668891E-04
4.043715E+03	4.134484E-02	1.672461E-04
4.045402E+03	4.143174E-02	1.675976E-04
4.047090E+03	4.151249E-02	1.679242E-04
4.048778E+03	4.158641E-02	1.682233E-04
4.050467E+03	4.165489E-02	1.685003E-04
4.052155E+03	4.171654E-02	1.687496E-04
4.053843E+03	4.178163E-02	1.690129E-04
4.055531E+03	4.185085E-02	1.692929E-04
4.057219E+03	4.192009E-02	1.695730E-04
4.058906E+03	4.198866E-02	1.698504E-04
4.060594E+03	4.203673E-02	1.700449E-04
4.062282E+03	4.206500E-02	1.701592E-04
4.063970E+03	4.209125E-02	1.702654E-04
4.065658E+03	4.211683E-02	1.703689E-04
4.067346E+03	4.212671E-02	1.704089E-04
4.069034E+03	4.213662E-02	1.704489E-04
4.070722E+03	4.215818E-02	1.705361E-04
4.072409E+03	4.216541E-02	1.705654E-04
4.074097E+03	4.214259E-02	1.704731E-04
4.075785E+03	4.209041E-02	1.702620E-04
4.077473E+03	4.202597E-02	1.700013E-04
4.079161E+03	4.194514E-02	1.696744E-04
4.080849E+03	4.185890E-02	1.693255E-04
4.082537E+03	4.178977E-02	1.690459E-04
4.084225E+03	4.175485E-02	1.689046E-04
4.085912E+03	4.173362E-02	1.688187E-04
4.087600E+03	4.171242E-02	1.687330E-04
4.089288E+03	4.167690E-02	1.685893E-04
4.090976E+03	4.162775E-02	1.683905E-04
4.092664E+03	4.156975E-02	1.681559E-04
4.094352E+03	4.150086E-02	1.678772E-04
4.096040E+03	4.141833E-02	1.675433E-04
4.097728E+03	4.136179E-02	1.673146E-04
4.099415E+03	4.131007E-02	1.671054E-04
4.101103E+03	4.123994E-02	1.668217E-04
4.102791E+03	4.117530E-02	1.665603E-04
4.104479E+03	4.112231E-02	1.663459E-04
4.106167E+03	4.104066E-02	1.660156E-04
4.107855E+03	4.094061E-02	1.656109E-04
4.109543E+03	4.084538E-02	1.652257E-04
4.111230E+03	4.073174E-02	1.647660E-04
4.112918E+03	4.059970E-02	1.642319E-04
4.114606E+03	4.045610E-02	1.636510E-04
4.116294E+03	4.030228E-02	1.630288E-04
4.117982E+03	4.012461E-02	1.623100E-04
4.119670E+03	3.992444E-02	1.615003E-04
4.121358E+03	3.971271E-02	1.606439E-04
4.123046E+03	3.949761E-02	1.597737E-04
4.124733E+03	3.928050E-02	1.588955E-04
4.126421E+03	3.906957E-02	1.580423E-04
4.128109E+03	3.886960E-02	1.572334E-04
4.129797E+03	3.865875E-02	1.563804E-04
4.131485E+03	3.843292E-02	1.554669E-04
4.133174E+03	3.819211E-02	1.544928E-04
4.134862E+03	3.792951E-02	1.534305E-04
4.136550E+03	3.764169E-02	1.522663E-04
4.138237E+03	3.733822E-02	1.510387E-04
4.139925E+03	3.702864E-02	1.497864E-04
4.141613E+03	3.671706E-02	1.485260E-04
4.143301E+03	3.639528E-02	1.472243E-04
4.144989E+03	3.607149E-02	1.459146E-04
4.146677E+03	3.575935E-02	1.446519E-04
4.148365E+03	3.545406E-02	1.434170E-04
4.150053E+03	3.515428E-02	1.422043E-04
4.151741E+03	3.486476E-02	1.410332E-04
4.153428E+03	3.459029E-02	1.399229E-04
4.155116E+03	3.432335E-02	1.388431E-04
4.156804E+03	3.405850E-02	1.377717E-04
4.158492E+03	3.379368E-02	1.367005E-04
4.160180E+03	3.353503E-02	1.356542E-04
4.161868E+03	3.326686E-02	1.345694E-04
4.163556E+03	3.299531E-02	1.334710E-04
4.165244E+03	3.273334E-02	1.324113E-04
4.166931E+03	3.247755E-02	1.313765E-04
4.168619E+03	3.222450E-02	1.303529E-04
4.170307E+03	3.199946E-02	1.294426E-04
4.171995E+03	3.179285E-02	1.286068E-04
4.173683E+03	3.158559E-02	1.277685E-04
4.175371E+03	3.138041E-02	1.269384E-04
4.177059E+03	3.119024E-02	1.261692E-04
4.178746E+03	3.099807E-02	1.253918E-04
4.180434E+03	3.079090E-02	1.245538E-04
4.182122E+03	3.058854E-02	1.237352E-04
4.183810E+03	3.041143E-02	1.230188E-04
4.185498E+03	3.026231E-02	1.224156E-04
4.187186E+03	3.013776E-02	1.219118E-04
4.188874E+03	3.005415E-02	1.215735E-04
4.190562E+03	3.000944E-02	1.213927E-04
4.192249E+03	2.999338E-02	1.213277E-04
4.193937E+03	2.998484E-02	1.212932E-04
4.195625E+03	2.997973E-02	1.212725E-04
4.197313E+03	2.997600E-02	1.212574E-04
4.199001E+03	2.998456E-02	1.212920E-04
