#wls	flux	fluxerr
1.591533E+03	2.600674E-04	2.467745E-05
1.631321E+03	2.628392E-04	2.478211E-05
1.671110E+03	2.657290E-04	2.489094E-05
1.710898E+03	2.687293E-04	2.500284E-05
1.750686E+03	2.718256E-04	2.511608E-05
1.790475E+03	2.749797E-04	2.522681E-05
1.830263E+03	2.781409E-04	2.533006E-05
1.870051E+03	2.812456E-04	2.541992E-05
1.909840E+03	2.843429E-04	2.550069E-05
1.949628E+03	2.872538E-04	2.555626E-05
1.989416E+03	2.900884E-04	2.559656E-05
2.029205E+03	2.930739E-04	2.564145E-05
2.068993E+03	2.962718E-04	2.569573E-05
2.108781E+03	3.003851E-04	2.581912E-05
2.148570E+03	3.057585E-04	2.603860E-05
2.188358E+03	3.127067E-04	2.637739E-05
2.228146E+03	3.211839E-04	2.682746E-05
2.267935E+03	3.305732E-04	2.733354E-05
2.307723E+03	3.407188E-04	2.788003E-05
2.347511E+03	3.513404E-04	2.844176E-05
2.387300E+03	3.621569E-04	2.899436E-05
2.427088E+03	3.732109E-04	2.954007E-05
2.466876E+03	3.843514E-04	3.006582E-05
2.506665E+03	3.956907E-04	3.057939E-05
2.546453E+03	4.073499E-04	3.108883E-05
2.586241E+03	4.192101E-04	3.158359E-05
2.626030E+03	4.312885E-04	3.206369E-05
2.665818E+03	4.438959E-04	3.255057E-05
2.705606E+03	4.570291E-04	3.304168E-05
2.745395E+03	4.709516E-04	3.355343E-05
2.785183E+03	4.857051E-04	3.408547E-05
2.824971E+03	5.018339E-04	3.467194E-05
2.864759E+03	5.194275E-04	3.531355E-05
2.904548E+03	5.388469E-04	3.602862E-05
2.944336E+03	5.602494E-04	3.682032E-05
2.984124E+03	5.843200E-04	3.772496E-05
2.994072E+03	5.907402E-04	3.796661E-05
3.004019E+03	5.973954E-04	3.821887E-05
3.013966E+03	6.042911E-04	3.848186E-05
3.023913E+03	6.113148E-04	3.874822E-05
3.033860E+03	6.186006E-04	3.902626E-05
3.043807E+03	6.261609E-04	3.931653E-05
3.053754E+03	6.338795E-04	3.961146E-05
3.063701E+03	6.418859E-04	3.991897E-05
3.073648E+03	6.501881E-04	4.023925E-05
3.083595E+03	6.587947E-04	4.057255E-05
3.093542E+03	6.675886E-04	4.091139E-05
3.103489E+03	6.768283E-04	4.127133E-05
3.113437E+03	6.862737E-04	4.163736E-05
3.123384E+03	6.960588E-04	4.201737E-05
3.133331E+03	7.061948E-04	4.241167E-05
3.143278E+03	7.166928E-04	4.282058E-05
3.153225E+03	7.274363E-04	4.323681E-05
3.163172E+03	7.386921E-04	4.367587E-05
3.173119E+03	7.503461E-04	4.413053E-05
3.183066E+03	7.624113E-04	4.460116E-05
3.193013E+03	7.749016E-04	4.508813E-05
3.202960E+03	7.878315E-04	4.559186E-05
3.212907E+03	8.013480E-04	4.612034E-05
3.222854E+03	8.153362E-04	4.666641E-05
3.232801E+03	8.298124E-04	4.723049E-05
3.242749E+03	8.447938E-04	4.781308E-05
3.252696E+03	8.605695E-04	4.842989E-05
3.262643E+03	8.767539E-04	4.905855E-05
3.272590E+03	8.936377E-04	4.971479E-05
3.282537E+03	9.112454E-04	5.039924E-05
3.292484E+03	9.295999E-04	5.111241E-05
3.302431E+03	9.485855E-04	5.184721E-05
3.312378E+03	9.685096E-04	5.261965E-05
3.322325E+03	9.891154E-04	5.341491E-05
3.332272E+03	1.010572E-03	5.424134E-05
3.342219E+03	1.033055E-03	5.510740E-05
3.352166E+03	1.056303E-03	5.599814E-05
3.362114E+03	1.080641E-03	5.692995E-05
3.372061E+03	1.105956E-03	5.789567E-05
3.382008E+03	1.132433E-03	5.890395E-05
3.391955E+03	1.159958E-03	5.994762E-05
3.401902E+03	1.188722E-03	6.103541E-05
3.411849E+03	1.218768E-03	6.216819E-05
3.421796E+03	1.249980E-03	6.333869E-05
3.431743E+03	1.282558E-03	6.455577E-05
3.441690E+03	1.316714E-03	6.582855E-05
3.451637E+03	1.352172E-03	6.714161E-05
3.461584E+03	1.389312E-03	6.851233E-05
3.471531E+03	1.428024E-03	6.993354E-05
3.481479E+03	1.468538E-03	7.141469E-05
3.491426E+03	1.510920E-03	7.295703E-05
3.501373E+03	1.555062E-03	7.455336E-05
3.511320E+03	1.601206E-03	7.621337E-05
3.521267E+03	1.649425E-03	7.793831E-05
3.531214E+03	1.699796E-03	7.972949E-05
3.541161E+03	1.752393E-03	8.158810E-05
3.551108E+03	1.807486E-03	8.352421E-05
3.561055E+03	1.865164E-03	8.553910E-05
3.571002E+03	1.925319E-03	8.762518E-05
3.580949E+03	1.988234E-03	8.979247E-05
3.590896E+03	2.054001E-03	9.204210E-05
3.600844E+03	2.122507E-03	9.436596E-05
3.610791E+03	2.194460E-03	9.679228E-05
3.620738E+03	2.269337E-03	9.929445E-05
3.630685E+03	2.347650E-03	1.018915E-04
3.640632E+03	2.429279E-03	1.045745E-04
3.650579E+03	2.514756E-03	1.073626E-04
3.660526E+03	2.603734E-03	1.102368E-04
3.670473E+03	2.696521E-03	1.132063E-04
3.680420E+03	2.793201E-03	1.162705E-04
3.690367E+03	2.894087E-03	1.194379E-04
3.700314E+03	2.999018E-03	1.226975E-04
3.710261E+03	3.108050E-03	1.260471E-04
3.720208E+03	3.221726E-03	1.295041E-04
3.730156E+03	3.339595E-03	1.330454E-04
3.740103E+03	3.461927E-03	1.366771E-04
3.750050E+03	3.588987E-03	1.404048E-04
3.759997E+03	3.720506E-03	1.442129E-04
3.769944E+03	3.856443E-03	1.480950E-04
3.779891E+03	3.996998E-03	1.520540E-04
3.789838E+03	4.142083E-03	1.560815E-04
3.799785E+03	4.291570E-03	1.601680E-04
3.809732E+03	4.445009E-03	1.642920E-04
3.819679E+03	4.603053E-03	1.684733E-04
3.829626E+03	4.764588E-03	1.726666E-04
3.839573E+03	4.929899E-03	1.768785E-04
3.849521E+03	5.098644E-03	1.810928E-04
3.859468E+03	5.270427E-03	1.852922E-04
3.869415E+03	5.444799E-03	1.894579E-04
3.879362E+03	5.621250E-03	1.935697E-04
3.889309E+03	5.799214E-03	1.976065E-04
3.899256E+03	5.978393E-03	2.015569E-04
3.909203E+03	6.157802E-03	2.053869E-04
3.919150E+03	6.337048E-03	2.090839E-04
3.929097E+03	6.515371E-03	2.126235E-04
3.939044E+03	6.691983E-03	2.159819E-04
3.948991E+03	6.866062E-03	2.191351E-04
3.958938E+03	7.037106E-03	2.220707E-04
3.968886E+03	7.203616E-03	2.247456E-04
3.978833E+03	7.365763E-03	2.271707E-04
3.988780E+03	7.522075E-03	2.293064E-04
3.998727E+03	7.672114E-03	2.311467E-04
4.008674E+03	7.814852E-03	2.326681E-04
4.018621E+03	7.950299E-03	2.338798E-04
4.028568E+03	8.077248E-03	2.347550E-04
4.038515E+03	8.195894E-03	2.353095E-04
4.048462E+03	8.305560E-03	2.355335E-04
4.058409E+03	8.406035E-03	2.354316E-04
4.068356E+03	8.497209E-03	2.350114E-04
4.078303E+03	8.579448E-03	2.342936E-04
4.088251E+03	8.652597E-03	2.332843E-04
4.098198E+03	8.717265E-03	2.320101E-04
4.108145E+03	8.773582E-03	2.304843E-04
4.118092E+03	8.822097E-03	2.287307E-04
4.128039E+03	8.863764E-03	2.267827E-04
4.137986E+03	8.899316E-03	2.246670E-04
4.147933E+03	8.929299E-03	2.224044E-04
4.157880E+03	8.954613E-03	2.200236E-04
4.167827E+03	8.976459E-03	2.175596E-04
4.177774E+03	8.995534E-03	2.150335E-04
4.187721E+03	9.013079E-03	2.124785E-04
4.197668E+03	9.029548E-03	2.099077E-04
4.207615E+03	9.046411E-03	2.073572E-04
4.217563E+03	9.064326E-03	2.048425E-04
4.227510E+03	9.084182E-03	2.023837E-04
4.237457E+03	9.106559E-03	1.999931E-04
4.247404E+03	9.132453E-03	1.976911E-04
4.257351E+03	9.162549E-03	1.954905E-04
4.267298E+03	9.197215E-03	1.933968E-04
4.277245E+03	9.237194E-03	1.914227E-04
4.287192E+03	9.282463E-03	1.895648E-04
4.297139E+03	9.333569E-03	1.878311E-04
4.307086E+03	9.390726E-03	1.862227E-04
4.317033E+03	9.453851E-03	1.847349E-04
4.326980E+03	9.522968E-03	1.833652E-04
4.336928E+03	9.598029E-03	1.821101E-04
4.346875E+03	9.678929E-03	1.809652E-04
4.356822E+03	9.765361E-03	1.799229E-04
4.366769E+03	9.857267E-03	1.789806E-04
4.376716E+03	9.954497E-03	1.781343E-04
4.386663E+03	1.005720E-02	1.773858E-04
4.396610E+03	1.016558E-02	1.767380E-04
4.406557E+03	1.027967E-02	1.761908E-04
4.416504E+03	1.039966E-02	1.757472E-04
4.426451E+03	1.052547E-02	1.754052E-04
4.436398E+03	1.065713E-02	1.751653E-04
4.446345E+03	1.079433E-02	1.750229E-04
4.456293E+03	1.093669E-02	1.749721E-04
4.466240E+03	1.108385E-02	1.750086E-04
4.476187E+03	1.123517E-02	1.751220E-04
4.486134E+03	1.139005E-02	1.753025E-04
4.496081E+03	1.154759E-02	1.755366E-04
4.506028E+03	1.170694E-02	1.758123E-04
4.515975E+03	1.186700E-02	1.761141E-04
4.525922E+03	1.202656E-02	1.764258E-04
4.535869E+03	1.218473E-02	1.767367E-04
4.545816E+03	1.234003E-02	1.770280E-04
4.555763E+03	1.249154E-02	1.772899E-04
4.565710E+03	1.263782E-02	1.775052E-04
4.575658E+03	1.277788E-02	1.776641E-04
4.585605E+03	1.291068E-02	1.777558E-04
4.595552E+03	1.303548E-02	1.777745E-04
4.605499E+03	1.315157E-02	1.777148E-04
4.615446E+03	1.325829E-02	1.775715E-04
4.625393E+03	1.335594E-02	1.773526E-04
4.635340E+03	1.344397E-02	1.770545E-04
4.645287E+03	1.352319E-02	1.766912E-04
4.655234E+03	1.359395E-02	1.762700E-04
4.665181E+03	1.365702E-02	1.758032E-04
4.675128E+03	1.371334E-02	1.753049E-04
4.685075E+03	1.376418E-02	1.747932E-04
4.695022E+03	1.381077E-02	1.742842E-04
4.704970E+03	1.385433E-02	1.737943E-04
4.714917E+03	1.389593E-02	1.733370E-04
4.724864E+03	1.393708E-02	1.729312E-04
4.734811E+03	1.397890E-02	1.725903E-04
4.744758E+03	1.402222E-02	1.723242E-04
4.754705E+03	1.406811E-02	1.721453E-04
4.764652E+03	1.411730E-02	1.720619E-04
4.774599E+03	1.417039E-02	1.720804E-04
4.784546E+03	1.422777E-02	1.722030E-04
4.794493E+03	1.428988E-02	1.724302E-04
4.804440E+03	1.435678E-02	1.727582E-04
4.814387E+03	1.442867E-02	1.731849E-04
4.824335E+03	1.450506E-02	1.737000E-04
4.834282E+03	1.458579E-02	1.742970E-04
4.844229E+03	1.467034E-02	1.749655E-04
4.854176E+03	1.475806E-02	1.756934E-04
4.864123E+03	1.484813E-02	1.764670E-04
4.874070E+03	1.493966E-02	1.772716E-04
4.884017E+03	1.503148E-02	1.780894E-04
4.893964E+03	1.512284E-02	1.789079E-04
4.903911E+03	1.521249E-02	1.797086E-04
4.913858E+03	1.529948E-02	1.804766E-04
4.923805E+03	1.538254E-02	1.811939E-04
4.933752E+03	1.546095E-02	1.818488E-04
4.943700E+03	1.553341E-02	1.824228E-04
4.953647E+03	1.559951E-02	1.829085E-04
4.963594E+03	1.565817E-02	1.832906E-04
4.973541E+03	1.570909E-02	1.835632E-04
4.983488E+03	1.575178E-02	1.837187E-04
4.993435E+03	1.578594E-02	1.837515E-04
5.003382E+03	1.581159E-02	1.836605E-04
5.013329E+03	1.582875E-02	1.834447E-04
5.023276E+03	1.583779E-02	1.831073E-04
5.033223E+03	1.583907E-02	1.826515E-04
5.043170E+03	1.583339E-02	1.820864E-04
5.053117E+03	1.582106E-02	1.814149E-04
5.063064E+03	1.580325E-02	1.806507E-04
5.073012E+03	1.578057E-02	1.798009E-04
5.082959E+03	1.575399E-02	1.788766E-04
5.092906E+03	1.572446E-02	1.778893E-04
5.102853E+03	1.569275E-02	1.768483E-04
5.112800E+03	1.565974E-02	1.757642E-04
5.122747E+03	1.562606E-02	1.746450E-04
5.132694E+03	1.559254E-02	1.735011E-04
5.142641E+03	1.555944E-02	1.723362E-04
5.152588E+03	1.552719E-02	1.711566E-04
5.162535E+03	1.549608E-02	1.699668E-04
5.172482E+03	1.546626E-02	1.687700E-04
5.182429E+03	1.543758E-02	1.675664E-04
5.192377E+03	1.540975E-02	1.663549E-04
5.202324E+03	1.538270E-02	1.651368E-04
5.212271E+03	1.535572E-02	1.639072E-04
5.222218E+03	1.532852E-02	1.626657E-04
5.232165E+03	1.530039E-02	1.614078E-04
5.242112E+03	1.527056E-02	1.601289E-04
5.252059E+03	1.523838E-02	1.588258E-04
5.262006E+03	1.520316E-02	1.574957E-04
5.271953E+03	1.516426E-02	1.561362E-04
5.281900E+03	1.512075E-02	1.547424E-04
5.291847E+03	1.507206E-02	1.533137E-04
5.301794E+03	1.501773E-02	1.518505E-04
5.311742E+03	1.495742E-02	1.503547E-04
5.321689E+03	1.489064E-02	1.488271E-04
5.331636E+03	1.481751E-02	1.472743E-04
5.341583E+03	1.473789E-02	1.457005E-04
5.351530E+03	1.465229E-02	1.441162E-04
5.361477E+03	1.456097E-02	1.425290E-04
5.371424E+03	1.446481E-02	1.409528E-04
5.381371E+03	1.436448E-02	1.393985E-04
5.391318E+03	1.426121E-02	1.378826E-04
5.401265E+03	1.415587E-02	1.364172E-04
5.411212E+03	1.405010E-02	1.350218E-04
5.421159E+03	1.394512E-02	1.337109E-04
5.431107E+03	1.384229E-02	1.325005E-04
5.441054E+03	1.374311E-02	1.314071E-04
5.451001E+03	1.364880E-02	1.304420E-04
5.460948E+03	1.356040E-02	1.296099E-04
5.470895E+03	1.347840E-02	1.289094E-04
5.480842E+03	1.340305E-02	1.283369E-04
5.490789E+03	1.333443E-02	1.278876E-04
5.500736E+03	1.327230E-02	1.275536E-04
5.510683E+03	1.321620E-02	1.273249E-04
5.520630E+03	1.316602E-02	1.271955E-04
5.530577E+03	1.312102E-02	1.271530E-04
5.540524E+03	1.308113E-02	1.271920E-04
5.550471E+03	1.304609E-02	1.273050E-04
5.560419E+03	1.301538E-02	1.274828E-04
5.570366E+03	1.298896E-02	1.277203E-04
5.580313E+03	1.296667E-02	1.280119E-04
5.590260E+03	1.294826E-02	1.283513E-04
5.600207E+03	1.293366E-02	1.287338E-04
5.610154E+03	1.292269E-02	1.291542E-04
5.620101E+03	1.291558E-02	1.296113E-04
5.630048E+03	1.291197E-02	1.300982E-04
5.639995E+03	1.291213E-02	1.306148E-04
5.649942E+03	1.291575E-02	1.311548E-04
5.659889E+03	1.292315E-02	1.317191E-04
5.669836E+03	1.293433E-02	1.323048E-04
5.679784E+03	1.294914E-02	1.329083E-04
5.689731E+03	1.296800E-02	1.335314E-04
5.699678E+03	1.299081E-02	1.341713E-04
5.709625E+03	1.301786E-02	1.348288E-04
5.719572E+03	1.304894E-02	1.355002E-04
5.729519E+03	1.308447E-02	1.361878E-04
5.739466E+03	1.312446E-02	1.368904E-04
5.749413E+03	1.316888E-02	1.376061E-04
5.759360E+03	1.321765E-02	1.383327E-04
5.769307E+03	1.327092E-02	1.390704E-04
5.779254E+03	1.332834E-02	1.398144E-04
5.789201E+03	1.338976E-02	1.405618E-04
5.799149E+03	1.345507E-02	1.413104E-04
5.809096E+03	1.352353E-02	1.420516E-04
5.819043E+03	1.359487E-02	1.427814E-04
5.828990E+03	1.366855E-02	1.434936E-04
5.838937E+03	1.374361E-02	1.441773E-04
5.848884E+03	1.381977E-02	1.448291E-04
5.858831E+03	1.389583E-02	1.454359E-04
5.868778E+03	1.397129E-02	1.459928E-04
5.878725E+03	1.404532E-02	1.464908E-04
5.888672E+03	1.411692E-02	1.469201E-04
5.898619E+03	1.418568E-02	1.472771E-04
5.908566E+03	1.425061E-02	1.475523E-04
5.918514E+03	1.431130E-02	1.477429E-04
5.928461E+03	1.436729E-02	1.478457E-04
5.938408E+03	1.441800E-02	1.478565E-04
5.948355E+03	1.446330E-02	1.477766E-04
5.958302E+03	1.450293E-02	1.476057E-04
5.968249E+03	1.453670E-02	1.473447E-04
5.978196E+03	1.456477E-02	1.469987E-04
5.988143E+03	1.458710E-02	1.465705E-04
5.998090E+03	1.460380E-02	1.460652E-04
6.008037E+03	1.461488E-02	1.454867E-04
6.017984E+03	1.462046E-02	1.448407E-04
6.027931E+03	1.462062E-02	1.441323E-04
6.037878E+03	1.461539E-02	1.433666E-04
6.047826E+03	1.460471E-02	1.425479E-04
6.057773E+03	1.458841E-02	1.416797E-04
6.067720E+03	1.456606E-02	1.407632E-04
6.077667E+03	1.453739E-02	1.398013E-04
6.087614E+03	1.450170E-02	1.387931E-04
6.097561E+03	1.445857E-02	1.377402E-04
6.107508E+03	1.440691E-02	1.366385E-04
6.117455E+03	1.434609E-02	1.354878E-04
6.127402E+03	1.427500E-02	1.342838E-04
6.137349E+03	1.419299E-02	1.330263E-04
6.147296E+03	1.409906E-02	1.317118E-04
6.157243E+03	1.399326E-02	1.303456E-04
6.167191E+03	1.387571E-02	1.289295E-04
6.177138E+03	1.374719E-02	1.274707E-04
6.187085E+03	1.360919E-02	1.259821E-04
6.197032E+03	1.346308E-02	1.244756E-04
6.206979E+03	1.331061E-02	1.229662E-04
6.216926E+03	1.315353E-02	1.214686E-04
6.226873E+03	1.299348E-02	1.199965E-04
6.236820E+03	1.283239E-02	1.185662E-04
6.246767E+03	1.267207E-02	1.171930E-04
6.256714E+03	1.251438E-02	1.158926E-04
6.266661E+03	1.236129E-02	1.146820E-04
6.276608E+03	1.221464E-02	1.135773E-04
6.286556E+03	1.207614E-02	1.125936E-04
6.296503E+03	1.194784E-02	1.117495E-04
6.306450E+03	1.183134E-02	1.110602E-04
6.316397E+03	1.172842E-02	1.105429E-04
6.326344E+03	1.164062E-02	1.102130E-04
6.336291E+03	1.156950E-02	1.100869E-04
6.346238E+03	1.151621E-02	1.101778E-04
6.356185E+03	1.148195E-02	1.105002E-04
6.366132E+03	1.146765E-02	1.110664E-04
6.376079E+03	1.147397E-02	1.118873E-04
6.386026E+03	1.150147E-02	1.129732E-04
6.395973E+03	1.155033E-02	1.143314E-04
6.405921E+03	1.162042E-02	1.159668E-04
6.415868E+03	1.171130E-02	1.178814E-04
6.425815E+03	1.182225E-02	1.200718E-04
6.435762E+03	1.195196E-02	1.225272E-04
6.445709E+03	1.209912E-02	1.252370E-04
6.455656E+03	1.226170E-02	1.281822E-04
6.465603E+03	1.243778E-02	1.313447E-04
6.475550E+03	1.262454E-02	1.346961E-04
6.485497E+03	1.281898E-02	1.382047E-04
6.495444E+03	1.301767E-02	1.418324E-04
6.505391E+03	1.321667E-02	1.455345E-04
6.515338E+03	1.341136E-02	1.492564E-04
6.525285E+03	1.359747E-02	1.529449E-04
6.535233E+03	1.377012E-02	1.565380E-04
6.545180E+03	1.392492E-02	1.599768E-04
6.555127E+03	1.405778E-02	1.632035E-04
6.565074E+03	1.416531E-02	1.661667E-04
6.575021E+03	1.424471E-02	1.688202E-04
6.584968E+03	1.429415E-02	1.711283E-04
6.594915E+03	1.431236E-02	1.730610E-04
6.604862E+03	1.429924E-02	1.746026E-04
6.614809E+03	1.425537E-02	1.757461E-04
6.624756E+03	1.418228E-02	1.764967E-04
6.634703E+03	1.408180E-02	1.768645E-04
6.644650E+03	1.395648E-02	1.768702E-04
6.654598E+03	1.380958E-02	1.765453E-04
6.664545E+03	1.364397E-02	1.759180E-04
6.674492E+03	1.346298E-02	1.750244E-04
6.684439E+03	1.327010E-02	1.739043E-04
6.694386E+03	1.306857E-02	1.725964E-04
6.704333E+03	1.286145E-02	1.711385E-04
6.714280E+03	1.265158E-02	1.695669E-04
6.724227E+03	1.244135E-02	1.679136E-04
6.734174E+03	1.223303E-02	1.662095E-04
6.744121E+03	1.202869E-02	1.644844E-04
6.754068E+03	1.182997E-02	1.627623E-04
6.764015E+03	1.163792E-02	1.610602E-04
6.773963E+03	1.145388E-02	1.593995E-04
6.783910E+03	1.127867E-02	1.577941E-04
6.793857E+03	1.111258E-02	1.562514E-04
6.803804E+03	1.095613E-02	1.547816E-04
6.813751E+03	1.080952E-02	1.533907E-04
6.823698E+03	1.067282E-02	1.520823E-04
6.833645E+03	1.054581E-02	1.508562E-04
6.843592E+03	1.042844E-02	1.497144E-04
6.853539E+03	1.032033E-02	1.486538E-04
6.863486E+03	1.022115E-02	1.476718E-04
6.873433E+03	1.013064E-02	1.467669E-04
6.883380E+03	1.004814E-02	1.459312E-04
6.893327E+03	9.973321E-03	1.451618E-04
6.903275E+03	9.905743E-03	1.444536E-04
6.913222E+03	9.844810E-03	1.437993E-04
6.923169E+03	9.790205E-03	1.431955E-04
6.933116E+03	9.741360E-03	1.426351E-04
6.943063E+03	9.697981E-03	1.421145E-04
6.953010E+03	9.659420E-03	1.416251E-04
6.962957E+03	9.625440E-03	1.411643E-04
6.972904E+03	9.595705E-03	1.407278E-04
6.982851E+03	9.569798E-03	1.403101E-04
6.992798E+03	9.547577E-03	1.399098E-04
7.002745E+03	9.528701E-03	1.395223E-04
7.012692E+03	9.512978E-03	1.391455E-04
7.022640E+03	9.500378E-03	1.387794E-04
7.032587E+03	9.490543E-03	1.384193E-04
7.042534E+03	9.483501E-03	1.380661E-04
7.052481E+03	9.479198E-03	1.377194E-04
7.062428E+03	9.477462E-03	1.373774E-04
7.072375E+03	9.478407E-03	1.370422E-04
7.082322E+03	9.481901E-03	1.367123E-04
7.092269E+03	9.487934E-03	1.363883E-04
7.102216E+03	9.496526E-03	1.360708E-04
7.112163E+03	9.507673E-03	1.357604E-04
7.122110E+03	9.521371E-03	1.354576E-04
7.132057E+03	9.537603E-03	1.351628E-04
7.142005E+03	9.556216E-03	1.348746E-04
7.151952E+03	9.577292E-03	1.345946E-04
7.161899E+03	9.600628E-03	1.343210E-04
7.171846E+03	9.626135E-03	1.340531E-04
7.181793E+03	9.653829E-03	1.337923E-04
7.191740E+03	9.683307E-03	1.335339E-04
7.201687E+03	9.714679E-03	1.332806E-04
7.211634E+03	9.747488E-03	1.330273E-04
7.221581E+03	9.781802E-03	1.327765E-04
7.231528E+03	9.816994E-03	1.325210E-04
7.241475E+03	9.853238E-03	1.322649E-04
7.251422E+03	9.890013E-03	1.320033E-04
7.261370E+03	9.927200E-03	1.317364E-04
7.271317E+03	9.964402E-03	1.314614E-04
7.281264E+03	1.000135E-02	1.311770E-04
7.291211E+03	1.003791E-02	1.308844E-04
7.301158E+03	1.007369E-02	1.305809E-04
7.311105E+03	1.010841E-02	1.302663E-04
7.321052E+03	1.014196E-02	1.299421E-04
7.330999E+03	1.017377E-02	1.296046E-04
7.340946E+03	1.020385E-02	1.292577E-04
7.350893E+03	1.023166E-02	1.288979E-04
7.360840E+03	1.025720E-02	1.285294E-04
7.370787E+03	1.027988E-02	1.281487E-04
7.380734E+03	1.029971E-02	1.277600E-04
7.390682E+03	1.031607E-02	1.273601E-04
7.400629E+03	1.032880E-02	1.269510E-04
7.410576E+03	1.033771E-02	1.265350E-04
7.420523E+03	1.034204E-02	1.261068E-04
7.430470E+03	1.034192E-02	1.256722E-04
7.440417E+03	1.033674E-02	1.252279E-04
7.450364E+03	1.032643E-02	1.247743E-04
7.460311E+03	1.031084E-02	1.243096E-04
7.470258E+03	1.028996E-02	1.238333E-04
7.480205E+03	1.026408E-02	1.233482E-04
7.490152E+03	1.023316E-02	1.228534E-04
7.500099E+03	1.019792E-02	1.223567E-04
7.510047E+03	1.015882E-02	1.218626E-04
7.519994E+03	1.011625E-02	1.213748E-04
7.529941E+03	1.007105E-02	1.209022E-04
7.539888E+03	1.002330E-02	1.204448E-04
7.549835E+03	9.973969E-03	1.200130E-04
7.559782E+03	9.923397E-03	1.196098E-04
7.569729E+03	9.872188E-03	1.192416E-04
7.579676E+03	9.820438E-03	1.189084E-04
7.589623E+03	9.768806E-03	1.186175E-04
7.599570E+03	9.717584E-03	1.183717E-04
7.609517E+03	9.666861E-03	1.181714E-04
7.619464E+03	9.616970E-03	1.180201E-04
7.629412E+03	9.568023E-03	1.179190E-04
7.639359E+03	9.520088E-03	1.178686E-04
7.649306E+03	9.473177E-03	1.178688E-04
7.659253E+03	9.427254E-03	1.179193E-04
7.669200E+03	9.382367E-03	1.180206E-04
7.679147E+03	9.338264E-03	1.181699E-04
7.689094E+03	9.294774E-03	1.183650E-04
7.699041E+03	9.252010E-03	1.186077E-04
7.708988E+03	9.209483E-03	1.188921E-04
7.718935E+03	9.167109E-03	1.192173E-04
