#wls	flux	fluxerr
1.591533E+03	2.040140E-04	1.294023E-05
1.631321E+03	2.070352E-04	1.306727E-05
1.671110E+03	2.100901E-04	1.319299E-05
1.710898E+03	2.130960E-04	1.331209E-05
1.750686E+03	2.161116E-04	1.342818E-05
1.790475E+03	2.191039E-04	1.353912E-05
1.830263E+03	2.220298E-04	1.364217E-05
1.870051E+03	2.248367E-04	1.373411E-05
1.909840E+03	2.274673E-04	1.381149E-05
1.949628E+03	2.298022E-04	1.386720E-05
1.989416E+03	2.319795E-04	1.390979E-05
2.029205E+03	2.340189E-04	1.394051E-05
2.068993E+03	2.360931E-04	1.396968E-05
2.108781E+03	2.387196E-04	1.402759E-05
2.148570E+03	2.421283E-04	1.412688E-05
2.188358E+03	2.465427E-04	1.427941E-05
2.228146E+03	2.518281E-04	1.447601E-05
2.267935E+03	2.576794E-04	1.469797E-05
2.307723E+03	2.637232E-04	1.492323E-05
2.347511E+03	2.698177E-04	1.514339E-05
2.387300E+03	2.758536E-04	1.535211E-05
2.427088E+03	2.817235E-04	1.554337E-05
2.466876E+03	2.874308E-04	1.571740E-05
2.506665E+03	2.930703E-04	1.587941E-05
2.546453E+03	2.986068E-04	1.602746E-05
2.586241E+03	3.040805E-04	1.616364E-05
2.626030E+03	3.096042E-04	1.629387E-05
2.665818E+03	3.150847E-04	1.641302E-05
2.705606E+03	3.207113E-04	1.653079E-05
2.745395E+03	3.264682E-04	1.664596E-05
2.785183E+03	3.324145E-04	1.676116E-05
2.824971E+03	3.386150E-04	1.687913E-05
2.864759E+03	3.452109E-04	1.700624E-05
2.904548E+03	3.522114E-04	1.714209E-05
2.944336E+03	3.598445E-04	1.729676E-05
2.984124E+03	3.682106E-04	1.747370E-05
2.994072E+03	3.704314E-04	1.752194E-05
3.004019E+03	3.726941E-04	1.757126E-05
3.013966E+03	3.750708E-04	1.762503E-05
3.023913E+03	3.774941E-04	1.768004E-05
3.033860E+03	3.800396E-04	1.773979E-05
3.043807E+03	3.825714E-04	1.779790E-05
3.053754E+03	3.853031E-04	1.786427E-05
3.063701E+03	3.880241E-04	1.792908E-05
3.073648E+03	3.908776E-04	1.799892E-05
3.083595E+03	3.938665E-04	1.807386E-05
3.093542E+03	3.969216E-04	1.815067E-05
3.103489E+03	4.000451E-04	1.822940E-05
3.113437E+03	4.033110E-04	1.831339E-05
3.123384E+03	4.067228E-04	1.840273E-05
3.133331E+03	4.102837E-04	1.849748E-05
3.143278E+03	4.139251E-04	1.859447E-05
3.153225E+03	4.176497E-04	1.869380E-05
3.163172E+03	4.216074E-04	1.880210E-05
3.173119E+03	4.256568E-04	1.891296E-05
3.183066E+03	4.298750E-04	1.902976E-05
3.193013E+03	4.342675E-04	1.915265E-05
3.202960E+03	4.388392E-04	1.928175E-05
3.212907E+03	4.435960E-04	1.941723E-05
3.222854E+03	4.485436E-04	1.955924E-05
3.232801E+03	4.536135E-04	1.970470E-05
3.242749E+03	4.589622E-04	1.986032E-05
3.252696E+03	4.645227E-04	2.002306E-05
3.262643E+03	4.703785E-04	2.019640E-05
3.272590E+03	4.763852E-04	2.037402E-05
3.282537E+03	4.827051E-04	2.056273E-05
3.292484E+03	4.892709E-04	2.075952E-05
3.302431E+03	4.960927E-04	2.096469E-05
3.312378E+03	5.032592E-04	2.118184E-05
3.322325E+03	5.107836E-04	2.141132E-05
3.332272E+03	5.185991E-04	2.165018E-05
3.342219E+03	5.267191E-04	2.189880E-05
3.352166E+03	5.352375E-04	2.216090E-05
3.362114E+03	5.441709E-04	2.243697E-05
3.372061E+03	5.535366E-04	2.272749E-05
3.382008E+03	5.633534E-04	2.303300E-05
3.391955E+03	5.736402E-04	2.335402E-05
3.401902E+03	5.843340E-04	2.368776E-05
3.411849E+03	5.956250E-04	2.404165E-05
3.421796E+03	6.074523E-04	2.441295E-05
3.431743E+03	6.198411E-04	2.480236E-05
3.441690E+03	6.329043E-04	2.521408E-05
3.451637E+03	6.465823E-04	2.564538E-05
3.461584E+03	6.609017E-04	2.609698E-05
3.471531E+03	6.759813E-04	2.657321E-05
3.481479E+03	6.918518E-04	2.707485E-05
3.491426E+03	7.085455E-04	2.760273E-05
3.501373E+03	7.260009E-04	2.815402E-05
3.511320E+03	7.443446E-04	2.873320E-05
3.521267E+03	7.636138E-04	2.934120E-05
3.531214E+03	7.839439E-04	2.998271E-05
3.541161E+03	8.051807E-04	3.065128E-05
3.551108E+03	8.275649E-04	3.135553E-05
3.561055E+03	8.510427E-04	3.209280E-05
3.571002E+03	8.756615E-04	3.286429E-05
3.580949E+03	9.015771E-04	3.367519E-05
3.590896E+03	9.288471E-04	3.452693E-05
3.600844E+03	9.574217E-04	3.541691E-05
3.610791E+03	9.875815E-04	3.635476E-05
3.620738E+03	1.019172E-03	3.733394E-05
3.630685E+03	1.052373E-03	3.836019E-05
3.640632E+03	1.087257E-03	3.943525E-05
3.650579E+03	1.123899E-03	4.056094E-05
3.660526E+03	1.162499E-03	4.174346E-05
3.670473E+03	1.203024E-03	4.298051E-05
3.680420E+03	1.245685E-03	4.427850E-05
3.690367E+03	1.290447E-03	4.563509E-05
3.700314E+03	1.337532E-03	4.705687E-05
3.710261E+03	1.387039E-03	4.854606E-05
3.720208E+03	1.438934E-03	5.010009E-05
3.730156E+03	1.493589E-03	5.173051E-05
3.740103E+03	1.550972E-03	5.343472E-05
3.750050E+03	1.611184E-03	5.521464E-05
3.759997E+03	1.674324E-03	5.707207E-05
3.769944E+03	1.740636E-03	5.901367E-05
3.779891E+03	1.810064E-03	6.103578E-05
3.789838E+03	1.882844E-03	6.314459E-05
3.799785E+03	1.959055E-03	6.534086E-05
3.809732E+03	2.038760E-03	6.762481E-05
3.819679E+03	2.122008E-03	6.999602E-05
3.829626E+03	2.208994E-03	7.245903E-05
3.839573E+03	2.299380E-03	7.500066E-05
3.849521E+03	2.393483E-03	7.762933E-05
3.859468E+03	2.491249E-03	8.034124E-05
3.869415E+03	2.592398E-03	8.312538E-05
3.879362E+03	2.696970E-03	8.598116E-05
3.889309E+03	2.804777E-03	8.890070E-05
3.899256E+03	2.915575E-03	9.187452E-05
3.909203E+03	3.029058E-03	9.489144E-05
3.919150E+03	3.145065E-03	9.794491E-05
3.929097E+03	3.262963E-03	1.010140E-04
3.939044E+03	3.382462E-03	1.040888E-04
3.948991E+03	3.502788E-03	1.071446E-04
3.958938E+03	3.623744E-03	1.101752E-04
3.968886E+03	3.744210E-03	1.131464E-04
3.978833E+03	3.863662E-03	1.160427E-04
3.988780E+03	3.981542E-03	1.188481E-04
3.998727E+03	4.096810E-03	1.215327E-04
4.008674E+03	4.208854E-03	1.240800E-04
4.018621E+03	4.316604E-03	1.264605E-04
4.028568E+03	4.419471E-03	1.286595E-04
4.038515E+03	4.516660E-03	1.306567E-04
4.048462E+03	4.607450E-03	1.324349E-04
4.058409E+03	4.691187E-03	1.339788E-04
4.068356E+03	4.767570E-03	1.352839E-04
4.078303E+03	4.835734E-03	1.363300E-04
4.088251E+03	4.896099E-03	1.371336E-04
4.098198E+03	4.947890E-03	1.376774E-04
4.108145E+03	4.991846E-03	1.379867E-04
4.118092E+03	5.027744E-03	1.380599E-04
4.128039E+03	5.056185E-03	1.379178E-04
4.137986E+03	5.077664E-03	1.375781E-04
4.147933E+03	5.093000E-03	1.370667E-04
4.157880E+03	5.102456E-03	1.363942E-04
4.167827E+03	5.107197E-03	1.355947E-04
4.177774E+03	5.107781E-03	1.346857E-04
4.187721E+03	5.105191E-03	1.336952E-04
4.197668E+03	5.100005E-03	1.326402E-04
4.207615E+03	5.093172E-03	1.315466E-04
4.217563E+03	5.085228E-03	1.304293E-04
4.227510E+03	5.077228E-03	1.293157E-04
4.237457E+03	5.069449E-03	1.282129E-04
4.247404E+03	5.062665E-03	1.271406E-04
4.257351E+03	5.057420E-03	1.261117E-04
4.267298E+03	5.054205E-03	1.251377E-04
4.277245E+03	5.053453E-03	1.242284E-04
4.287192E+03	5.055697E-03	1.233955E-04
4.297139E+03	5.060942E-03	1.226378E-04
4.307086E+03	5.069767E-03	1.219677E-04
4.317033E+03	5.082382E-03	1.213885E-04
4.326980E+03	5.098832E-03	1.208996E-04
4.336928E+03	5.119411E-03	1.205059E-04
4.346875E+03	5.144158E-03	1.202065E-04
4.356822E+03	5.173413E-03	1.200074E-04
4.366769E+03	5.207424E-03	1.199120E-04
4.376716E+03	5.246665E-03	1.199292E-04
4.386663E+03	5.291391E-03	1.200623E-04
4.396610E+03	5.342061E-03	1.203191E-04
4.406557E+03	5.399286E-03	1.207106E-04
4.416504E+03	5.463566E-03	1.212451E-04
4.426451E+03	5.535498E-03	1.219324E-04
4.436398E+03	5.615531E-03	1.227790E-04
4.446345E+03	5.704061E-03	1.237900E-04
4.456293E+03	5.801543E-03	1.249712E-04
4.466240E+03	5.908211E-03	1.263239E-04
4.476187E+03	6.024318E-03	1.278492E-04
4.486134E+03	6.150094E-03	1.295481E-04
4.496081E+03	6.285106E-03	1.314073E-04
4.506028E+03	6.429484E-03	1.334257E-04
4.515975E+03	6.582535E-03	1.355850E-04
4.525922E+03	6.743593E-03	1.378679E-04
4.535869E+03	6.911782E-03	1.402535E-04
4.545816E+03	7.085756E-03	1.427119E-04
4.555763E+03	7.263992E-03	1.452104E-04
4.565710E+03	7.444916E-03	1.477163E-04
4.575658E+03	7.626454E-03	1.501881E-04
4.585605E+03	7.806856E-03	1.525917E-04
4.595552E+03	7.984241E-03	1.548916E-04
4.605499E+03	8.156655E-03	1.570520E-04
4.615446E+03	8.322414E-03	1.590433E-04
4.625393E+03	8.479912E-03	1.608382E-04
4.635340E+03	8.627962E-03	1.624184E-04
4.645287E+03	8.765699E-03	1.637721E-04
4.655234E+03	8.892232E-03	1.648875E-04
4.665181E+03	9.007727E-03	1.657726E-04
4.675128E+03	9.112062E-03	1.664301E-04
4.685075E+03	9.205994E-03	1.668786E-04
4.695022E+03	9.290175E-03	1.671343E-04
4.704970E+03	9.365755E-03	1.672219E-04
4.714917E+03	9.433788E-03	1.671639E-04
4.724864E+03	9.495537E-03	1.669855E-04
4.734811E+03	9.552305E-03	1.667123E-04
4.744758E+03	9.605338E-03	1.663680E-04
4.754705E+03	9.655795E-03	1.659740E-04
4.764652E+03	9.704456E-03	1.655449E-04
4.774599E+03	9.752306E-03	1.650982E-04
4.784546E+03	9.799877E-03	1.646432E-04
4.794493E+03	9.847645E-03	1.641882E-04
4.804440E+03	9.895760E-03	1.637358E-04
4.814387E+03	9.944201E-03	1.632854E-04
4.824335E+03	9.993006E-03	1.628373E-04
4.834282E+03	1.004206E-02	1.623893E-04
4.844229E+03	1.009120E-02	1.619387E-04
4.854176E+03	1.014016E-02	1.614806E-04
4.864123E+03	1.018856E-02	1.610091E-04
4.874070E+03	1.023569E-02	1.605133E-04
4.884017E+03	1.028140E-02	1.599908E-04
4.893964E+03	1.032488E-02	1.594295E-04
4.903911E+03	1.036557E-02	1.588214E-04
4.913858E+03	1.040310E-02	1.581620E-04
4.923805E+03	1.043670E-02	1.574404E-04
4.933752E+03	1.046608E-02	1.566537E-04
4.943700E+03	1.049080E-02	1.557966E-04
4.953647E+03	1.051046E-02	1.548648E-04
4.963594E+03	1.052477E-02	1.538556E-04
4.973541E+03	1.053374E-02	1.527712E-04
4.983488E+03	1.053704E-02	1.516084E-04
4.993435E+03	1.053503E-02	1.503742E-04
5.003382E+03	1.052782E-02	1.490722E-04
5.013329E+03	1.051559E-02	1.477065E-04
5.023276E+03	1.049908E-02	1.462890E-04
5.033223E+03	1.047885E-02	1.448292E-04
5.043170E+03	1.045559E-02	1.433379E-04
5.053117E+03	1.043025E-02	1.418289E-04
5.063064E+03	1.040399E-02	1.403186E-04
5.073012E+03	1.037781E-02	1.388210E-04
5.082959E+03	1.035277E-02	1.373503E-04
5.092906E+03	1.033022E-02	1.359240E-04
5.102853E+03	1.031107E-02	1.345534E-04
5.112800E+03	1.029655E-02	1.332536E-04
5.122747E+03	1.028737E-02	1.320324E-04
5.132694E+03	1.028440E-02	1.308999E-04
5.142641E+03	1.028827E-02	1.298620E-04
5.152588E+03	1.029943E-02	1.289229E-04
5.162535E+03	1.031805E-02	1.280829E-04
5.172482E+03	1.034444E-02	1.273440E-04
5.182429E+03	1.037843E-02	1.267025E-04
5.192377E+03	1.041978E-02	1.261538E-04
5.202324E+03	1.046811E-02	1.256918E-04
5.212271E+03	1.052296E-02	1.253098E-04
5.222218E+03	1.058341E-02	1.249960E-04
5.232165E+03	1.064881E-02	1.247422E-04
5.242112E+03	1.071813E-02	1.245359E-04
5.252059E+03	1.079009E-02	1.243625E-04
5.262006E+03	1.086335E-02	1.242072E-04
5.271953E+03	1.093654E-02	1.240554E-04
5.281900E+03	1.100799E-02	1.238896E-04
5.291847E+03	1.107602E-02	1.236928E-04
5.301794E+03	1.113904E-02	1.234500E-04
5.311742E+03	1.119527E-02	1.231443E-04
5.321689E+03	1.124325E-02	1.227628E-04
5.331636E+03	1.128135E-02	1.222913E-04
5.341583E+03	1.130860E-02	1.217234E-04
5.351530E+03	1.132404E-02	1.210525E-04
5.361477E+03	1.132717E-02	1.202773E-04
5.371424E+03	1.131776E-02	1.193994E-04
5.381371E+03	1.129628E-02	1.184274E-04
5.391318E+03	1.126339E-02	1.173717E-04
5.401265E+03	1.122031E-02	1.162478E-04
5.411212E+03	1.116864E-02	1.150752E-04
5.421159E+03	1.111035E-02	1.138761E-04
5.431107E+03	1.104754E-02	1.126737E-04
5.441054E+03	1.098258E-02	1.114930E-04
5.451001E+03	1.091764E-02	1.103568E-04
5.460948E+03	1.085460E-02	1.092844E-04
5.470895E+03	1.079509E-02	1.082916E-04
5.480842E+03	1.073969E-02	1.073820E-04
5.490789E+03	1.068891E-02	1.065581E-04
5.500736E+03	1.064268E-02	1.058168E-04
5.510683E+03	1.060077E-02	1.051531E-04
5.520630E+03	1.056284E-02	1.045616E-04
5.530577E+03	1.052859E-02	1.040367E-04
5.540524E+03	1.049774E-02	1.035739E-04
5.550471E+03	1.046998E-02	1.031679E-04
5.560419E+03	1.044542E-02	1.028175E-04
5.570366E+03	1.042368E-02	1.025174E-04
5.580313E+03	1.040485E-02	1.022664E-04
5.590260E+03	1.038895E-02	1.020629E-04
5.600207E+03	1.037591E-02	1.019045E-04
5.610154E+03	1.036559E-02	1.017881E-04
5.620101E+03	1.035806E-02	1.017128E-04
5.630048E+03	1.035308E-02	1.016746E-04
5.639995E+03	1.035040E-02	1.016696E-04
5.649942E+03	1.034985E-02	1.016947E-04
5.659889E+03	1.035106E-02	1.017448E-04
5.669836E+03	1.035412E-02	1.018196E-04
5.679784E+03	1.035873E-02	1.019148E-04
5.689731E+03	1.036510E-02	1.020312E-04
5.699678E+03	1.037332E-02	1.021685E-04
5.709625E+03	1.038391E-02	1.023308E-04
5.719572E+03	1.039715E-02	1.025199E-04
5.729519E+03	1.041382E-02	1.027422E-04
5.739466E+03	1.043455E-02	1.030033E-04
5.749413E+03	1.046000E-02	1.033088E-04
5.759360E+03	1.049066E-02	1.036626E-04
5.769307E+03	1.052728E-02	1.040716E-04
5.779254E+03	1.056985E-02	1.045348E-04
5.789201E+03	1.061871E-02	1.050549E-04
5.799149E+03	1.067343E-02	1.056272E-04
5.809096E+03	1.073359E-02	1.062467E-04
5.819043E+03	1.079839E-02	1.069050E-04
5.828990E+03	1.086669E-02	1.075904E-04
5.838937E+03	1.093714E-02	1.082888E-04
5.848884E+03	1.100826E-02	1.089851E-04
5.858831E+03	1.107819E-02	1.096607E-04
5.868778E+03	1.114512E-02	1.102970E-04
5.878725E+03	1.120734E-02	1.108770E-04
5.888672E+03	1.126310E-02	1.113831E-04
5.898619E+03	1.131076E-02	1.117993E-04
5.908566E+03	1.134916E-02	1.121139E-04
5.918514E+03	1.137737E-02	1.123180E-04
5.928461E+03	1.139486E-02	1.124066E-04
5.938408E+03	1.140140E-02	1.123781E-04
5.948355E+03	1.139749E-02	1.122380E-04
5.958302E+03	1.138382E-02	1.119935E-04
5.968249E+03	1.136119E-02	1.116533E-04
5.978196E+03	1.133115E-02	1.112337E-04
5.988143E+03	1.129493E-02	1.107473E-04
5.998090E+03	1.125415E-02	1.102110E-04
6.008037E+03	1.121043E-02	1.096415E-04
6.017984E+03	1.116511E-02	1.090530E-04
6.027931E+03	1.111970E-02	1.084609E-04
6.037878E+03	1.107513E-02	1.078753E-04
6.047826E+03	1.103254E-02	1.073081E-04
6.057773E+03	1.099241E-02	1.067648E-04
6.067720E+03	1.095496E-02	1.062486E-04
6.077667E+03	1.092029E-02	1.057613E-04
6.087614E+03	1.088803E-02	1.053002E-04
6.097561E+03	1.085728E-02	1.048579E-04
6.107508E+03	1.082702E-02	1.044254E-04
6.117455E+03	1.079609E-02	1.039927E-04
6.127402E+03	1.076302E-02	1.035471E-04
6.137349E+03	1.072619E-02	1.030740E-04
6.147296E+03	1.068409E-02	1.025606E-04
6.157243E+03	1.063552E-02	1.019965E-04
6.167191E+03	1.057945E-02	1.013733E-04
6.177138E+03	1.051533E-02	1.006861E-04
6.187085E+03	1.044271E-02	9.993143E-05
6.197032E+03	1.036173E-02	9.911083E-05
6.206979E+03	1.027252E-02	9.822598E-05
6.216926E+03	1.017542E-02	9.728046E-05
6.226873E+03	1.007113E-02	9.628125E-05
6.236820E+03	9.960475E-03	9.523622E-05
6.246767E+03	9.844294E-03	9.415364E-05
6.256714E+03	9.724001E-03	9.304707E-05
6.266661E+03	9.601004E-03	9.192996E-05
6.276608E+03	9.476999E-03	9.081855E-05
6.286556E+03	9.353996E-03	8.973206E-05
6.296503E+03	9.234078E-03	8.869053E-05
6.306450E+03	9.119487E-03	8.771557E-05
6.316397E+03	9.012542E-03	8.682972E-05
6.326344E+03	8.915684E-03	8.605686E-05
6.336291E+03	8.831274E-03	8.542041E-05
6.346238E+03	8.761695E-03	8.494428E-05
6.356185E+03	8.709150E-03	8.465102E-05
6.366132E+03	8.675750E-03	8.456271E-05
6.376079E+03	8.663541E-03	8.470126E-05
6.386026E+03	8.674428E-03	8.508772E-05
6.395973E+03	8.710078E-03	8.574137E-05
6.405921E+03	8.771993E-03	8.668046E-05
6.415868E+03	8.861663E-03	8.792373E-05
6.425815E+03	8.980035E-03	8.948450E-05
6.435762E+03	9.128262E-03	9.137781E-05
6.445709E+03	9.306859E-03	9.361280E-05
6.455656E+03	9.516012E-03	9.619568E-05
6.465603E+03	9.755595E-03	9.912987E-05
6.475550E+03	1.002441E-02	1.024081E-04
6.485497E+03	1.032044E-02	1.060144E-04
6.495444E+03	1.064023E-02	1.099181E-04
6.505391E+03	1.097844E-02	1.140678E-04
6.515338E+03	1.132783E-02	1.183912E-04
6.525285E+03	1.167930E-02	1.227947E-04
6.535233E+03	1.202261E-02	1.271698E-04
6.545180E+03	1.234656E-02	1.313956E-04
6.555127E+03	1.263992E-02	1.353471E-04
6.565074E+03	1.289224E-02	1.389051E-04
6.575021E+03	1.309468E-02	1.419644E-04
6.584968E+03	1.324032E-02	1.444383E-04
6.594915E+03	1.332457E-02	1.462633E-04
6.604862E+03	1.334601E-02	1.474100E-04
6.614809E+03	1.330599E-02	1.478788E-04
6.624756E+03	1.320838E-02	1.476988E-04
6.634703E+03	1.305901E-02	1.469227E-04
6.644650E+03	1.286550E-02	1.456244E-04
6.654598E+03	1.263614E-02	1.438883E-04
6.664545E+03	1.237935E-02	1.418024E-04
6.674492E+03	1.210352E-02	1.394571E-04
6.684439E+03	1.181615E-02	1.369346E-04
6.694386E+03	1.152397E-02	1.343105E-04
6.704333E+03	1.123281E-02	1.316518E-04
6.714280E+03	1.094723E-02	1.290123E-04
6.724227E+03	1.067106E-02	1.264381E-04
6.734174E+03	1.040683E-02	1.239613E-04
6.744121E+03	1.015680E-02	1.216112E-04
6.754068E+03	9.922107E-03	1.194040E-04
6.764015E+03	9.703754E-03	1.173550E-04
6.773963E+03	9.501906E-03	1.154693E-04
6.783910E+03	9.316801E-03	1.137528E-04
6.793857E+03	9.147980E-03	1.122029E-04
6.803804E+03	8.995011E-03	1.108173E-04
6.813751E+03	8.857490E-03	1.095938E-04
6.823698E+03	8.734493E-03	1.085235E-04
6.833645E+03	8.625200E-03	1.075986E-04
6.843592E+03	8.528709E-03	1.068100E-04
6.853539E+03	8.444163E-03	1.061491E-04
6.863486E+03	8.370438E-03	1.056033E-04
6.873433E+03	8.306482E-03	1.051609E-04
6.883380E+03	8.251193E-03	1.048094E-04
6.893327E+03	8.203467E-03	1.045357E-04
6.903275E+03	8.162202E-03	1.043268E-04
6.913222E+03	8.126215E-03	1.041683E-04
6.923169E+03	8.094553E-03	1.040486E-04
6.933116E+03	8.066245E-03	1.039556E-04
6.943063E+03	8.040183E-03	1.038754E-04
6.953010E+03	8.015745E-03	1.038002E-04
6.962957E+03	7.992211E-03	1.037209E-04
6.972904E+03	7.968795E-03	1.036274E-04
6.982851E+03	7.945099E-03	1.035146E-04
6.992798E+03	7.920764E-03	1.033779E-04
7.002745E+03	7.895536E-03	1.032141E-04
7.012692E+03	7.869306E-03	1.030218E-04
7.022640E+03	7.841976E-03	1.027999E-04
7.032587E+03	7.813750E-03	1.025512E-04
7.042534E+03	7.784759E-03	1.022776E-04
7.052481E+03	7.755402E-03	1.019845E-04
7.062428E+03	7.725982E-03	1.016763E-04
7.072375E+03	7.696948E-03	1.013590E-04
7.082322E+03	7.668797E-03	1.010395E-04
7.092269E+03	7.642037E-03	1.007249E-04
7.102216E+03	7.617188E-03	1.004223E-04
7.112163E+03	7.594732E-03	1.001384E-04
7.122110E+03	7.575112E-03	9.987945E-05
7.132057E+03	7.558612E-03	9.964938E-05
7.142005E+03	7.545722E-03	9.945501E-05
7.151952E+03	7.536443E-03	9.929663E-05
7.161899E+03	7.530882E-03	9.917592E-05
7.171846E+03	7.529134E-03	9.909436E-05
7.181793E+03	7.531090E-03	9.905076E-05
7.191740E+03	7.536544E-03	9.904262E-05
7.201687E+03	7.545021E-03	9.906390E-05
7.211634E+03	7.556433E-03	9.911369E-05
7.221581E+03	7.570151E-03	9.918395E-05
7.231528E+03	7.585683E-03	9.926850E-05
7.241475E+03	7.602603E-03	9.936206E-05
7.251422E+03	7.620260E-03	9.945645E-05
7.261370E+03	7.638208E-03	9.954620E-05
7.271317E+03	7.655905E-03	9.962469E-05
7.281264E+03	7.672738E-03	9.968440E-05
7.291211E+03	7.688343E-03	9.972117E-05
7.301158E+03	7.702207E-03	9.972891E-05
7.311105E+03	7.714083E-03	9.970510E-05
7.321052E+03	7.723698E-03	9.964693E-05
7.330999E+03	7.730861E-03	9.955264E-05
7.340946E+03	7.735457E-03	9.942158E-05
7.350893E+03	7.737446E-03	9.925406E-05
7.360840E+03	7.736847E-03	9.905116E-05
7.370787E+03	7.733730E-03	9.881467E-05
7.380734E+03	7.728183E-03	9.854660E-05
7.390682E+03	7.720339E-03	9.824955E-05
7.400629E+03	7.710417E-03	9.792720E-05
7.410576E+03	7.698436E-03	9.758071E-05
7.420523E+03	7.684407E-03	9.721112E-05
7.430470E+03	7.668636E-03	9.682323E-05
7.440417E+03	7.651119E-03	9.641769E-05
7.450364E+03	7.632067E-03	9.599749E-05
7.460311E+03	7.611378E-03	9.556159E-05
7.470258E+03	7.589367E-03	9.511418E-05
7.480205E+03	7.566035E-03	9.465556E-05
7.490152E+03	7.541499E-03	9.418745E-05
7.500099E+03	7.515979E-03	9.371285E-05
7.510047E+03	7.489528E-03	9.323272E-05
7.519994E+03	7.462314E-03	9.274940E-05
7.529941E+03	7.434643E-03	9.226700E-05
7.539888E+03	7.406536E-03	9.178605E-05
7.549835E+03	7.378432E-03	9.131230E-05
7.559782E+03	7.350479E-03	9.084787E-05
7.569729E+03	7.322896E-03	9.039579E-05
7.579676E+03	7.295908E-03	8.995914E-05
7.589623E+03	7.269792E-03	8.954170E-05
7.599570E+03	7.244488E-03	8.914306E-05
7.609517E+03	7.220298E-03	8.876733E-05
7.619464E+03	7.197155E-03	8.841407E-05
7.629412E+03	7.175053E-03	8.808365E-05
7.639359E+03	7.154026E-03	8.777695E-05
7.649306E+03	7.133773E-03	8.749074E-05
7.659253E+03	7.114354E-03	8.722630E-05
7.669200E+03	7.095600E-03	8.698210E-05
7.679147E+03	7.077115E-03	8.675387E-05
7.689094E+03	7.059008E-03	8.654351E-05
7.699041E+03	7.040767E-03	8.634540E-05
7.708988E+03	7.022496E-03	8.616144E-05
7.718935E+03	7.003785E-03	8.598721E-05
