#wls	flux	fluxerr
1.591533E+03	1.125808E-04	7.283800E-06
1.631321E+03	1.149424E-04	7.399459E-06
1.671110E+03	1.173713E-04	7.517027E-06
1.710898E+03	1.197919E-04	7.631543E-06
1.750686E+03	1.222325E-04	7.744742E-06
1.790475E+03	1.246756E-04	7.855425E-06
1.830263E+03	1.270977E-04	7.962041E-06
1.870051E+03	1.294694E-04	8.062711E-06
1.909840E+03	1.317943E-04	8.157639E-06
1.949628E+03	1.339730E-04	8.240684E-06
1.989416E+03	1.360746E-04	8.316169E-06
2.029205E+03	1.381179E-04	8.385247E-06
2.068993E+03	1.402485E-04	8.456708E-06
2.108781E+03	1.426975E-04	8.544205E-06
2.148570E+03	1.456965E-04	8.661010E-06
2.188358E+03	1.493896E-04	8.814821E-06
2.228146E+03	1.536420E-04	8.996706E-06
2.267935E+03	1.583556E-04	9.200078E-06
2.307723E+03	1.633218E-04	9.412125E-06
2.347511E+03	1.683845E-04	9.623403E-06
2.387300E+03	1.735581E-04	9.834433E-06
2.427088E+03	1.787909E-04	1.004197E-05
2.466876E+03	1.840554E-04	1.024423E-05
2.506665E+03	1.894516E-04	1.044649E-05
2.546453E+03	1.949343E-04	1.064590E-05
2.586241E+03	2.005765E-04	1.084608E-05
2.626030E+03	2.063764E-04	1.104650E-05
2.665818E+03	2.124127E-04	1.125086E-05
2.705606E+03	2.187287E-04	1.146083E-05
2.745395E+03	2.252901E-04	1.167394E-05
2.785183E+03	2.322273E-04	1.189621E-05
2.824971E+03	2.395962E-04	1.212960E-05
2.864759E+03	2.473749E-04	1.237197E-05
2.904548E+03	2.557560E-04	1.263183E-05
2.944336E+03	2.647313E-04	1.290737E-05
2.984124E+03	2.744707E-04	1.320536E-05
2.994072E+03	2.770263E-04	1.328322E-05
3.004019E+03	2.796732E-04	1.336443E-05
3.013966E+03	2.823690E-04	1.344690E-05
3.023913E+03	2.851159E-04	1.353073E-05
3.033860E+03	2.879177E-04	1.361606E-05
3.043807E+03	2.908236E-04	1.370517E-05
3.053754E+03	2.937901E-04	1.379596E-05
3.063701E+03	2.968638E-04	1.389058E-05
3.073648E+03	3.000008E-04	1.398692E-05
3.083595E+03	3.032026E-04	1.408502E-05
3.093542E+03	3.065169E-04	1.418704E-05
3.103489E+03	3.099460E-04	1.429302E-05
3.113437E+03	3.134456E-04	1.440087E-05
3.123384E+03	3.170644E-04	1.451277E-05
3.133331E+03	3.208052E-04	1.462878E-05
3.143278E+03	3.246229E-04	1.474678E-05
3.153225E+03	3.285677E-04	1.486900E-05
3.163172E+03	3.326426E-04	1.499549E-05
3.173119E+03	3.368017E-04	1.512413E-05
3.183066E+03	3.410966E-04	1.525716E-05
3.193013E+03	3.455800E-04	1.539686E-05
3.202960E+03	3.501566E-04	1.553889E-05
3.212907E+03	3.548791E-04	1.568552E-05
3.222854E+03	3.598018E-04	1.583906E-05
3.232801E+03	3.648274E-04	1.599512E-05
3.242749E+03	3.700615E-04	1.615826E-05
3.252696E+03	3.754573E-04	1.632630E-05
3.262643E+03	3.810188E-04	1.649934E-05
3.272590E+03	3.867500E-04	1.667744E-05
3.282537E+03	3.927081E-04	1.686296E-05
3.292484E+03	3.988451E-04	1.705371E-05
3.302431E+03	4.052192E-04	1.725206E-05
3.312378E+03	4.117816E-04	1.745580E-05
3.322325E+03	4.185914E-04	1.766732E-05
3.332272E+03	4.255992E-04	1.788438E-05
3.342219E+03	4.328650E-04	1.810937E-05
3.352166E+03	4.403948E-04	1.834240E-05
3.362114E+03	4.481940E-04	1.858351E-05
3.372061E+03	4.562687E-04	1.883282E-05
3.382008E+03	4.645666E-04	1.908798E-05
3.391955E+03	4.732089E-04	1.935383E-05
3.401902E+03	4.821439E-04	1.962806E-05
3.411849E+03	4.913767E-04	1.991067E-05
3.421796E+03	5.009135E-04	2.020175E-05
3.431743E+03	5.108203E-04	2.050375E-05
3.441690E+03	5.210428E-04	2.081428E-05
3.451637E+03	5.316495E-04	2.113587E-05
3.461584E+03	5.425853E-04	2.146609E-05
3.471531E+03	5.539198E-04	2.180749E-05
3.481479E+03	5.655972E-04	2.215763E-05
3.491426E+03	5.777541E-04	2.252161E-05
3.501373E+03	5.902699E-04	2.289446E-05
3.511320E+03	6.032178E-04	2.327879E-05
3.521267E+03	6.166728E-04	2.367719E-05
3.531214E+03	6.305104E-04	2.408460E-05
3.541161E+03	6.448720E-04	2.450616E-05
3.551108E+03	6.596989E-04	2.493930E-05
3.561055E+03	6.749975E-04	2.538398E-05
3.571002E+03	6.908441E-04	2.584275E-05
3.580949E+03	7.072463E-04	2.631554E-05
3.590896E+03	7.241381E-04	2.679957E-05
3.600844E+03	7.415958E-04	2.729732E-05
3.610791E+03	7.596229E-04	2.780856E-05
3.620738E+03	7.782234E-04	2.833307E-05
3.630685E+03	7.973977E-04	2.887049E-05
3.640632E+03	8.171464E-04	2.942049E-05
3.650579E+03	8.374664E-04	2.998257E-05
3.660526E+03	8.584323E-04	3.055902E-05
3.670473E+03	8.799612E-04	3.114649E-05
3.680420E+03	9.021244E-04	3.174712E-05
3.690367E+03	9.248320E-04	3.235735E-05
3.700314E+03	9.481513E-04	3.297918E-05
3.710261E+03	9.720673E-04	3.361167E-05
3.720208E+03	9.965627E-04	3.425385E-05
3.730156E+03	1.021616E-03	3.490459E-05
3.740103E+03	1.047285E-03	3.556552E-05
3.750050E+03	1.073374E-03	3.622960E-05
3.759997E+03	1.100020E-03	3.690113E-05
3.769944E+03	1.127186E-03	3.757854E-05
3.779891E+03	1.154746E-03	3.825731E-05
3.789838E+03	1.182742E-03	3.893855E-05
3.799785E+03	1.211125E-03	3.962035E-05
3.809732E+03	1.239841E-03	4.030071E-05
3.819679E+03	1.268832E-03	4.097753E-05
3.829626E+03	1.298124E-03	4.165149E-05
3.839573E+03	1.327562E-03	4.231739E-05
3.849521E+03	1.357073E-03	4.297287E-05
3.859468E+03	1.386674E-03	4.361833E-05
3.869415E+03	1.416283E-03	4.425125E-05
3.879362E+03	1.445821E-03	4.486908E-05
3.889309E+03	1.475201E-03	4.546922E-05
3.899256E+03	1.504335E-03	4.604907E-05
3.909203E+03	1.533133E-03	4.660607E-05
3.919150E+03	1.561597E-03	4.714046E-05
3.929097E+03	1.589543E-03	4.764696E-05
3.939044E+03	1.617063E-03	4.812866E-05
3.948991E+03	1.643884E-03	4.857776E-05
3.958938E+03	1.670010E-03	4.899485E-05
3.968886E+03	1.695356E-03	4.937790E-05
3.978833E+03	1.719931E-03	4.972771E-05
3.988780E+03	1.743568E-03	5.004001E-05
3.998727E+03	1.766287E-03	5.031597E-05
4.008674E+03	1.787935E-03	5.055189E-05
4.018621E+03	1.808632E-03	5.075189E-05
4.028568E+03	1.828155E-03	5.091035E-05
4.038515E+03	1.846553E-03	5.102944E-05
4.048462E+03	1.863882E-03	5.111147E-05
4.058409E+03	1.880037E-03	5.115429E-05
4.068356E+03	1.895010E-03	5.115849E-05
4.078303E+03	1.908971E-03	5.112943E-05
4.088251E+03	1.921764E-03	5.106367E-05
4.098198E+03	1.933417E-03	5.096273E-05
4.108145E+03	1.944125E-03	5.083251E-05
4.118092E+03	1.953852E-03	5.067274E-05
4.128039E+03	1.962654E-03	5.048554E-05
4.137986E+03	1.970596E-03	5.027323E-05
4.147933E+03	1.977754E-03	5.003832E-05
4.157880E+03	1.984286E-03	4.978535E-05
4.167827E+03	1.990207E-03	4.951519E-05
4.177774E+03	1.995691E-03	4.923253E-05
4.187721E+03	2.000769E-03	4.893856E-05
4.197668E+03	2.005625E-03	4.863800E-05
4.207615E+03	2.010373E-03	4.833386E-05
4.217563E+03	2.015068E-03	4.802756E-05
4.227510E+03	2.019837E-03	4.772227E-05
4.237457E+03	2.024941E-03	4.742412E-05
4.247404E+03	2.030382E-03	4.713302E-05
4.257351E+03	2.036299E-03	4.685207E-05
4.267298E+03	2.042891E-03	4.658564E-05
4.277245E+03	2.050239E-03	4.633521E-05
4.287192E+03	2.058544E-03	4.610497E-05
4.297139E+03	2.067889E-03	4.589627E-05
4.307086E+03	2.078417E-03	4.571176E-05
4.317033E+03	2.090268E-03	4.555392E-05
4.326980E+03	2.103579E-03	4.542502E-05
4.336928E+03	2.118420E-03	4.532591E-05
4.346875E+03	2.134966E-03	4.525947E-05
4.356822E+03	2.153260E-03	4.522583E-05
4.366769E+03	2.173387E-03	4.522589E-05
4.376716E+03	2.195356E-03	4.525897E-05
4.386663E+03	2.219315E-03	4.532726E-05
4.396610E+03	2.245130E-03	4.542715E-05
4.406557E+03	2.272865E-03	4.555909E-05
4.416504E+03	2.302517E-03	4.572218E-05
4.426451E+03	2.334017E-03	4.591434E-05
4.436398E+03	2.367292E-03	4.613337E-05
4.446345E+03	2.402411E-03	4.637997E-05
4.456293E+03	2.439180E-03	4.664975E-05
4.466240E+03	2.477600E-03	4.694222E-05
4.476187E+03	2.517565E-03	4.725488E-05
4.486134E+03	2.558958E-03	4.758513E-05
4.496081E+03	2.601755E-03	4.793220E-05
4.506028E+03	2.645822E-03	4.829333E-05
4.515975E+03	2.691018E-03	4.866575E-05
4.525922E+03	2.737243E-03	4.904758E-05
4.535869E+03	2.784337E-03	4.943595E-05
4.545816E+03	2.832185E-03	4.982893E-05
4.555763E+03	2.880613E-03	5.022361E-05
4.565710E+03	2.929488E-03	5.061800E-05
4.575658E+03	2.978569E-03	5.100832E-05
4.585605E+03	3.027815E-03	5.139435E-05
4.595552E+03	3.076920E-03	5.177147E-05
4.605499E+03	3.125728E-03	5.213776E-05
4.615446E+03	3.174076E-03	5.249131E-05
4.625393E+03	3.221750E-03	5.282939E-05
4.635340E+03	3.268578E-03	5.315019E-05
4.645287E+03	3.314338E-03	5.345110E-05
4.655234E+03	3.358803E-03	5.372960E-05
4.665181E+03	3.401750E-03	5.398331E-05
4.675128E+03	3.443067E-03	5.421169E-05
4.685075E+03	3.482504E-03	5.441210E-05
4.695022E+03	3.519997E-03	5.458488E-05
4.704970E+03	3.555319E-03	5.472787E-05
4.714917E+03	3.588555E-03	5.484368E-05
4.724864E+03	3.619623E-03	5.493239E-05
4.734811E+03	3.648523E-03	5.499527E-05
4.744758E+03	3.675382E-03	5.503543E-05
4.754705E+03	3.700232E-03	5.505450E-05
4.764652E+03	3.723113E-03	5.505414E-05
4.774599E+03	3.744118E-03	5.503676E-05
4.784546E+03	3.763294E-03	5.500398E-05
4.794493E+03	3.780741E-03	5.495810E-05
4.804440E+03	3.796562E-03	5.490107E-05
4.814387E+03	3.810812E-03	5.483381E-05
4.824335E+03	3.823647E-03	5.475863E-05
4.834282E+03	3.835022E-03	5.467484E-05
4.844229E+03	3.845188E-03	5.458596E-05
4.854176E+03	3.854096E-03	5.449116E-05
4.864123E+03	3.861893E-03	5.439233E-05
4.874070E+03	3.868673E-03	5.429058E-05
4.884017E+03	3.874527E-03	5.418689E-05
4.893964E+03	3.879496E-03	5.408154E-05
4.903911E+03	3.883713E-03	5.397602E-05
4.913858E+03	3.887211E-03	5.387044E-05
4.923805E+03	3.890070E-03	5.376551E-05
4.933752E+03	3.892411E-03	5.366251E-05
4.943700E+03	3.894261E-03	5.356136E-05
4.953647E+03	3.895736E-03	5.346323E-05
4.963594E+03	3.896856E-03	5.336796E-05
4.973541E+03	3.897730E-03	5.327659E-05
4.983488E+03	3.898422E-03	5.318952E-05
4.993435E+03	3.898988E-03	5.310709E-05
5.003382E+03	3.899530E-03	5.303022E-05
5.013329E+03	3.900056E-03	5.295858E-05
5.023276E+03	3.900661E-03	5.289299E-05
5.033223E+03	3.901348E-03	5.283308E-05
5.043170E+03	3.902294E-03	5.278081E-05
5.053117E+03	3.903451E-03	5.273510E-05
5.063064E+03	3.904901E-03	5.269664E-05
5.073012E+03	3.906719E-03	5.266606E-05
5.082959E+03	3.908935E-03	5.264337E-05
5.092906E+03	3.911574E-03	5.262850E-05
5.102853E+03	3.914697E-03	5.262193E-05
5.112800E+03	3.918364E-03	5.262409E-05
5.122747E+03	3.922539E-03	5.263417E-05
5.132694E+03	3.927272E-03	5.265249E-05
5.142641E+03	3.932602E-03	5.267925E-05
5.152588E+03	3.938525E-03	5.271410E-05
5.162535E+03	3.945070E-03	5.275710E-05
5.172482E+03	3.952218E-03	5.280775E-05
5.182429E+03	3.959992E-03	5.286605E-05
5.192377E+03	3.968361E-03	5.293133E-05
5.202324E+03	3.977337E-03	5.300349E-05
5.212271E+03	3.986925E-03	5.308237E-05
5.222218E+03	3.997086E-03	5.316719E-05
5.232165E+03	4.007774E-03	5.325714E-05
5.242112E+03	4.018986E-03	5.335196E-05
5.252059E+03	4.030717E-03	5.345137E-05
5.262006E+03	4.042960E-03	5.355511E-05
5.271953E+03	4.055620E-03	5.366174E-05
5.281900E+03	4.068691E-03	5.377100E-05
5.291847E+03	4.082211E-03	5.388324E-05
5.301794E+03	4.096086E-03	5.399707E-05
5.311742E+03	4.110315E-03	5.411235E-05
5.321689E+03	4.124897E-03	5.422894E-05
5.331636E+03	4.139792E-03	5.434620E-05
5.341583E+03	4.154963E-03	5.446352E-05
5.351530E+03	4.170419E-03	5.458095E-05
5.361477E+03	4.186217E-03	5.469915E-05
5.371424E+03	4.202240E-03	5.481653E-05
5.381371E+03	4.218552E-03	5.493384E-05
5.391318E+03	4.235127E-03	5.505069E-05
5.401265E+03	4.251939E-03	5.516673E-05
5.411212E+03	4.269008E-03	5.528216E-05
5.421159E+03	4.286302E-03	5.539657E-05
5.431107E+03	4.303835E-03	5.551011E-05
5.441054E+03	4.321526E-03	5.562176E-05
5.451001E+03	4.339433E-03	5.573226E-05
5.460948E+03	4.357490E-03	5.584079E-05
5.470895E+03	4.375742E-03	5.594796E-05
5.480842E+03	4.394209E-03	5.605409E-05
5.490789E+03	4.412931E-03	5.615973E-05
5.500736E+03	4.431960E-03	5.626556E-05
5.510683E+03	4.451385E-03	5.637278E-05
5.520630E+03	4.471205E-03	5.648116E-05
5.530577E+03	4.491450E-03	5.659091E-05
5.540524E+03	4.512240E-03	5.670329E-05
5.550471E+03	4.533461E-03	5.681667E-05
5.560419E+03	4.555269E-03	5.693279E-05
5.570366E+03	4.577543E-03	5.704994E-05
5.580313E+03	4.600435E-03	5.716979E-05
5.590260E+03	4.623820E-03	5.729063E-05
5.600207E+03	4.647759E-03	5.741299E-05
5.610154E+03	4.672306E-03	5.753738E-05
5.620101E+03	4.697385E-03	5.766266E-05
5.630048E+03	4.723006E-03	5.778881E-05
5.639995E+03	4.749180E-03	5.791580E-05
5.649942E+03	4.775919E-03	5.804363E-05
5.659889E+03	4.803232E-03	5.817227E-05
5.669836E+03	4.831036E-03	5.830061E-05
5.679784E+03	4.859431E-03	5.842972E-05
5.689731E+03	4.888284E-03	5.855794E-05
5.699678E+03	4.917643E-03	5.868575E-05
5.709625E+03	4.947463E-03	5.881256E-05
5.719572E+03	4.977740E-03	5.893828E-05
5.729519E+03	5.008419E-03	5.906227E-05
5.739466E+03	5.039488E-03	5.918437E-05
5.749413E+03	5.070883E-03	5.930388E-05
5.759360E+03	5.102537E-03	5.942005E-05
5.769307E+03	5.134418E-03	5.953265E-05
5.779254E+03	5.166448E-03	5.964087E-05
5.789201E+03	5.198538E-03	5.974387E-05
5.799149E+03	5.230643E-03	5.984131E-05
5.809096E+03	5.262664E-03	5.993234E-05
5.819043E+03	5.294541E-03	6.001653E-05
5.828990E+03	5.326126E-03	6.009255E-05
5.838937E+03	5.357342E-03	6.015991E-05
5.848884E+03	5.388081E-03	6.021783E-05
5.858831E+03	5.418217E-03	6.026538E-05
5.868778E+03	5.447683E-03	6.030236E-05
5.878725E+03	5.476349E-03	6.032789E-05
5.888672E+03	5.504050E-03	6.034081E-05
5.898619E+03	5.530708E-03	6.034096E-05
5.908566E+03	5.556211E-03	6.032786E-05
5.918514E+03	5.580490E-03	6.030155E-05
5.928461E+03	5.603384E-03	6.026115E-05
5.938408E+03	5.624830E-03	6.020685E-05
5.948355E+03	5.644730E-03	6.013854E-05
5.958302E+03	5.662939E-03	6.005566E-05
5.968249E+03	5.679465E-03	5.995932E-05
5.978196E+03	5.694173E-03	5.984912E-05
5.988143E+03	5.707034E-03	5.972583E-05
5.998090E+03	5.717934E-03	5.958935E-05
6.008037E+03	5.726842E-03	5.944049E-05
6.017984E+03	5.733703E-03	5.927978E-05
6.027931E+03	5.738514E-03	5.910833E-05
6.037878E+03	5.741213E-03	5.892662E-05
6.047826E+03	5.741759E-03	5.873535E-05
6.057773E+03	5.740101E-03	5.853511E-05
6.067720E+03	5.736248E-03	5.832704E-05
6.077667E+03	5.730195E-03	5.811218E-05
6.087614E+03	5.721914E-03	5.789123E-05
6.097561E+03	5.711364E-03	5.766474E-05
6.107508E+03	5.698548E-03	5.743365E-05
6.117455E+03	5.683479E-03	5.719896E-05
6.127402E+03	5.666236E-03	5.696223E-05
6.137349E+03	5.646709E-03	5.672307E-05
6.147296E+03	5.625058E-03	5.648368E-05
6.157243E+03	5.601384E-03	5.624557E-05
6.167191E+03	5.575804E-03	5.600958E-05
6.177138E+03	5.548574E-03	5.577744E-05
6.187085E+03	5.519947E-03	5.555083E-05
6.197032E+03	5.490199E-03	5.533158E-05
6.206979E+03	5.459658E-03	5.512208E-05
6.216926E+03	5.428613E-03	5.492426E-05
6.226873E+03	5.397381E-03	5.474039E-05
6.236820E+03	5.366272E-03	5.457270E-05
6.246767E+03	5.335493E-03	5.442238E-05
6.256714E+03	5.305415E-03	5.429235E-05
6.266661E+03	5.276210E-03	5.418358E-05
6.276608E+03	5.248169E-03	5.409830E-05
6.286556E+03	5.221474E-03	5.403767E-05
6.296503E+03	5.196376E-03	5.400366E-05
6.306450E+03	5.173015E-03	5.399715E-05
6.316397E+03	5.151598E-03	5.401982E-05
6.326344E+03	5.132264E-03	5.407266E-05
6.336291E+03	5.115081E-03	5.415603E-05
6.346238E+03	5.100179E-03	5.427098E-05
6.356185E+03	5.087614E-03	5.441787E-05
6.366132E+03	5.077369E-03	5.459629E-05
6.376079E+03	5.069480E-03	5.480648E-05
6.386026E+03	5.063952E-03	5.504835E-05
6.395973E+03	5.060617E-03	5.531999E-05
6.405921E+03	5.059405E-03	5.562055E-05
6.415868E+03	5.060114E-03	5.594772E-05
6.425815E+03	5.062638E-03	5.630026E-05
6.435762E+03	5.066645E-03	5.667431E-05
6.445709E+03	5.071856E-03	5.706636E-05
6.455656E+03	5.077948E-03	5.747237E-05
6.465603E+03	5.084567E-03	5.788790E-05
6.475550E+03	5.091340E-03	5.830813E-05
6.485497E+03	5.097839E-03	5.872763E-05
6.495444E+03	5.103658E-03	5.914103E-05
6.505391E+03	5.108479E-03	5.954394E-05
6.515338E+03	5.112030E-03	5.993245E-05
6.525285E+03	5.114038E-03	6.030254E-05
6.535233E+03	5.114256E-03	6.065047E-05
6.545180E+03	5.112505E-03	6.097327E-05
6.555127E+03	5.108621E-03	6.126811E-05
6.565074E+03	5.102310E-03	6.153059E-05
6.575021E+03	5.093542E-03	6.175942E-05
6.584968E+03	5.082062E-03	6.195066E-05
6.594915E+03	5.067794E-03	6.210248E-05
6.604862E+03	5.050644E-03	6.221283E-05
6.614809E+03	5.030604E-03	6.228078E-05
6.624756E+03	5.007654E-03	6.230526E-05
6.634703E+03	4.981763E-03	6.228512E-05
6.644650E+03	4.953041E-03	6.222097E-05
6.654598E+03	4.921536E-03	6.211273E-05
6.664545E+03	4.887476E-03	6.196269E-05
6.674492E+03	4.850930E-03	6.177115E-05
6.684439E+03	4.812140E-03	6.154072E-05
6.694386E+03	4.771371E-03	6.127438E-05
6.704333E+03	4.728766E-03	6.097361E-05
6.714280E+03	4.684624E-03	6.064203E-05
6.724227E+03	4.639206E-03	6.028282E-05
6.734174E+03	4.592779E-03	5.989933E-05
6.744121E+03	4.545610E-03	5.949498E-05
6.754068E+03	4.497963E-03	5.907325E-05
6.764015E+03	4.450093E-03	5.863756E-05
6.773963E+03	4.402200E-03	5.819065E-05
6.783910E+03	4.354565E-03	5.773641E-05
6.793857E+03	4.307406E-03	5.727794E-05
6.803804E+03	4.260879E-03	5.681757E-05
6.813751E+03	4.215217E-03	5.635865E-05
6.823698E+03	4.170542E-03	5.590313E-05
6.833645E+03	4.127005E-03	5.545335E-05
6.843592E+03	4.084784E-03	5.501202E-05
6.853539E+03	4.043907E-03	5.457987E-05
6.863486E+03	4.004561E-03	5.415978E-05
6.873433E+03	3.966789E-03	5.375268E-05
6.883380E+03	3.930619E-03	5.335930E-05
6.893327E+03	3.896151E-03	5.298136E-05
6.903275E+03	3.863433E-03	5.261986E-05
6.913222E+03	3.832501E-03	5.227565E-05
6.923169E+03	3.803298E-03	5.194827E-05
6.933116E+03	3.775928E-03	5.163949E-05
6.943063E+03	3.750362E-03	5.134925E-05
6.953010E+03	3.726647E-03	5.107851E-05
6.962957E+03	3.704705E-03	5.082651E-05
6.972904E+03	3.684574E-03	5.059408E-05
6.982851E+03	3.666249E-03	5.038148E-05
6.992798E+03	3.649683E-03	5.018832E-05
7.002745E+03	3.634907E-03	5.001535E-05
7.012692E+03	3.621870E-03	4.986215E-05
7.022640E+03	3.610601E-03	4.972940E-05
7.032587E+03	3.601047E-03	4.961665E-05
7.042534E+03	3.593152E-03	4.952342E-05
7.052481E+03	3.586984E-03	4.945093E-05
7.062428E+03	3.582445E-03	4.939811E-05
7.072375E+03	3.579560E-03	4.936561E-05
7.082322E+03	3.578312E-03	4.935347E-05
7.092269E+03	3.578640E-03	4.936114E-05
7.102216E+03	3.580523E-03	4.938866E-05
7.112163E+03	3.583979E-03	4.943658E-05
7.122110E+03	3.588900E-03	4.950373E-05
7.132057E+03	3.595341E-03	4.959122E-05
7.142005E+03	3.603188E-03	4.969781E-05
7.151952E+03	3.612447E-03	4.982397E-05
7.161899E+03	3.623038E-03	4.996896E-05
7.171846E+03	3.634961E-03	5.013318E-05
7.181793E+03	3.648127E-03	5.031584E-05
7.191740E+03	3.662529E-03	5.051726E-05
7.201687E+03	3.678024E-03	5.073595E-05
7.211634E+03	3.694640E-03	5.097277E-05
7.221581E+03	3.712225E-03	5.122613E-05
7.231528E+03	3.730752E-03	5.149620E-05
7.241475E+03	3.750104E-03	5.178191E-05
7.251422E+03	3.770246E-03	5.208337E-05
7.261370E+03	3.791050E-03	5.239942E-05
7.271317E+03	3.812428E-03	5.272947E-05
7.281264E+03	3.834334E-03	5.307353E-05
7.291211E+03	3.856577E-03	5.342966E-05
7.301158E+03	3.879104E-03	5.379781E-05
7.311105E+03	3.901808E-03	5.417723E-05
7.321052E+03	3.924582E-03	5.456712E-05
7.330999E+03	3.947312E-03	5.496668E-05
7.340946E+03	3.969782E-03	5.537364E-05
7.350893E+03	3.991967E-03	5.578841E-05
7.360840E+03	4.013742E-03	5.621000E-05
7.370787E+03	4.034927E-03	5.663663E-05
7.380734E+03	4.055385E-03	5.706712E-05
7.390682E+03	4.074979E-03	5.750025E-05
7.400629E+03	4.093615E-03	5.793539E-05
7.410576E+03	4.111047E-03	5.836971E-05
7.420523E+03	4.127229E-03	5.880318E-05
7.430470E+03	4.141966E-03	5.923356E-05
7.440417E+03	4.155117E-03	5.965937E-05
7.450364E+03	4.166557E-03	6.007921E-05
7.460311E+03	4.176183E-03	6.049198E-05
7.470258E+03	4.183985E-03	6.089780E-05
7.480205E+03	4.189893E-03	6.129549E-05
7.490152E+03	4.193940E-03	6.168495E-05
7.500099E+03	4.196254E-03	6.206743E-05
7.510047E+03	4.196880E-03	6.244294E-05
7.519994E+03	4.195990E-03	6.281330E-05
7.529941E+03	4.193705E-03	6.317965E-05
7.539888E+03	4.190149E-03	6.354309E-05
7.549835E+03	4.185388E-03	6.390389E-05
7.559782E+03	4.179645E-03	6.426473E-05
7.569729E+03	4.172974E-03	6.462572E-05
7.579676E+03	4.165532E-03	6.498856E-05
7.589623E+03	4.157300E-03	6.535230E-05
7.599570E+03	4.148529E-03	6.572016E-05
7.609517E+03	4.139188E-03	6.609099E-05
7.619464E+03	4.129343E-03	6.646524E-05
7.629412E+03	4.119169E-03	6.684507E-05
7.639359E+03	4.108665E-03	6.722988E-05
7.649306E+03	4.097880E-03	6.761990E-05
7.659253E+03	4.086857E-03	6.801528E-05
7.669200E+03	4.075686E-03	6.841701E-05
7.679147E+03	4.064345E-03	6.882420E-05
7.689094E+03	4.052860E-03	6.923680E-05
7.699041E+03	4.041310E-03	6.965567E-05
7.708988E+03	4.029712E-03	7.008069E-05
7.718935E+03	4.018084E-03	7.051170E-05
