#wls	flux	fluxerr
1.591533E+03	6.502561E-05	3.908873E-06
1.631321E+03	6.641429E-05	3.975941E-06
1.671110E+03	6.783514E-05	4.043818E-06
1.710898E+03	6.931162E-05	4.113836E-06
1.750686E+03	7.079574E-05	4.183081E-06
1.790475E+03	7.227938E-05	4.251031E-06
1.830263E+03	7.379916E-05	4.319791E-06
1.870051E+03	7.531739E-05	4.387096E-06
1.909840E+03	7.679340E-05	4.450551E-06
1.949628E+03	7.826253E-05	4.512190E-06
1.989416E+03	7.967656E-05	4.569212E-06
2.029205E+03	8.111908E-05	4.626396E-06
2.068993E+03	8.262881E-05	4.685869E-06
2.108781E+03	8.439508E-05	4.758197E-06
2.148570E+03	8.653526E-05	4.849654E-06
2.188358E+03	8.909517E-05	4.962353E-06
2.228146E+03	9.209595E-05	5.096959E-06
2.267935E+03	9.544500E-05	5.247832E-06
2.307723E+03	9.899071E-05	5.406224E-06
2.347511E+03	1.027195E-04	5.571086E-06
2.387300E+03	1.065709E-04	5.738843E-06
2.427088E+03	1.105658E-04	5.910366E-06
2.466876E+03	1.146818E-04	6.084188E-06
2.506665E+03	1.189320E-04	6.260735E-06
2.546453E+03	1.233639E-04	6.442199E-06
2.586241E+03	1.279643E-04	6.627536E-06
2.626030E+03	1.327826E-04	6.818946E-06
2.665818E+03	1.378375E-04	7.016947E-06
2.705606E+03	1.431127E-04	7.220260E-06
2.745395E+03	1.486590E-04	7.430968E-06
2.785183E+03	1.544579E-04	7.647626E-06
2.824971E+03	1.605983E-04	7.874059E-06
2.864759E+03	1.670251E-04	8.106923E-06
2.904548E+03	1.738302E-04	8.350040E-06
2.944336E+03	1.809554E-04	8.599876E-06
2.984124E+03	1.884563E-04	8.858365E-06
2.994072E+03	1.904102E-04	8.925179E-06
3.004019E+03	1.923840E-04	8.992306E-06
3.013966E+03	1.943781E-04	9.059741E-06
3.023913E+03	1.963930E-04	9.127502E-06
3.033860E+03	1.984304E-04	9.195658E-06
3.043807E+03	2.004923E-04	9.264282E-06
3.053754E+03	2.026204E-04	9.335293E-06
3.063701E+03	2.047306E-04	9.404785E-06
3.073648E+03	2.069071E-04	9.476627E-06
3.083595E+03	2.091077E-04	9.548857E-06
3.093542E+03	2.113322E-04	9.621455E-06
3.103489E+03	2.135805E-04	9.694402E-06
3.113437E+03	2.158524E-04	9.767681E-06
3.123384E+03	2.181480E-04	9.841273E-06
3.133331E+03	2.205116E-04	9.917158E-06
3.143278E+03	2.228992E-04	9.993341E-06
3.153225E+03	2.252660E-04	1.006780E-05
3.163172E+03	2.277015E-04	1.014452E-05
3.173119E+03	2.301612E-04	1.022150E-05
3.183066E+03	2.326907E-04	1.030075E-05
3.193013E+03	2.351989E-04	1.037821E-05
3.202960E+03	2.377776E-04	1.045792E-05
3.212907E+03	2.403345E-04	1.053581E-05
3.222854E+03	2.429627E-04	1.061594E-05
3.232801E+03	2.456159E-04	1.069626E-05
3.242749E+03	2.482940E-04	1.077677E-05
3.252696E+03	2.509972E-04	1.085744E-05
3.262643E+03	2.537738E-04	1.094035E-05
3.272590E+03	2.565277E-04	1.102134E-05
3.282537E+03	2.593557E-04	1.110455E-05
3.292484E+03	2.622096E-04	1.118789E-05
3.302431E+03	2.650896E-04	1.127135E-05
3.312378E+03	2.679955E-04	1.135492E-05
3.322325E+03	2.709276E-04	1.143858E-05
3.332272E+03	2.739361E-04	1.152444E-05
3.342219E+03	2.769714E-04	1.161037E-05
3.352166E+03	2.799824E-04	1.169422E-05
3.362114E+03	2.830708E-04	1.178025E-05
3.372061E+03	2.861859E-04	1.186629E-05
3.382008E+03	2.893276E-04	1.195235E-05
3.391955E+03	2.925482E-04	1.204054E-05
3.401902E+03	2.957431E-04	1.212655E-05
3.411849E+03	2.990174E-04	1.221466E-05
3.421796E+03	3.023185E-04	1.230272E-05
3.431743E+03	3.056462E-04	1.239068E-05
3.441690E+03	3.090003E-04	1.247853E-05
3.451637E+03	3.123807E-04	1.256624E-05
3.461584E+03	3.158418E-04	1.265598E-05
3.471531E+03	3.193294E-04	1.274555E-05
3.481479E+03	3.227877E-04	1.283270E-05
3.491426E+03	3.263269E-04	1.292183E-05
3.501373E+03	3.298919E-04	1.301070E-05
3.511320E+03	3.335386E-04	1.310151E-05
3.521267E+03	3.371542E-04	1.318979E-05
3.531214E+03	3.408515E-04	1.327996E-05
3.541161E+03	3.445738E-04	1.336976E-05
3.551108E+03	3.482627E-04	1.345694E-05
3.561055E+03	3.520917E-04	1.354817E-05
3.571002E+03	3.558863E-04	1.363670E-05
3.580949E+03	3.597042E-04	1.372476E-05
3.590896E+03	3.636042E-04	1.381455E-05
3.600844E+03	3.674675E-04	1.390154E-05
3.610791E+03	3.714127E-04	1.399021E-05
3.620738E+03	3.753800E-04	1.407829E-05
3.630685E+03	3.794297E-04	1.416800E-05
3.640632E+03	3.834399E-04	1.425477E-05
3.650579E+03	3.874708E-04	1.434085E-05
3.660526E+03	3.915836E-04	1.442849E-05
3.670473E+03	3.957169E-04	1.451539E-05
3.680420E+03	3.998702E-04	1.460151E-05
3.690367E+03	4.040429E-04	1.468683E-05
3.700314E+03	4.082982E-04	1.477362E-05
3.710261E+03	4.125093E-04	1.485727E-05
3.720208E+03	4.168030E-04	1.494236E-05
3.730156E+03	4.210511E-04	1.502426E-05
3.740103E+03	4.253821E-04	1.510756E-05
3.750050E+03	4.297967E-04	1.519225E-05
3.759997E+03	4.341650E-04	1.527370E-05
3.769944E+03	4.385516E-04	1.535422E-05
3.779891E+03	4.430228E-04	1.543610E-05
3.789838E+03	4.475132E-04	1.551703E-05
3.799785E+03	4.520232E-04	1.559701E-05
3.809732E+03	4.565525E-04	1.567604E-05
3.819679E+03	4.611019E-04	1.575412E-05
3.829626E+03	4.656716E-04	1.583126E-05
3.839573E+03	4.703310E-04	1.590980E-05
3.849521E+03	4.750126E-04	1.598741E-05
3.859468E+03	4.797176E-04	1.606415E-05
3.869415E+03	4.844466E-04	1.614001E-05
3.879362E+03	4.892006E-04	1.621502E-05
3.889309E+03	4.939814E-04	1.628923E-05
3.899256E+03	4.988600E-04	1.636497E-05
3.909203E+03	5.036980E-04	1.643766E-05
3.919150E+03	5.086380E-04	1.651198E-05
3.929097E+03	5.136116E-04	1.658565E-05
3.939044E+03	5.186206E-04	1.665874E-05
3.948991E+03	5.236674E-04	1.673130E-05
3.958938E+03	5.288272E-04	1.680571E-05
3.968886E+03	5.339579E-04	1.687743E-05
3.978833E+03	5.392075E-04	1.695114E-05
3.988780E+03	5.445069E-04	1.702462E-05
3.998727E+03	5.498593E-04	1.709796E-05
4.008674E+03	5.552683E-04	1.717125E-05
4.018621E+03	5.607378E-04	1.724460E-05
4.028568E+03	5.662723E-04	1.731812E-05
4.038515E+03	5.719515E-04	1.739421E-05
4.048462E+03	5.776291E-04	1.746838E-05
4.058409E+03	5.834619E-04	1.754537E-05
4.068356E+03	5.893794E-04	1.762301E-05
4.078303E+03	5.953872E-04	1.770142E-05
4.088251E+03	6.014913E-04	1.778076E-05
4.098198E+03	6.077754E-04	1.786346E-05
4.108145E+03	6.140899E-04	1.794506E-05
4.118092E+03	6.205974E-04	1.803029E-05
4.128039E+03	6.272267E-04	1.811703E-05
4.137986E+03	6.339042E-04	1.820310E-05
4.147933E+03	6.407960E-04	1.829325E-05
4.157880E+03	6.478282E-04	1.838530E-05
4.167827E+03	6.550888E-04	1.848168E-05
4.177774E+03	6.624219E-04	1.857792E-05
4.187721E+03	6.699138E-04	1.867642E-05
4.197668E+03	6.776530E-04	1.877959E-05
4.207615E+03	6.855625E-04	1.888519E-05
4.217563E+03	6.935624E-04	1.899099E-05
4.227510E+03	7.018243E-04	1.910164E-05
4.237457E+03	7.102680E-04	1.921487E-05
4.247404E+03	7.188967E-04	1.933072E-05
4.257351E+03	7.277986E-04	1.945148E-05
4.267298E+03	7.368022E-04	1.957249E-05
4.277245E+03	7.459945E-04	1.969605E-05
4.287192E+03	7.554641E-04	1.982443E-05
4.297139E+03	7.651234E-04	1.995523E-05
4.307086E+03	7.748813E-04	2.008607E-05
4.317033E+03	7.849164E-04	2.022152E-05
4.326980E+03	7.951383E-04	2.035919E-05
4.336928E+03	8.055464E-04	2.049903E-05
4.346875E+03	8.161408E-04	2.064099E-05
4.356822E+03	8.269224E-04	2.078506E-05
4.366769E+03	8.379892E-04	2.093366E-05
4.376716E+03	8.491572E-04	2.108213E-05
4.386663E+03	8.605275E-04	2.123299E-05
4.396610E+03	8.722071E-04	2.138882E-05
4.406557E+03	8.840113E-04	2.154504E-05
4.416504E+03	8.961484E-04	2.170670E-05
4.426451E+03	9.085308E-04	2.187161E-05
4.436398E+03	9.210690E-04	2.203759E-05
4.446345E+03	9.339751E-04	2.220967E-05
4.456293E+03	9.471569E-04	2.238560E-05
4.466240E+03	9.606229E-04	2.256551E-05
4.476187E+03	9.743781E-04	2.274949E-05
4.486134E+03	9.884264E-04	2.293758E-05
4.496081E+03	1.002769E-03	2.312976E-05
4.506028E+03	1.017404E-03	2.332595E-05
4.515975E+03	1.032437E-03	2.352844E-05
4.525922E+03	1.047642E-03	2.373201E-05
4.535869E+03	1.063119E-03	2.393881E-05
4.545816E+03	1.078854E-03	2.414847E-05
4.555763E+03	1.094947E-03	2.436309E-05
4.565710E+03	1.111150E-03	2.457710E-05
4.575658E+03	1.127675E-03	2.479509E-05
4.585605E+03	1.144265E-03	2.501136E-05
4.595552E+03	1.161131E-03	2.523047E-05
4.605499E+03	1.178009E-03	2.544662E-05
4.615446E+03	1.195113E-03	2.566439E-05
4.625393E+03	1.212171E-03	2.587790E-05
4.635340E+03	1.229400E-03	2.609176E-05
4.645287E+03	1.246523E-03	2.630008E-05
4.655234E+03	1.263759E-03	2.650750E-05
4.665181E+03	1.280827E-03	2.670808E-05
4.675128E+03	1.297950E-03	2.690651E-05
4.685075E+03	1.314970E-03	2.709952E-05
4.695022E+03	1.331723E-03	2.728375E-05
4.704970E+03	1.348435E-03	2.746390E-05
4.714917E+03	1.364804E-03	2.763386E-05
4.724864E+03	1.381056E-03	2.779829E-05
4.734811E+03	1.396882E-03	2.795100E-05
4.744758E+03	1.412508E-03	2.809666E-05
4.754705E+03	1.427621E-03	2.822907E-05
4.764652E+03	1.442448E-03	2.835291E-05
4.774599E+03	1.456671E-03	2.846201E-05
4.784546E+03	1.470524E-03	2.856109E-05
4.794493E+03	1.483684E-03	2.864404E-05
4.804440E+03	1.496248E-03	2.871293E-05
4.814387E+03	1.508317E-03	2.876988E-05
4.824335E+03	1.519570E-03	2.880891E-05
4.834282E+03	1.530112E-03	2.883226E-05
4.844229E+03	1.539910E-03	2.883953E-05
4.854176E+03	1.548933E-03	2.883039E-05
4.864123E+03	1.557156E-03	2.880460E-05
4.874070E+03	1.564559E-03	2.876203E-05
4.884017E+03	1.571125E-03	2.870263E-05
4.893964E+03	1.576845E-03	2.862649E-05
4.903911E+03	1.581712E-03	2.853377E-05
4.913858E+03	1.585586E-03	2.842220E-05
4.923805E+03	1.588761E-03	2.829734E-05
4.933752E+03	1.591107E-03	2.815710E-05
4.943700E+03	1.592500E-03	2.799957E-05
4.953647E+03	1.593252E-03	2.783050E-05
4.963594E+03	1.593107E-03	2.764566E-05
4.973541E+03	1.592243E-03	2.744843E-05
4.983488E+03	1.590702E-03	2.723971E-05
4.993435E+03	1.588526E-03	2.702048E-05
5.003382E+03	1.585763E-03	2.679173E-05
5.013329E+03	1.582462E-03	2.655450E-05
5.023276E+03	1.578676E-03	2.630983E-05
5.033223E+03	1.574321E-03	2.605651E-05
5.043170E+03	1.569725E-03	2.580014E-05
5.053117E+03	1.564671E-03	2.553725E-05
5.063064E+03	1.559351E-03	2.527110E-05
5.073012E+03	1.553951E-03	2.500480E-05
5.082959E+03	1.548257E-03	2.473497E-05
5.092906E+03	1.542322E-03	2.446255E-05
5.102853E+03	1.536460E-03	2.419259E-05
5.112800E+03	1.530586E-03	2.392374E-05
5.122747E+03	1.524615E-03	2.365473E-05
5.132694E+03	1.518848E-03	2.339022E-05
5.142641E+03	1.513066E-03	2.312685E-05
5.152588E+03	1.507436E-03	2.286714E-05
5.162535E+03	1.501990E-03	2.261158E-05
5.172482E+03	1.496760E-03	2.236059E-05
5.182429E+03	1.491649E-03	2.211271E-05
5.192377E+03	1.486930E-03	2.187193E-05
5.202324E+03	1.482379E-03	2.163491E-05
5.212271E+03	1.478141E-03	2.140369E-05
5.222218E+03	1.474233E-03	2.117848E-05
5.232165E+03	1.470672E-03	2.095943E-05
5.242112E+03	1.467472E-03	2.074667E-05
5.252059E+03	1.464525E-03	2.053862E-05
5.262006E+03	1.461965E-03	2.033708E-05
5.271953E+03	1.459917E-03	2.014373E-05
5.281900E+03	1.458037E-03	1.995371E-05
5.291847E+03	1.456684E-03	1.977193E-05
5.301794E+03	1.455748E-03	1.959675E-05
5.311742E+03	1.455115E-03	1.942661E-05
5.321689E+03	1.454906E-03	1.926306E-05
5.331636E+03	1.455122E-03	1.910603E-05
5.341583E+03	1.455762E-03	1.895546E-05
5.351530E+03	1.456825E-03	1.881124E-05
5.361477E+03	1.458189E-03	1.867179E-05
5.371424E+03	1.459964E-03	1.853846E-05
5.381371E+03	1.462139E-03	1.841106E-05
5.391318E+03	1.464701E-03	1.828941E-05
5.401265E+03	1.467518E-03	1.817184E-05
5.411212E+03	1.470800E-03	1.806092E-05
5.421159E+03	1.474294E-03	1.795353E-05
5.431107E+03	1.478084E-03	1.785074E-05
5.441054E+03	1.482025E-03	1.775081E-05
5.451001E+03	1.486310E-03	1.765607E-05
5.460948E+03	1.490667E-03	1.756335E-05
5.470895E+03	1.495169E-03	1.747357E-05
5.480842E+03	1.499768E-03	1.738625E-05
5.490789E+03	1.504300E-03	1.729959E-05
5.500736E+03	1.508949E-03	1.721580E-05
5.510683E+03	1.513438E-03	1.713181E-05
5.520630E+03	1.517724E-03	1.704715E-05
5.530577E+03	1.522001E-03	1.696392E-05
5.540524E+03	1.526007E-03	1.687910E-05
5.550471E+03	1.529836E-03	1.679366E-05
5.560419E+03	1.533475E-03	1.670739E-05
5.570366E+03	1.536923E-03	1.662019E-05
5.580313E+03	1.540072E-03	1.653082E-05
5.590260E+03	1.543058E-03	1.644066E-05
5.600207E+03	1.545910E-03	1.634993E-05
5.610154E+03	1.548669E-03	1.625896E-05
5.620101E+03	1.551267E-03	1.616694E-05
5.630048E+03	1.553878E-03	1.607556E-05
5.639995E+03	1.556564E-03	1.598535E-05
5.649942E+03	1.559279E-03	1.589567E-05
5.659889E+03	1.562208E-03	1.580829E-05
5.669836E+03	1.565424E-03	1.572377E-05
5.679784E+03	1.569001E-03	1.564267E-05
5.689731E+03	1.573009E-03	1.556549E-05
5.699678E+03	1.577401E-03	1.549156E-05
5.709625E+03	1.582357E-03	1.542245E-05
5.719572E+03	1.587818E-03	1.535737E-05
5.729519E+03	1.593952E-03	1.529773E-05
5.739466E+03	1.600919E-03	1.524482E-05
5.749413E+03	1.608409E-03	1.519542E-05
5.759360E+03	1.616796E-03	1.515288E-05
5.769307E+03	1.625871E-03	1.511495E-05
5.779254E+03	1.635762E-03	1.508261E-05
5.789201E+03	1.646356E-03	1.505459E-05
5.799149E+03	1.657887E-03	1.503279E-05
5.809096E+03	1.670112E-03	1.501476E-05
5.819043E+03	1.683133E-03	1.500124E-05
5.828990E+03	1.696814E-03	1.499080E-05
5.838937E+03	1.711252E-03	1.498414E-05
5.848884E+03	1.726425E-03	1.498086E-05
5.858831E+03	1.742309E-03	1.498061E-05
5.868778E+03	1.758756E-03	1.498198E-05
5.878725E+03	1.775868E-03	1.498573E-05
5.888672E+03	1.793625E-03	1.499157E-05
5.898619E+03	1.811881E-03	1.499823E-05
5.908566E+03	1.830749E-03	1.500660E-05
5.918514E+03	1.850220E-03	1.501655E-05
5.928461E+03	1.870153E-03	1.502695E-05
5.938408E+03	1.890804E-03	1.503986E-05
5.948355E+03	1.911903E-03	1.505317E-05
5.958302E+03	1.933438E-03	1.506688E-05
5.968249E+03	1.955529E-03	1.508205E-05
5.978196E+03	1.978160E-03	1.509869E-05
5.988143E+03	2.001301E-03	1.511675E-05
5.998090E+03	2.024914E-03	1.513617E-05
6.008037E+03	2.048803E-03	1.515575E-05
6.017984E+03	2.072890E-03	1.517530E-05
6.027931E+03	2.097376E-03	1.519668E-05
6.037878E+03	2.121862E-03	1.521744E-05
6.047826E+03	2.146365E-03	1.523827E-05
6.057773E+03	2.170591E-03	1.525770E-05
6.067720E+03	2.194682E-03	1.527741E-05
6.077667E+03	2.218015E-03	1.529384E-05
6.087614E+03	2.240872E-03	1.530980E-05
6.097561E+03	2.262777E-03	1.532293E-05
6.107508E+03	2.283723E-03	1.533418E-05
6.117455E+03	2.303570E-03	1.534363E-05
6.127402E+03	2.322041E-03	1.535050E-05
6.137349E+03	2.339213E-03	1.535639E-05
6.147296E+03	2.355044E-03	1.536213E-05
6.157243E+03	2.369539E-03	1.536883E-05
6.167191E+03	2.382590E-03	1.537682E-05
6.177138E+03	2.394467E-03	1.538889E-05
6.187085E+03	2.405169E-03	1.540599E-05
6.197032E+03	2.415073E-03	1.543143E-05
6.206979E+03	2.424440E-03	1.546773E-05
6.216926E+03	2.433576E-03	1.551759E-05
6.226873E+03	2.442652E-03	1.558283E-05
6.236820E+03	2.452205E-03	1.566754E-05
6.246767E+03	2.462625E-03	1.577446E-05
6.256714E+03	2.474147E-03	1.590474E-05
6.266661E+03	2.487345E-03	1.606170E-05
6.276608E+03	2.502622E-03	1.624760E-05
6.286556E+03	2.520196E-03	1.646356E-05
6.296503E+03	2.540603E-03	1.671286E-05
6.306450E+03	2.564184E-03	1.699761E-05
6.316397E+03	2.591244E-03	1.731980E-05
6.326344E+03	2.621867E-03	1.768005E-05
6.336291E+03	2.656434E-03	1.808108E-05
6.346238E+03	2.695096E-03	1.852417E-05
6.356185E+03	2.737747E-03	1.900890E-05
6.366132E+03	2.784566E-03	1.953689E-05
6.376079E+03	2.835463E-03	2.010792E-05
6.386026E+03	2.890049E-03	2.071962E-05
6.395973E+03	2.948208E-03	2.137152E-05
6.405921E+03	3.009512E-03	2.206080E-05
6.415868E+03	3.073187E-03	2.278199E-05
6.425815E+03	3.138948E-03	2.353295E-05
6.435762E+03	3.205309E-03	2.430239E-05
6.445709E+03	3.271925E-03	2.508720E-05
6.455656E+03	3.337238E-03	2.587474E-05
6.465603E+03	3.400232E-03	2.665605E-05
6.475550E+03	3.459578E-03	2.741933E-05
6.485497E+03	3.513649E-03	2.814991E-05
6.495444E+03	3.561503E-03	2.883812E-05
6.505391E+03	3.601032E-03	2.946443E-05
6.515338E+03	3.631652E-03	3.002121E-05
6.525285E+03	3.651694E-03	3.049166E-05
6.535233E+03	3.660412E-03	3.086622E-05
6.545180E+03	3.657045E-03	3.113508E-05
6.555127E+03	3.640860E-03	3.128853E-05
6.565074E+03	3.611920E-03	3.132366E-05
6.575021E+03	3.570355E-03	3.123830E-05
6.584968E+03	3.516606E-03	3.103324E-05
6.594915E+03	3.451176E-03	3.071008E-05
6.604862E+03	3.375307E-03	3.027740E-05
6.614809E+03	3.290216E-03	2.974410E-05
6.624756E+03	3.197072E-03	2.911908E-05
6.634703E+03	3.097597E-03	2.841682E-05
6.644650E+03	2.993332E-03	2.765071E-05
6.654598E+03	2.885817E-03	2.683463E-05
6.664545E+03	2.776343E-03	2.598061E-05
6.674492E+03	2.666502E-03	2.510389E-05
6.684439E+03	2.557557E-03	2.421698E-05
6.694386E+03	2.450451E-03	2.332969E-05
6.704333E+03	2.346480E-03	2.245539E-05
6.714280E+03	2.246104E-03	2.159965E-05
6.724227E+03	2.149975E-03	2.076994E-05
6.734174E+03	2.058868E-03	1.997505E-05
6.744121E+03	1.972838E-03	1.921679E-05
6.754068E+03	1.892252E-03	1.849996E-05
6.764015E+03	1.817222E-03	1.782686E-05
6.773963E+03	1.747657E-03	1.719774E-05
6.783910E+03	1.683641E-03	1.661444E-05
6.793857E+03	1.625073E-03	1.607697E-05
6.803804E+03	1.571809E-03	1.558476E-05
6.813751E+03	1.523573E-03	1.513585E-05
6.823698E+03	1.480282E-03	1.473010E-05
6.833645E+03	1.441728E-03	1.436607E-05
6.843592E+03	1.407702E-03	1.404216E-05
6.853539E+03	1.377896E-03	1.375577E-05
6.863486E+03	1.352203E-03	1.350618E-05
6.873433E+03	1.330421E-03	1.329166E-05
6.883380E+03	1.312359E-03	1.311053E-05
6.893327E+03	1.297745E-03	1.296026E-05
6.903275E+03	1.286500E-03	1.284015E-05
6.913222E+03	1.278461E-03	1.274866E-05
6.923169E+03	1.273479E-03	1.268430E-05
6.933116E+03	1.271322E-03	1.264478E-05
6.943063E+03	1.272034E-03	1.263044E-05
6.953010E+03	1.275313E-03	1.263820E-05
6.962957E+03	1.281038E-03	1.266675E-05
6.972904E+03	1.289271E-03	1.271657E-05
6.982851E+03	1.299721E-03	1.278461E-05
6.992798E+03	1.312369E-03	1.287051E-05
7.002745E+03	1.327105E-03	1.297299E-05
7.012692E+03	1.343821E-03	1.309080E-05
7.022640E+03	1.362310E-03	1.322174E-05
7.032587E+03	1.382552E-03	1.336538E-05
7.042534E+03	1.404427E-03	1.352038E-05
7.052481E+03	1.427812E-03	1.368538E-05
7.062428E+03	1.452474E-03	1.385797E-05
7.072375E+03	1.478476E-03	1.403860E-05
7.082322E+03	1.505465E-03	1.422382E-05
7.092269E+03	1.533385E-03	1.441302E-05
7.102216E+03	1.561955E-03	1.460352E-05
7.112163E+03	1.591212E-03	1.479568E-05
7.122110E+03	1.620740E-03	1.498571E-05
7.132057E+03	1.650440E-03	1.517281E-05
7.142005E+03	1.680089E-03	1.535514E-05
7.151952E+03	1.709452E-03	1.553084E-05
7.161899E+03	1.738158E-03	1.569687E-05
7.171846E+03	1.766064E-03	1.585242E-05
7.181793E+03	1.792901E-03	1.599558E-05
7.191740E+03	1.818390E-03	1.612448E-05
7.201687E+03	1.842249E-03	1.623733E-05
7.211634E+03	1.864067E-03	1.633129E-05
7.221581E+03	1.883828E-03	1.640712E-05
7.231528E+03	1.901004E-03	1.646113E-05
7.241475E+03	1.915478E-03	1.649337E-05
7.251422E+03	1.926891E-03	1.650177E-05
7.261370E+03	1.935322E-03	1.648813E-05
7.271317E+03	1.940339E-03	1.644988E-05
7.281264E+03	1.941966E-03	1.638832E-05
7.291211E+03	1.940136E-03	1.630399E-05
7.301158E+03	1.934833E-03	1.619776E-05
7.311105E+03	1.926093E-03	1.607091E-05
7.321052E+03	1.913869E-03	1.592393E-05
7.330999E+03	1.898439E-03	1.575992E-05
7.340946E+03	1.880133E-03	1.558225E-05
7.350893E+03	1.858779E-03	1.539003E-05
7.360840E+03	1.835056E-03	1.518928E-05
7.370787E+03	1.809137E-03	1.498167E-05
7.380734E+03	1.781223E-03	1.476897E-05
7.390682E+03	1.751792E-03	1.455517E-05
7.400629E+03	1.721326E-03	1.434412E-05
7.410576E+03	1.689807E-03	1.413547E-05
7.420523E+03	1.657959E-03	1.393495E-05
7.430470E+03	1.625996E-03	1.374403E-05
7.440417E+03	1.594122E-03	1.356399E-05
7.450364E+03	1.562867E-03	1.339861E-05
7.460311E+03	1.532272E-03	1.324735E-05
7.470258E+03	1.502692E-03	1.311246E-05
7.480205E+03	1.474227E-03	1.299411E-05
7.490152E+03	1.447269E-03	1.289513E-05
7.500099E+03	1.421853E-03	1.281534E-05
7.510047E+03	1.397994E-03	1.275447E-05
7.519994E+03	1.375887E-03	1.271402E-05
7.529941E+03	1.355603E-03	1.269446E-05
7.539888E+03	1.337185E-03	1.269616E-05
7.549835E+03	1.320661E-03	1.271941E-05
7.559782E+03	1.305940E-03	1.276347E-05
7.569729E+03	1.293207E-03	1.283036E-05
7.579676E+03	1.282240E-03	1.291819E-05
7.589623E+03	1.273094E-03	1.302783E-05
7.599570E+03	1.265803E-03	1.316007E-05
7.609517E+03	1.260012E-03	1.331165E-05
7.619464E+03	1.255918E-03	1.348509E-05
7.629412E+03	1.253329E-03	1.367881E-05
7.639359E+03	1.252041E-03	1.389107E-05
7.649306E+03	1.252124E-03	1.412306E-05
7.659253E+03	1.253260E-03	1.437165E-05
7.669200E+03	1.255408E-03	1.463673E-05
7.679147E+03	1.258427E-03	1.491700E-05
7.689094E+03	1.262172E-03	1.521101E-05
7.699041E+03	1.266495E-03	1.551722E-05
7.708988E+03	1.271251E-03	1.583399E-05
7.718935E+03	1.276197E-03	1.615832E-05
