#wls	flux	fluxerr
1.591533E+03	9.154638E-02	1.809231E-03
1.631321E+03	9.713894E-02	1.912229E-03
1.671110E+03	1.029231E-01	2.017922E-03
1.710898E+03	1.088722E-01	2.125706E-03
1.750686E+03	1.149525E-01	2.234845E-03
1.790475E+03	1.211204E-01	2.344426E-03
1.830263E+03	1.273230E-01	2.453361E-03
1.870051E+03	1.334968E-01	2.560380E-03
1.909840E+03	1.395665E-01	2.664015E-03
1.949628E+03	1.454455E-01	2.762602E-03
1.989416E+03	1.510309E-01	2.854205E-03
2.029205E+03	1.561806E-01	2.936199E-03
2.068993E+03	1.606604E-01	3.004290E-03
2.108781E+03	1.642050E-01	3.053711E-03
2.148570E+03	1.666830E-01	3.082287E-03
2.188358E+03	1.679041E-01	3.086835E-03
2.228146E+03	1.675830E-01	3.062532E-03
2.267935E+03	1.655444E-01	3.006697E-03
2.307723E+03	1.620068E-01	2.923863E-03
2.347511E+03	1.573827E-01	2.821963E-03
2.387300E+03	1.520437E-01	2.708028E-03
2.427088E+03	1.463047E-01	2.587918E-03
2.466876E+03	1.404399E-01	2.466640E-03
2.506665E+03	1.346971E-01	2.348601E-03
2.546453E+03	1.292960E-01	2.237597E-03
2.586241E+03	1.243699E-01	2.135827E-03
2.626030E+03	1.199655E-01	2.043933E-03
2.665818E+03	1.160316E-01	1.960869E-03
2.705606E+03	1.124501E-01	1.884491E-03
2.745395E+03	1.091052E-01	1.812757E-03
2.785183E+03	1.059228E-01	1.744366E-03
2.824971E+03	1.028650E-01	1.678656E-03
2.864759E+03	9.991611E-02	1.615342E-03
2.904548E+03	9.707063E-02	1.554310E-03
2.944336E+03	9.432711E-02	1.495512E-03
2.984124E+03	9.168450E-02	1.438908E-03
2.994072E+03	9.103940E-02	1.425093E-03
3.004019E+03	9.040019E-02	1.411407E-03
3.013966E+03	8.976722E-02	1.397854E-03
3.023913E+03	8.914040E-02	1.384434E-03
3.033860E+03	8.851926E-02	1.371137E-03
3.043807E+03	8.790387E-02	1.357965E-03
3.053754E+03	8.729451E-02	1.344922E-03
3.063701E+03	8.669050E-02	1.331997E-03
3.073648E+03	8.609206E-02	1.319193E-03
3.083595E+03	8.549917E-02	1.306510E-03
3.093542E+03	8.491140E-02	1.293939E-03
3.103489E+03	8.432887E-02	1.281484E-03
3.113437E+03	8.375122E-02	1.269137E-03
3.123384E+03	8.317849E-02	1.256901E-03
3.133331E+03	8.261040E-02	1.244768E-03
3.143278E+03	8.204693E-02	1.232741E-03
3.153225E+03	8.148793E-02	1.220815E-03
3.163172E+03	8.093306E-02	1.208985E-03
3.173119E+03	8.038236E-02	1.197253E-03
3.183066E+03	7.983553E-02	1.185612E-03
3.193013E+03	7.929231E-02	1.174060E-03
3.202960E+03	7.875281E-02	1.162597E-03
3.212907E+03	7.821663E-02	1.151218E-03
3.222854E+03	7.768366E-02	1.139921E-03
3.232801E+03	7.715359E-02	1.128701E-03
3.242749E+03	7.662659E-02	1.117560E-03
3.252696E+03	7.610240E-02	1.106495E-03
3.262643E+03	7.558055E-02	1.095499E-03
3.272590E+03	7.506137E-02	1.084577E-03
3.282537E+03	7.454419E-02	1.073718E-03
3.292484E+03	7.402940E-02	1.062929E-03
3.302431E+03	7.351662E-02	1.052204E-03
3.312378E+03	7.300563E-02	1.041540E-03
3.322325E+03	7.249660E-02	1.030939E-03
3.332272E+03	7.198945E-02	1.020401E-03
3.342219E+03	7.148411E-02	1.009925E-03
3.352166E+03	7.098035E-02	9.995061E-04
3.362114E+03	7.047824E-02	9.891470E-04
3.372061E+03	6.997813E-02	9.788522E-04
3.382008E+03	6.947955E-02	9.686152E-04
3.391955E+03	6.898287E-02	9.584413E-04
3.401902E+03	6.848798E-02	9.483289E-04
3.411849E+03	6.799478E-02	9.382767E-04
3.421796E+03	6.750372E-02	9.282911E-04
3.431743E+03	6.701456E-02	9.183685E-04
3.441690E+03	6.652798E-02	9.085187E-04
3.451637E+03	6.604381E-02	8.987389E-04
3.461584E+03	6.556243E-02	8.890344E-04
3.471531E+03	6.508450E-02	8.794140E-04
3.481479E+03	6.461058E-02	8.698851E-04
3.491426E+03	6.414111E-02	8.604533E-04
3.501373E+03	6.367641E-02	8.511224E-04
3.511320E+03	6.321698E-02	8.418987E-04
3.521267E+03	6.276235E-02	8.327758E-04
3.531214E+03	6.231275E-02	8.237558E-04
3.541161E+03	6.186744E-02	8.148291E-04
3.551108E+03	6.142615E-02	8.059913E-04
3.561055E+03	6.098795E-02	7.972302E-04
3.571002E+03	6.055229E-02	7.885384E-04
3.580949E+03	6.011801E-02	7.799009E-04
3.590896E+03	5.968440E-02	7.713085E-04
3.600844E+03	5.925056E-02	7.627497E-04
3.610791E+03	5.881522E-02	7.542087E-04
3.620738E+03	5.837773E-02	7.456775E-04
3.630685E+03	5.793732E-02	7.371472E-04
3.640632E+03	5.749313E-02	7.286076E-04
3.650579E+03	5.704492E-02	7.200562E-04
3.660526E+03	5.659217E-02	7.114878E-04
3.670473E+03	5.613468E-02	7.029006E-04
3.680420E+03	5.567240E-02	6.942950E-04
3.690367E+03	5.520588E-02	6.856789E-04
3.700314E+03	5.473512E-02	6.770532E-04
3.710261E+03	5.426108E-02	6.684307E-04
3.720208E+03	5.378411E-02	6.598164E-04
3.730156E+03	5.330532E-02	6.512247E-04
3.740103E+03	5.282530E-02	6.426634E-04
3.750050E+03	5.234528E-02	6.341477E-04
3.759997E+03	5.186571E-02	6.256834E-04
3.769944E+03	5.138810E-02	6.172888E-04
3.779891E+03	5.091265E-02	6.089664E-04
3.789838E+03	5.044051E-02	6.007297E-04
3.799785E+03	4.997235E-02	5.925866E-04
3.809732E+03	4.950862E-02	5.845417E-04
3.819679E+03	4.905001E-02	5.766030E-04
3.829626E+03	4.859701E-02	5.687756E-04
3.839573E+03	4.815022E-02	5.610659E-04
3.849521E+03	4.770966E-02	5.534734E-04
3.859468E+03	4.727616E-02	5.460071E-04
3.869415E+03	4.684965E-02	5.386651E-04
3.879362E+03	4.643070E-02	5.314533E-04
3.889309E+03	4.601927E-02	5.243703E-04
3.899256E+03	4.561563E-02	5.174181E-04
3.909203E+03	4.521974E-02	5.105955E-04
3.919150E+03	4.483163E-02	5.039015E-04
3.929097E+03	4.445080E-02	4.973300E-04
3.939044E+03	4.407711E-02	4.908782E-04
3.948991E+03	4.370970E-02	4.845357E-04
3.958938E+03	4.334781E-02	4.782936E-04
3.968886E+03	4.299035E-02	4.721391E-04
3.978833E+03	4.263621E-02	4.660597E-04
3.988780E+03	4.228383E-02	4.600380E-04
3.998727E+03	4.193194E-02	4.540604E-04
4.008674E+03	4.157935E-02	4.481140E-04
4.018621E+03	4.122485E-02	4.421862E-04
4.028568E+03	4.086734E-02	4.362657E-04
4.038515E+03	4.050660E-02	4.303510E-04
4.048462E+03	4.014242E-02	4.244404E-04
4.058409E+03	3.977551E-02	4.185421E-04
4.068356E+03	3.940686E-02	4.126671E-04
4.078303E+03	3.903865E-02	4.068385E-04
4.088251E+03	3.867302E-02	4.010788E-04
4.098198E+03	3.831325E-02	3.954213E-04
4.108145E+03	3.796308E-02	3.899039E-04
4.118092E+03	3.762615E-02	3.845626E-04
4.128039E+03	3.730680E-02	3.794394E-04
4.137986E+03	3.700917E-02	3.745740E-04
4.147933E+03	3.673708E-02	3.700018E-04
4.157880E+03	3.649408E-02	3.657546E-04
4.167827E+03	3.628311E-02	3.618578E-04
4.177774E+03	3.610601E-02	3.583250E-04
4.187721E+03	3.596405E-02	3.551640E-04
4.197668E+03	3.585752E-02	3.523729E-04
4.207615E+03	3.578535E-02	3.499363E-04
4.217563E+03	3.574587E-02	3.478332E-04
4.227510E+03	3.573593E-02	3.460288E-04
4.237457E+03	3.575212E-02	3.444862E-04
4.247404E+03	3.579015E-02	3.431612E-04
4.257351E+03	3.584469E-02	3.419999E-04
4.267298E+03	3.591080E-02	3.409538E-04
4.277245E+03	3.598256E-02	3.399657E-04
4.287192E+03	3.605428E-02	3.389816E-04
4.297139E+03	3.612008E-02	3.379472E-04
4.307086E+03	3.617374E-02	3.368057E-04
4.317033E+03	3.620922E-02	3.355034E-04
4.326980E+03	3.622060E-02	3.339885E-04
4.336928E+03	3.620173E-02	3.322082E-04
4.346875E+03	3.614707E-02	3.301164E-04
4.356822E+03	3.605189E-02	3.276752E-04
4.366769E+03	3.591332E-02	3.248642E-04
4.376716E+03	3.573029E-02	3.216799E-04
4.386663E+03	3.550478E-02	3.181456E-04
4.396610E+03	3.524000E-02	3.142956E-04
4.406557E+03	3.494038E-02	3.101744E-04
4.416504E+03	3.461084E-02	3.058296E-04
4.426451E+03	3.425619E-02	3.013073E-04
4.436398E+03	3.388140E-02	2.966540E-04
4.446345E+03	3.349085E-02	2.919102E-04
4.456293E+03	3.308894E-02	2.871156E-04
4.466240E+03	3.267980E-02	2.823072E-04
4.476187E+03	3.226730E-02	2.775188E-04
4.486134E+03	3.185468E-02	2.727783E-04
4.496081E+03	3.144533E-02	2.681144E-04
4.506028E+03	3.104218E-02	2.635512E-04
4.515975E+03	3.064780E-02	2.591094E-04
4.525922E+03	3.026493E-02	2.548110E-04
4.535869E+03	2.989557E-02	2.506712E-04
4.545816E+03	2.954199E-02	2.467072E-04
4.555763E+03	2.920593E-02	2.429317E-04
4.565710E+03	2.888905E-02	2.393562E-04
4.575658E+03	2.859324E-02	2.359942E-04
4.585605E+03	2.831970E-02	2.328536E-04
4.595552E+03	2.806930E-02	2.299389E-04
4.605499E+03	2.784307E-02	2.272564E-04
4.615446E+03	2.764232E-02	2.248143E-04
4.625393E+03	2.746805E-02	2.226185E-04
4.635340E+03	2.732123E-02	2.206741E-04
4.645287E+03	2.720241E-02	2.189824E-04
4.655234E+03	2.711104E-02	2.175364E-04
4.665181E+03	2.704626E-02	2.163265E-04
4.675128E+03	2.700707E-02	2.153421E-04
4.685075E+03	2.699114E-02	2.145625E-04
4.695022E+03	2.699661E-02	2.139707E-04
4.704970E+03	2.702058E-02	2.135422E-04
4.714917E+03	2.705919E-02	2.132448E-04
4.724864E+03	2.710838E-02	2.130454E-04
4.734811E+03	2.716408E-02	2.129112E-04
4.744758E+03	2.722224E-02	2.128098E-04
4.754705E+03	2.727866E-02	2.127081E-04
4.764652E+03	2.732955E-02	2.125763E-04
4.774599E+03	2.737141E-02	2.123875E-04
4.784546E+03	2.740121E-02	2.121184E-04
4.794493E+03	2.741605E-02	2.117468E-04
4.804440E+03	2.741425E-02	2.112604E-04
4.814387E+03	2.739438E-02	2.106487E-04
4.824335E+03	2.735585E-02	2.099076E-04
4.834282E+03	2.729847E-02	2.090361E-04
4.844229E+03	2.722277E-02	2.080388E-04
4.854176E+03	2.712974E-02	2.069236E-04
4.864123E+03	2.702054E-02	2.056996E-04
4.874070E+03	2.689655E-02	2.043777E-04
4.884017E+03	2.675984E-02	2.029735E-04
4.893964E+03	2.661193E-02	2.014986E-04
4.903911E+03	2.645507E-02	1.999699E-04
4.913858E+03	2.629090E-02	1.983999E-04
4.923805E+03	2.612171E-02	1.968053E-04
4.933752E+03	2.594956E-02	1.952015E-04
4.943700E+03	2.577599E-02	1.935995E-04
4.953647E+03	2.560289E-02	1.920133E-04
4.963594E+03	2.543203E-02	1.904556E-04
4.973541E+03	2.526503E-02	1.889379E-04
4.983488E+03	2.510310E-02	1.874687E-04
4.993435E+03	2.494747E-02	1.860568E-04
5.003382E+03	2.479891E-02	1.847072E-04
5.013329E+03	2.465819E-02	1.834250E-04
5.023276E+03	2.452603E-02	1.822152E-04
5.033223E+03	2.440210E-02	1.810746E-04
5.043170E+03	2.428687E-02	1.800062E-04
5.053117E+03	2.417980E-02	1.790053E-04
5.063064E+03	2.408078E-02	1.780709E-04
5.073012E+03	2.398915E-02	1.771975E-04
5.082959E+03	2.390410E-02	1.763787E-04
5.092906E+03	2.382517E-02	1.756107E-04
5.102853E+03	2.375141E-02	1.748861E-04
5.112800E+03	2.368200E-02	1.741986E-04
5.122747E+03	2.361592E-02	1.735404E-04
5.132694E+03	2.355237E-02	1.729053E-04
5.142641E+03	2.349078E-02	1.722889E-04
5.152588E+03	2.342979E-02	1.716810E-04
5.162535E+03	2.336918E-02	1.710798E-04
5.172482E+03	2.330816E-02	1.704795E-04
5.182429E+03	2.324629E-02	1.698765E-04
5.192377E+03	2.318296E-02	1.692664E-04
5.202324E+03	2.311792E-02	1.686470E-04
5.212271E+03	2.305096E-02	1.680171E-04
5.222218E+03	2.298199E-02	1.673757E-04
5.232165E+03	2.291074E-02	1.667207E-04
5.242112E+03	2.283747E-02	1.660540E-04
5.252059E+03	2.276181E-02	1.653729E-04
5.262006E+03	2.268413E-02	1.646800E-04
5.271953E+03	2.260488E-02	1.639784E-04
5.281900E+03	2.252390E-02	1.632671E-04
5.291847E+03	2.244179E-02	1.625501E-04
5.301794E+03	2.235877E-02	1.618293E-04
5.311742E+03	2.227579E-02	1.611112E-04
5.321689E+03	2.219337E-02	1.603997E-04
5.331636E+03	2.211188E-02	1.596973E-04
5.341583E+03	2.203226E-02	1.590108E-04
5.351530E+03	2.195522E-02	1.583453E-04
5.361477E+03	2.188090E-02	1.577016E-04
5.371424E+03	2.180954E-02	1.570815E-04
5.381371E+03	2.174102E-02	1.564839E-04
5.391318E+03	2.167416E-02	1.559005E-04
5.401265E+03	2.160655E-02	1.553138E-04
5.411212E+03	2.153713E-02	1.547161E-04
5.421159E+03	2.146668E-02	1.541133E-04
5.431107E+03	2.139512E-02	1.535045E-04
5.441054E+03	2.132223E-02	1.528880E-04
5.451001E+03	2.124813E-02	1.522647E-04
5.460948E+03	2.117280E-02	1.516343E-04
5.470895E+03	2.109671E-02	1.510000E-04
5.480842E+03	2.101869E-02	1.503533E-04
5.490789E+03	2.093778E-02	1.496874E-04
5.500736E+03	2.085427E-02	1.490042E-04
5.510683E+03	2.076822E-02	1.483042E-04
5.520630E+03	2.067994E-02	1.475895E-04
5.530577E+03	2.059054E-02	1.468679E-04
5.540524E+03	2.050080E-02	1.461449E-04
5.550471E+03	2.041133E-02	1.454249E-04
5.560419E+03	2.032327E-02	1.447158E-04
5.570366E+03	2.023775E-02	1.440257E-04
5.580313E+03	2.015552E-02	1.433598E-04
5.590260E+03	2.007775E-02	1.427265E-04
5.600207E+03	2.000539E-02	1.421322E-04
5.610154E+03	1.993955E-02	1.415849E-04
5.620101E+03	1.988104E-02	1.410901E-04
5.630048E+03	1.983053E-02	1.406526E-04
5.639995E+03	1.978851E-02	1.402757E-04
5.649942E+03	1.975567E-02	1.399641E-04
5.659889E+03	1.973174E-02	1.397159E-04
5.669836E+03	1.971639E-02	1.395286E-04
5.679784E+03	1.970911E-02	1.393985E-04
5.689731E+03	1.970887E-02	1.393183E-04
5.699678E+03	1.971453E-02	1.392799E-04
5.709625E+03	1.972422E-02	1.392699E-04
5.719572E+03	1.973630E-02	1.392769E-04
5.729519E+03	1.974900E-02	1.392883E-04
5.739466E+03	1.976007E-02	1.392883E-04
5.749413E+03	1.976752E-02	1.392630E-04
5.759360E+03	1.976996E-02	1.392027E-04
5.769307E+03	1.976555E-02	1.390945E-04
5.779254E+03	1.975316E-02	1.389307E-04
5.789201E+03	1.973158E-02	1.387029E-04
5.799149E+03	1.970058E-02	1.384096E-04
5.809096E+03	1.965936E-02	1.380455E-04
5.819043E+03	1.960840E-02	1.376141E-04
5.828990E+03	1.954795E-02	1.371174E-04
5.838937E+03	1.947849E-02	1.365589E-04
5.848884E+03	1.940066E-02	1.359432E-04
5.858831E+03	1.931513E-02	1.352753E-04
5.868778E+03	1.922264E-02	1.345604E-04
5.878725E+03	1.912430E-02	1.338067E-04
5.888672E+03	1.902019E-02	1.330147E-04
5.898619E+03	1.891098E-02	1.321892E-04
5.908566E+03	1.879719E-02	1.313341E-04
5.918514E+03	1.867846E-02	1.304469E-04
5.928461E+03	1.855555E-02	1.295332E-04
5.938408E+03	1.842790E-02	1.285892E-04
5.948355E+03	1.829563E-02	1.276157E-04
5.958302E+03	1.815837E-02	1.266104E-04
5.968249E+03	1.801650E-02	1.255761E-04
5.978196E+03	1.786974E-02	1.245108E-04
5.988143E+03	1.771837E-02	1.234166E-04
5.998090E+03	1.756206E-02	1.222915E-04
6.008037E+03	1.740180E-02	1.211423E-04
6.017984E+03	1.723750E-02	1.199684E-04
6.027931E+03	1.706985E-02	1.187749E-04
6.037878E+03	1.689943E-02	1.175658E-04
6.047826E+03	1.672687E-02	1.163455E-04
6.057773E+03	1.655281E-02	1.151185E-04
6.067720E+03	1.637811E-02	1.138909E-04
6.077667E+03	1.620336E-02	1.126668E-04
6.087614E+03	1.602881E-02	1.114479E-04
6.097561E+03	1.585483E-02	1.102367E-04
6.107508E+03	1.568140E-02	1.090329E-04
6.117455E+03	1.550859E-02	1.078368E-04
6.127402E+03	1.533589E-02	1.066446E-04
6.137349E+03	1.516324E-02	1.054558E-04
6.147296E+03	1.499049E-02	1.042691E-04
6.157243E+03	1.481808E-02	1.030874E-04
6.167191E+03	1.464605E-02	1.019108E-04
6.177138E+03	1.447430E-02	1.007383E-04
6.187085E+03	1.430287E-02	9.957027E-05
6.197032E+03	1.413242E-02	9.841106E-05
6.206979E+03	1.396382E-02	9.726651E-05
6.216926E+03	1.379785E-02	9.614192E-05
6.226873E+03	1.363575E-02	9.504589E-05
6.236820E+03	1.347840E-02	9.398440E-05
6.246767E+03	1.332709E-02	9.296631E-05
6.256714E+03	1.318247E-02	9.199615E-05
6.266661E+03	1.304593E-02	9.108356E-05
6.276608E+03	1.291797E-02	9.023198E-05
6.286556E+03	1.279955E-02	8.944803E-05
6.296503E+03	1.269121E-02	8.873563E-05
6.306450E+03	1.259312E-02	8.809587E-05
6.316397E+03	1.250559E-02	8.753102E-05
6.326344E+03	1.242827E-02	8.703865E-05
6.336291E+03	1.236096E-02	8.661738E-05
6.346238E+03	1.230303E-02	8.626276E-05
6.356185E+03	1.225364E-02	8.596884E-05
6.366132E+03	1.221159E-02	8.572725E-05
6.376079E+03	1.217637E-02	8.553444E-05
6.386026E+03	1.214648E-02	8.537967E-05
6.395973E+03	1.212101E-02	8.525667E-05
6.405921E+03	1.209918E-02	8.515979E-05
6.415868E+03	1.208012E-02	8.508287E-05
6.425815E+03	1.206315E-02	8.502111E-05
6.435762E+03	1.204779E-02	8.497106E-05
6.445709E+03	1.203398E-02	8.493214E-05
6.455656E+03	1.202183E-02	8.490518E-05
6.465603E+03	1.201099E-02	8.488755E-05
6.475550E+03	1.200198E-02	8.488291E-05
6.485497E+03	1.199460E-02	8.488976E-05
6.495444E+03	1.198878E-02	8.490754E-05
6.505391E+03	1.198433E-02	8.493497E-05
6.515338E+03	1.198047E-02	8.496636E-05
6.525285E+03	1.197673E-02	8.499834E-05
6.535233E+03	1.197228E-02	8.502492E-05
6.545180E+03	1.196626E-02	8.504000E-05
6.555127E+03	1.195814E-02	8.503965E-05
6.565074E+03	1.194708E-02	8.501788E-05
6.575021E+03	1.193261E-02	8.497116E-05
6.584968E+03	1.191458E-02	8.489846E-05
6.594915E+03	1.189257E-02	8.479658E-05
6.604862E+03	1.186669E-02	8.466620E-05
6.614809E+03	1.183668E-02	8.450551E-05
6.624756E+03	1.180262E-02	8.431491E-05
6.634703E+03	1.176465E-02	8.409525E-05
6.644650E+03	1.172316E-02	8.384940E-05
6.654598E+03	1.167818E-02	8.357744E-05
6.664545E+03	1.162999E-02	8.328134E-05
6.674492E+03	1.157914E-02	8.296490E-05
6.684439E+03	1.152573E-02	8.262893E-05
6.694386E+03	1.147012E-02	8.227599E-05
6.704333E+03	1.141271E-02	8.190880E-05
6.714280E+03	1.135386E-02	8.153007E-05
6.724227E+03	1.129396E-02	8.114254E-05
6.734174E+03	1.123341E-02	8.074909E-05
6.744121E+03	1.117280E-02	8.035399E-05
6.754068E+03	1.111207E-02	7.995684E-05
6.764015E+03	1.105181E-02	7.956188E-05
6.773963E+03	1.099216E-02	7.917018E-05
6.783910E+03	1.093389E-02	7.878741E-05
6.793857E+03	1.087691E-02	7.841285E-05
6.803804E+03	1.082174E-02	7.805031E-05
6.813751E+03	1.076844E-02	7.770039E-05
6.823698E+03	1.071752E-02	7.736673E-05
6.833645E+03	1.066899E-02	7.704952E-05
6.843592E+03	1.062329E-02	7.675202E-05
6.853539E+03	1.058039E-02	7.647405E-05
6.863486E+03	1.054067E-02	7.621851E-05
6.873433E+03	1.050380E-02	7.598305E-05
6.883380E+03	1.047031E-02	7.577154E-05
6.893327E+03	1.043999E-02	7.558265E-05
6.903275E+03	1.041282E-02	7.541629E-05
6.913222E+03	1.038892E-02	7.527344E-05
6.923169E+03	1.036769E-02	7.514985E-05
6.933116E+03	1.034913E-02	7.504553E-05
6.943063E+03	1.033291E-02	7.495827E-05
6.953010E+03	1.031842E-02	7.488380E-05
6.962957E+03	1.030567E-02	7.482217E-05
6.972904E+03	1.029369E-02	7.476648E-05
6.982851E+03	1.028192E-02	7.471272E-05
6.992798E+03	1.026996E-02	7.465817E-05
7.002745E+03	1.025720E-02	7.459839E-05
7.012692E+03	1.024279E-02	7.452737E-05
7.022640E+03	1.022635E-02	7.444234E-05
7.032587E+03	1.020710E-02	7.433775E-05
7.042534E+03	1.018456E-02	7.421011E-05
7.052481E+03	1.015833E-02	7.405668E-05
7.062428E+03	1.012815E-02	7.387560E-05
7.072375E+03	1.009413E-02	7.366767E-05
7.082322E+03	1.005606E-02	7.343139E-05
7.092269E+03	1.001387E-02	7.316643E-05
7.102216E+03	9.968340E-03	7.287844E-05
7.112163E+03	9.919449E-03	7.256735E-05
7.122110E+03	9.867982E-03	7.223894E-05
7.132057E+03	9.814545E-03	7.189773E-05
7.142005E+03	9.759816E-03	7.154876E-05
7.151952E+03	9.704248E-03	7.119541E-05
7.161899E+03	9.648766E-03	7.084454E-05
7.171846E+03	9.594015E-03	7.050101E-05
7.181793E+03	9.540379E-03	7.016774E-05
7.191740E+03	9.488629E-03	6.985050E-05
7.201687E+03	9.438769E-03	6.954947E-05
7.211634E+03	9.391837E-03	6.927242E-05
7.221581E+03	9.347639E-03	6.901809E-05
7.231528E+03	9.306321E-03	6.878771E-05
7.241475E+03	9.267905E-03	6.858160E-05
7.251422E+03	9.232293E-03	6.839923E-05
7.261370E+03	9.199508E-03	6.824092E-05
7.271317E+03	9.169026E-03	6.810297E-05
7.281264E+03	9.140232E-03	6.798097E-05
7.291211E+03	9.113131E-03	6.787513E-05
7.301158E+03	9.087018E-03	6.778033E-05
7.311105E+03	9.061373E-03	6.769285E-05
7.321052E+03	9.035715E-03	6.760919E-05
7.330999E+03	9.009558E-03	6.752582E-05
7.340946E+03	8.982265E-03	6.743805E-05
7.350893E+03	8.953916E-03	6.734652E-05
7.360840E+03	8.924013E-03	6.724754E-05
7.370787E+03	8.892165E-03	6.713819E-05
7.380734E+03	8.858785E-03	6.702157E-05
7.390682E+03	8.823755E-03	6.689680E-05
7.400629E+03	8.787122E-03	6.676424E-05
7.410576E+03	8.749795E-03	6.663079E-05
7.420523E+03	8.712436E-03	6.650149E-05
7.430470E+03	8.675460E-03	6.637939E-05
7.440417E+03	8.640626E-03	6.627788E-05
7.450364E+03	8.608554E-03	6.620175E-05
7.460311E+03	8.581207E-03	6.616619E-05
7.470258E+03	8.559703E-03	6.618002E-05
7.480205E+03	8.545184E-03	6.625238E-05
7.490152E+03	8.536022E-03	6.637100E-05
7.500099E+03	8.531581E-03	6.653118E-05
7.510047E+03	8.530702E-03	6.672414E-05
7.519994E+03	8.532584E-03	6.694379E-05
7.529941E+03	8.536516E-03	6.718468E-05
7.539888E+03	8.542110E-03	6.744385E-05
7.549835E+03	8.548564E-03	6.771504E-05
7.559782E+03	8.555346E-03	6.799404E-05
7.569729E+03	8.562195E-03	6.827875E-05
7.579676E+03	8.568380E-03	6.856329E-05
7.589623E+03	8.573438E-03	6.884384E-05
7.599570E+03	8.576890E-03	6.911641E-05
7.609517E+03	8.578518E-03	6.937905E-05
7.619464E+03	8.577625E-03	6.962588E-05
7.629412E+03	8.574015E-03	6.985505E-05
7.639359E+03	8.566805E-03	7.005902E-05
7.649306E+03	8.556081E-03	7.023811E-05
7.659253E+03	8.541527E-03	7.038932E-05
7.669200E+03	8.522382E-03	7.050592E-05
7.679147E+03	8.498925E-03	7.058970E-05
7.689094E+03	8.471038E-03	7.063918E-05
7.699041E+03	8.438184E-03	7.064932E-05
7.708988E+03	8.400899E-03	7.062405E-05
7.718935E+03	8.359047E-03	7.056166E-05
