#wls	flux	fluxerr
1.591533E+03	1.197354E-02	4.908662E-05
1.631321E+03	1.209713E-02	4.959327E-05
1.671110E+03	1.220284E-02	5.002660E-05
1.710898E+03	1.229133E-02	5.038934E-05
1.750686E+03	1.236314E-02	5.068374E-05
1.790475E+03	1.242006E-02	5.091706E-05
1.830263E+03	1.246441E-02	5.109886E-05
1.870051E+03	1.249986E-02	5.124420E-05
1.909840E+03	1.253071E-02	5.137064E-05
1.949628E+03	1.256260E-02	5.150136E-05
1.989416E+03	1.260116E-02	5.165943E-05
2.029205E+03	1.265216E-02	5.186846E-05
2.068993E+03	1.272004E-02	5.214673E-05
2.108781E+03	1.281347E-02	5.252973E-05
2.148570E+03	1.295082E-02	5.309281E-05
2.188358E+03	1.315356E-02	5.392395E-05
2.228146E+03	1.343748E-02	5.508788E-05
2.267935E+03	1.381425E-02	5.663246E-05
2.307723E+03	1.429066E-02	5.858549E-05
2.347511E+03	1.486048E-02	6.092148E-05
2.387300E+03	1.551458E-02	6.360299E-05
2.427088E+03	1.624275E-02	6.658818E-05
2.466876E+03	1.703155E-02	6.982186E-05
2.506665E+03	1.786319E-02	7.323121E-05
2.546453E+03	1.871035E-02	7.670416E-05
2.586241E+03	1.953587E-02	8.008840E-05
2.626030E+03	2.030587E-02	8.324504E-05
2.665818E+03	2.101123E-02	8.613668E-05
2.705606E+03	2.167019E-02	8.883811E-05
2.745395E+03	2.230889E-02	9.145647E-05
2.785183E+03	2.295186E-02	9.409233E-05
2.824971E+03	2.362108E-02	9.683583E-05
2.864759E+03	2.433384E-02	9.975777E-05
2.904548E+03	2.510556E-02	1.029215E-04
2.944336E+03	2.594925E-02	1.063802E-04
2.984124E+03	2.687555E-02	1.101776E-04
2.994072E+03	2.712145E-02	1.111856E-04
3.004019E+03	2.737303E-02	1.122170E-04
3.013966E+03	2.763091E-02	1.132742E-04
3.023913E+03	2.789496E-02	1.143566E-04
3.033860E+03	2.816532E-02	1.154650E-04
3.043807E+03	2.844213E-02	1.165998E-04
3.053754E+03	2.872550E-02	1.177615E-04
3.063701E+03	2.901558E-02	1.189507E-04
3.073648E+03	2.931248E-02	1.201678E-04
3.083595E+03	2.961610E-02	1.214125E-04
3.093542E+03	2.992679E-02	1.226862E-04
3.103489E+03	3.024420E-02	1.239874E-04
3.113437E+03	3.056894E-02	1.253187E-04
3.123384E+03	3.090062E-02	1.266784E-04
3.133331E+03	3.123936E-02	1.280671E-04
3.143278E+03	3.158526E-02	1.294851E-04
3.153225E+03	3.193818E-02	1.309319E-04
3.163172E+03	3.229797E-02	1.324069E-04
3.173119E+03	3.266494E-02	1.339113E-04
3.183066E+03	3.303893E-02	1.354445E-04
3.193013E+03	3.341974E-02	1.370056E-04
3.202960E+03	3.380692E-02	1.385929E-04
3.212907E+03	3.420101E-02	1.402085E-04
3.222854E+03	3.460126E-02	1.418493E-04
3.232801E+03	3.500766E-02	1.435153E-04
3.242749E+03	3.541968E-02	1.452044E-04
3.252696E+03	3.583725E-02	1.469162E-04
3.262643E+03	3.626003E-02	1.486494E-04
3.272590E+03	3.668765E-02	1.504025E-04
3.282537E+03	3.711917E-02	1.521715E-04
3.292484E+03	3.755440E-02	1.539558E-04
3.302431E+03	3.799256E-02	1.557520E-04
3.312378E+03	3.843309E-02	1.575580E-04
3.322325E+03	3.887511E-02	1.593700E-04
3.332272E+03	3.931740E-02	1.611832E-04
3.342219E+03	3.975946E-02	1.629954E-04
3.352166E+03	4.019992E-02	1.648011E-04
3.362114E+03	4.063784E-02	1.665963E-04
3.372061E+03	4.107114E-02	1.683727E-04
3.382008E+03	4.149897E-02	1.701266E-04
3.391955E+03	4.191956E-02	1.718508E-04
3.401902E+03	4.233133E-02	1.735388E-04
3.411849E+03	4.273208E-02	1.751817E-04
3.421796E+03	4.312009E-02	1.767724E-04
3.431743E+03	4.349336E-02	1.783026E-04
3.441690E+03	4.385024E-02	1.797656E-04
3.451637E+03	4.418906E-02	1.811546E-04
3.461584E+03	4.450880E-02	1.824654E-04
3.471531E+03	4.480817E-02	1.836927E-04
3.481479E+03	4.508691E-02	1.848354E-04
3.491426E+03	4.534621E-02	1.858984E-04
3.501373E+03	4.558762E-02	1.868881E-04
3.511320E+03	4.581204E-02	1.878081E-04
3.521267E+03	4.602007E-02	1.886609E-04
3.531214E+03	4.621282E-02	1.894510E-04
3.541161E+03	4.639064E-02	1.901800E-04
3.551108E+03	4.655413E-02	1.908503E-04
3.561055E+03	4.670417E-02	1.914653E-04
3.571002E+03	4.684061E-02	1.920246E-04
3.580949E+03	4.696432E-02	1.925318E-04
3.590896E+03	4.707511E-02	1.929860E-04
3.600844E+03	4.717228E-02	1.933843E-04
3.610791E+03	4.725481E-02	1.937227E-04
3.620738E+03	4.732144E-02	1.939958E-04
3.630685E+03	4.736902E-02	1.941908E-04
3.640632E+03	4.739512E-02	1.942978E-04
3.650579E+03	4.739659E-02	1.943038E-04
3.660526E+03	4.737030E-02	1.941961E-04
3.670473E+03	4.731434E-02	1.939666E-04
3.680420E+03	4.722650E-02	1.936065E-04
3.690367E+03	4.710637E-02	1.931141E-04
3.700314E+03	4.695410E-02	1.924898E-04
3.710261E+03	4.677148E-02	1.917411E-04
3.720208E+03	4.656216E-02	1.908830E-04
3.730156E+03	4.633120E-02	1.899362E-04
3.740103E+03	4.608410E-02	1.889232E-04
3.750050E+03	4.582674E-02	1.878681E-04
3.759997E+03	4.556660E-02	1.868016E-04
3.769944E+03	4.531054E-02	1.857519E-04
3.779891E+03	4.506671E-02	1.847523E-04
3.783052E+03	2.922141E-02	1.197941E-04
3.784740E+03	2.941834E-02	1.206014E-04
3.786428E+03	2.979159E-02	1.221315E-04
3.788116E+03	3.028516E-02	1.241549E-04
3.789804E+03	3.068339E-02	1.257875E-04
3.791492E+03	3.088562E-02	1.266165E-04
3.793180E+03	3.108783E-02	1.274455E-04
3.794868E+03	3.124211E-02	1.280780E-04
3.796555E+03	3.134667E-02	1.285066E-04
3.798243E+03	3.155679E-02	1.293680E-04
3.799931E+03	3.188716E-02	1.307224E-04
3.801619E+03	3.220582E-02	1.320287E-04
3.803307E+03	3.254712E-02	1.334279E-04
3.804995E+03	3.286198E-02	1.347186E-04
3.806683E+03	3.309950E-02	1.356924E-04
3.808371E+03	3.334987E-02	1.367188E-04
3.810059E+03	3.354258E-02	1.375088E-04
3.811748E+03	3.359487E-02	1.377232E-04
3.813435E+03	3.361532E-02	1.378070E-04
3.815123E+03	3.365603E-02	1.379739E-04
3.816811E+03	3.371760E-02	1.382263E-04
3.818499E+03	3.388888E-02	1.389285E-04
3.820187E+03	3.414286E-02	1.399696E-04
3.821875E+03	3.435393E-02	1.408349E-04
3.823563E+03	3.454906E-02	1.416349E-04
3.825251E+03	3.468724E-02	1.422013E-04
3.826939E+03	3.473357E-02	1.423913E-04
3.828627E+03	3.466299E-02	1.421019E-04
3.830314E+03	3.459310E-02	1.418154E-04
3.832002E+03	3.455508E-02	1.416596E-04
3.833690E+03	3.456548E-02	1.417022E-04
3.835378E+03	3.457285E-02	1.417324E-04
3.837066E+03	3.462984E-02	1.419660E-04
3.838754E+03	3.473151E-02	1.423828E-04
3.840442E+03	3.487174E-02	1.429577E-04
3.842130E+03	3.494532E-02	1.432594E-04
3.843818E+03	3.500302E-02	1.434959E-04
3.845506E+03	3.507361E-02	1.437853E-04
3.847193E+03	3.506658E-02	1.437564E-04
3.848881E+03	3.505469E-02	1.437077E-04
3.850569E+03	3.515290E-02	1.441103E-04
3.852257E+03	3.537154E-02	1.450066E-04
3.853945E+03	3.570448E-02	1.463715E-04
3.855633E+03	3.624333E-02	1.485806E-04
3.857321E+03	3.693366E-02	1.514106E-04
3.859009E+03	3.766850E-02	1.544231E-04
3.860697E+03	3.832382E-02	1.571096E-04
3.862385E+03	3.882452E-02	1.591622E-04
3.864073E+03	3.921951E-02	1.607815E-04
3.865761E+03	3.946240E-02	1.617772E-04
3.867448E+03	3.953982E-02	1.620946E-04
3.869136E+03	3.962581E-02	1.624471E-04
3.870824E+03	3.982481E-02	1.632629E-04
3.872512E+03	4.003604E-02	1.641289E-04
3.874200E+03	4.033580E-02	1.653578E-04
3.875888E+03	4.082479E-02	1.673624E-04
3.877576E+03	4.141324E-02	1.697748E-04
3.879264E+03	4.199799E-02	1.721719E-04
3.880952E+03	4.254975E-02	1.744339E-04
3.882640E+03	4.301178E-02	1.763280E-04
3.884327E+03	4.330540E-02	1.775317E-04
3.886015E+03	4.349045E-02	1.782903E-04
3.887703E+03	4.368346E-02	1.790816E-04
3.889391E+03	4.386004E-02	1.798055E-04
3.891079E+03	4.407692E-02	1.806946E-04
3.892767E+03	4.448351E-02	1.823614E-04
3.894455E+03	4.494316E-02	1.842457E-04
3.896144E+03	4.539489E-02	1.860976E-04
3.897832E+03	4.584542E-02	1.879446E-04
3.899520E+03	4.626485E-02	1.896640E-04
3.901207E+03	4.664833E-02	1.912361E-04
3.902895E+03	4.701598E-02	1.927433E-04
3.904583E+03	4.726662E-02	1.937708E-04
3.906271E+03	4.748498E-02	1.946660E-04
3.907959E+03	4.776496E-02	1.958138E-04
3.909647E+03	4.795721E-02	1.966019E-04
3.911335E+03	4.795754E-02	1.966033E-04
3.913023E+03	4.796709E-02	1.966424E-04
3.914711E+03	4.812540E-02	1.972914E-04
3.916399E+03	4.826854E-02	1.978782E-04
3.918086E+03	4.845623E-02	1.986476E-04
3.919774E+03	4.888221E-02	2.003940E-04
3.921462E+03	4.940084E-02	2.025201E-04
3.923150E+03	4.978425E-02	2.040919E-04
3.924838E+03	5.010131E-02	2.053917E-04
3.926526E+03	5.034592E-02	2.063945E-04
3.928214E+03	5.049129E-02	2.069904E-04
3.929902E+03	5.056791E-02	2.073045E-04
3.931590E+03	5.062146E-02	2.075240E-04
3.933278E+03	5.067691E-02	2.077514E-04
3.934965E+03	5.074341E-02	2.080240E-04
3.936653E+03	5.078197E-02	2.081820E-04
3.938341E+03	5.077554E-02	2.081557E-04
3.940029E+03	5.071803E-02	2.079200E-04
3.941717E+03	5.050228E-02	2.070354E-04
3.943405E+03	5.015750E-02	2.056220E-04
3.945093E+03	4.972514E-02	2.038496E-04
3.946781E+03	4.922102E-02	2.017829E-04
3.948469E+03	4.860314E-02	1.992499E-04
3.950157E+03	4.790680E-02	1.963952E-04
3.951845E+03	4.721666E-02	1.935660E-04
3.953533E+03	4.656499E-02	1.908944E-04
3.955220E+03	4.594994E-02	1.883730E-04
3.956908E+03	4.536666E-02	1.859818E-04
3.958596E+03	4.483705E-02	1.838107E-04
3.960284E+03	4.428073E-02	1.815300E-04
3.961972E+03	4.371049E-02	1.791923E-04
3.963660E+03	4.313669E-02	1.768400E-04
3.965348E+03	4.254225E-02	1.744031E-04
3.967036E+03	4.197347E-02	1.720714E-04
3.968724E+03	4.148757E-02	1.700794E-04
3.970412E+03	4.108028E-02	1.684097E-04
3.972099E+03	4.074004E-02	1.670149E-04
3.973787E+03	4.046563E-02	1.658899E-04
3.975475E+03	4.017181E-02	1.646854E-04
3.977163E+03	3.980680E-02	1.631890E-04
3.978852E+03	3.941080E-02	1.615656E-04
3.980540E+03	3.895032E-02	1.596779E-04
3.982228E+03	3.848563E-02	1.577729E-04
3.983916E+03	3.813730E-02	1.563449E-04
3.985604E+03	3.794430E-02	1.555537E-04
3.987291E+03	3.773066E-02	1.546779E-04
3.988979E+03	3.752865E-02	1.538497E-04
3.990667E+03	3.741012E-02	1.533638E-04
3.992355E+03	3.729713E-02	1.529006E-04
3.994043E+03	3.715742E-02	1.523278E-04
3.995731E+03	3.708900E-02	1.520473E-04
3.997419E+03	3.712115E-02	1.521791E-04
3.999107E+03	3.720330E-02	1.525159E-04
4.000795E+03	3.735253E-02	1.531277E-04
4.002483E+03	3.749695E-02	1.537197E-04
4.004171E+03	3.752937E-02	1.538526E-04
4.005858E+03	3.755578E-02	1.539609E-04
4.007546E+03	3.768702E-02	1.544989E-04
4.009234E+03	3.784210E-02	1.551347E-04
4.010922E+03	3.803808E-02	1.559381E-04
4.012610E+03	3.836940E-02	1.572963E-04
4.014298E+03	3.871726E-02	1.587224E-04
4.015986E+03	3.903598E-02	1.600290E-04
4.017674E+03	3.931276E-02	1.611637E-04
4.019362E+03	3.955368E-02	1.621513E-04
4.021050E+03	3.983248E-02	1.632943E-04
4.022738E+03	4.016805E-02	1.646700E-04
4.024425E+03	4.043304E-02	1.657563E-04
4.026113E+03	4.065303E-02	1.666581E-04
4.027801E+03	4.085666E-02	1.674929E-04
4.029489E+03	4.092322E-02	1.677658E-04
4.031177E+03	4.089111E-02	1.676342E-04
4.032865E+03	4.084932E-02	1.674628E-04
4.034553E+03	4.075638E-02	1.670818E-04
4.036241E+03	4.064885E-02	1.666410E-04
4.037929E+03	4.061579E-02	1.665055E-04
4.039617E+03	4.063890E-02	1.666002E-04
4.041304E+03	4.061145E-02	1.664877E-04
4.042992E+03	4.054139E-02	1.662005E-04
4.044680E+03	4.049639E-02	1.660160E-04
4.046368E+03	4.048684E-02	1.659768E-04
4.048056E+03	4.051336E-02	1.660855E-04
4.049744E+03	4.063513E-02	1.665847E-04
4.051432E+03	4.083570E-02	1.674070E-04
4.053120E+03	4.098513E-02	1.680196E-04
4.054808E+03	4.105837E-02	1.683198E-04
4.056496E+03	4.106700E-02	1.683552E-04
4.058183E+03	4.100184E-02	1.680881E-04
4.059871E+03	4.096056E-02	1.679188E-04
4.061560E+03	4.102373E-02	1.681778E-04
4.063248E+03	4.111020E-02	1.685323E-04
4.064936E+03	4.122911E-02	1.690198E-04
4.066624E+03	4.140248E-02	1.697305E-04
4.068312E+03	4.151854E-02	1.702063E-04
4.070000E+03	4.148139E-02	1.700540E-04
4.071688E+03	4.133128E-02	1.694386E-04
4.073376E+03	4.111890E-02	1.685680E-04
4.075064E+03	4.091510E-02	1.677325E-04
4.076751E+03	4.075288E-02	1.670674E-04
4.078439E+03	4.061697E-02	1.665103E-04
4.080127E+03	4.052940E-02	1.661513E-04
4.081815E+03	4.044799E-02	1.658175E-04
4.083503E+03	4.032627E-02	1.653186E-04
4.085191E+03	4.010311E-02	1.644037E-04
4.086879E+03	3.979311E-02	1.631328E-04
4.088567E+03	3.948372E-02	1.618645E-04
4.090255E+03	3.916271E-02	1.605485E-04
4.091943E+03	3.880130E-02	1.590669E-04
4.093630E+03	3.845761E-02	1.576579E-04
4.095318E+03	3.816469E-02	1.564571E-04
4.097006E+03	3.782769E-02	1.550755E-04
4.098694E+03	3.745150E-02	1.535333E-04
4.100382E+03	3.711567E-02	1.521566E-04
4.102070E+03	3.677430E-02	1.507572E-04
4.103758E+03	3.650700E-02	1.496613E-04
4.105446E+03	3.653610E-02	1.497806E-04
4.107134E+03	3.677047E-02	1.507414E-04
4.108822E+03	3.701356E-02	1.517380E-04
4.110509E+03	3.736706E-02	1.531872E-04
4.112197E+03	3.770296E-02	1.545642E-04
4.113885E+03	3.780613E-02	1.549872E-04
4.115573E+03	3.779232E-02	1.549306E-04
4.117261E+03	3.781352E-02	1.550174E-04
4.118949E+03	3.784215E-02	1.551348E-04
4.120637E+03	3.800455E-02	1.558006E-04
4.122325E+03	3.830629E-02	1.570376E-04
4.124013E+03	3.862600E-02	1.583482E-04
4.125701E+03	3.892010E-02	1.595539E-04
4.127388E+03	3.914442E-02	1.604735E-04
4.129076E+03	3.920683E-02	1.607294E-04
4.130764E+03	3.912815E-02	1.604068E-04
4.132452E+03	3.899178E-02	1.598478E-04
4.134140E+03	3.882720E-02	1.591730E-04
4.135828E+03	3.865770E-02	1.584782E-04
4.137516E+03	3.849805E-02	1.578237E-04
4.139204E+03	3.833287E-02	1.571465E-04
4.140892E+03	3.813021E-02	1.563157E-04
4.142580E+03	3.788267E-02	1.553009E-04
4.144268E+03	3.765171E-02	1.543541E-04
4.145956E+03	3.749082E-02	1.536945E-04
4.147644E+03	3.736745E-02	1.531888E-04
4.149332E+03	3.727178E-02	1.527965E-04
4.151020E+03	3.718167E-02	1.524271E-04
4.152708E+03	3.704298E-02	1.518586E-04
4.154396E+03	3.678859E-02	1.508157E-04
4.156084E+03	3.638027E-02	1.491418E-04
4.157772E+03	3.594537E-02	1.473589E-04
4.159460E+03	3.553069E-02	1.456589E-04
4.161148E+03	3.508017E-02	1.438120E-04
4.162835E+03	3.462954E-02	1.419646E-04
4.164523E+03	3.419541E-02	1.401849E-04
4.166211E+03	3.371309E-02	1.382076E-04
4.167899E+03	3.320474E-02	1.361236E-04
4.169587E+03	3.274679E-02	1.342462E-04
4.171275E+03	3.234111E-02	1.325832E-04
4.172963E+03	3.196679E-02	1.310486E-04
4.174651E+03	3.163307E-02	1.296805E-04
4.176339E+03	3.135850E-02	1.285549E-04
4.178027E+03	3.107584E-02	1.273962E-04
4.179714E+03	3.076039E-02	1.261029E-04
4.181403E+03	3.054674E-02	1.252271E-04
4.183090E+03	3.047510E-02	1.249334E-04
4.184778E+03	3.044178E-02	1.247968E-04
4.186466E+03	3.037945E-02	1.245412E-04
4.188154E+03	3.041293E-02	1.246785E-04
4.189842E+03	3.051264E-02	1.250873E-04
4.191530E+03	3.056297E-02	1.252936E-04
4.193218E+03	3.056389E-02	1.252974E-04
4.194906E+03	3.056981E-02	1.253217E-04
4.196594E+03	3.053309E-02	1.251711E-04
4.198282E+03	3.054405E-02	1.252160E-04
4.199969E+03	3.062812E-02	1.255607E-04
4.201657E+03	3.074447E-02	1.260377E-04
4.203345E+03	3.096375E-02	1.269366E-04
4.205033E+03	3.124452E-02	1.280876E-04
4.206721E+03	3.146969E-02	1.290107E-04
4.208409E+03	3.172355E-02	1.300514E-04
4.210097E+03	3.204825E-02	1.313825E-04
4.211785E+03	3.240665E-02	1.328518E-04
4.213473E+03	3.279382E-02	1.344390E-04
4.215161E+03	3.310119E-02	1.356991E-04
4.216848E+03	3.326851E-02	1.363850E-04
4.218536E+03	3.343535E-02	1.370690E-04
4.220224E+03	3.357935E-02	1.376593E-04
4.221912E+03	3.365887E-02	1.379853E-04
4.223600E+03	3.378074E-02	1.384849E-04
4.225288E+03	3.395555E-02	1.392015E-04
4.226976E+03	3.409382E-02	1.397684E-04
4.228665E+03	3.429750E-02	1.406034E-04
4.230353E+03	3.460644E-02	1.418699E-04
4.232041E+03	3.496785E-02	1.433515E-04
4.233729E+03	3.530710E-02	1.447423E-04
4.235416E+03	3.563912E-02	1.461034E-04
4.237104E+03	3.596826E-02	1.474527E-04
4.238792E+03	3.633314E-02	1.489485E-04
4.240480E+03	3.668207E-02	1.503790E-04
4.242168E+03	3.703809E-02	1.518385E-04
4.243856E+03	3.744236E-02	1.534958E-04
4.245544E+03	3.787123E-02	1.552539E-04
4.247232E+03	3.825486E-02	1.568267E-04
4.248920E+03	3.864812E-02	1.584389E-04
4.250608E+03	3.911529E-02	1.603540E-04
4.252295E+03	3.965831E-02	1.625801E-04
4.253983E+03	4.017235E-02	1.646874E-04
4.255671E+03	4.063428E-02	1.665811E-04
4.257359E+03	4.107591E-02	1.683916E-04
4.259047E+03	4.143287E-02	1.698550E-04
4.260735E+03	4.165446E-02	1.707634E-04
4.262423E+03	4.189874E-02	1.717648E-04
4.264111E+03	4.223767E-02	1.731543E-04
4.265799E+03	4.265004E-02	1.748448E-04
4.267487E+03	4.317850E-02	1.770112E-04
4.269174E+03	4.380123E-02	1.795641E-04
4.270862E+03	4.440122E-02	1.820238E-04
4.272550E+03	4.488764E-02	1.840179E-04
4.274238E+03	4.531989E-02	1.857899E-04
4.275926E+03	4.577189E-02	1.876429E-04
4.277614E+03	4.623677E-02	1.895486E-04
4.279302E+03	4.672581E-02	1.915535E-04
4.280990E+03	4.727043E-02	1.937862E-04
4.282678E+03	4.779223E-02	1.959253E-04
4.284366E+03	4.824096E-02	1.977649E-04
4.286053E+03	4.860587E-02	1.992609E-04
4.287741E+03	4.885739E-02	2.002920E-04
4.289429E+03	4.901299E-02	2.009298E-04
4.291117E+03	4.916812E-02	2.015658E-04
4.292805E+03	4.927687E-02	2.020116E-04
4.294493E+03	4.932286E-02	2.022001E-04
4.296181E+03	4.937647E-02	2.024199E-04
4.297869E+03	4.943585E-02	2.026633E-04
4.299557E+03	4.945250E-02	2.027316E-04
4.301245E+03	4.943143E-02	2.026452E-04
4.302932E+03	4.938205E-02	2.024428E-04
4.304620E+03	4.928543E-02	2.020467E-04
4.306308E+03	4.923986E-02	2.018599E-04
4.307996E+03	4.922963E-02	2.018179E-04
4.309684E+03	4.923142E-02	2.018253E-04
4.311372E+03	4.929826E-02	2.020993E-04
4.313061E+03	4.939106E-02	2.024797E-04
4.314749E+03	4.932360E-02	2.022032E-04
4.316437E+03	4.909697E-02	2.012741E-04
4.318125E+03	4.880511E-02	2.000776E-04
4.319813E+03	4.842576E-02	1.985225E-04
4.321500E+03	4.806683E-02	1.970510E-04
4.323188E+03	4.781552E-02	1.960207E-04
4.324876E+03	4.754781E-02	1.949233E-04
4.326564E+03	4.723258E-02	1.936310E-04
4.328252E+03	4.693872E-02	1.924263E-04
4.329940E+03	4.664216E-02	1.912106E-04
4.331628E+03	4.631761E-02	1.898800E-04
4.333316E+03	4.599925E-02	1.885749E-04
4.335004E+03	4.572640E-02	1.874564E-04
4.336692E+03	4.555935E-02	1.867715E-04
4.338379E+03	4.544808E-02	1.863154E-04
4.340067E+03	4.529880E-02	1.857034E-04
4.341755E+03	4.510515E-02	1.849095E-04
4.343443E+03	4.481765E-02	1.837309E-04
4.345131E+03	4.440580E-02	1.820425E-04
4.346819E+03	4.392224E-02	1.800602E-04
4.348507E+03	4.352498E-02	1.784316E-04
4.350195E+03	4.328390E-02	1.774432E-04
4.351883E+03	4.310195E-02	1.766973E-04
4.353571E+03	4.287759E-02	1.757776E-04
4.355258E+03	4.258414E-02	1.745746E-04
4.356946E+03	4.223050E-02	1.731248E-04
4.358634E+03	4.186747E-02	1.716366E-04
4.360322E+03	4.159795E-02	1.705317E-04
4.362010E+03	4.142832E-02	1.698363E-04
4.363698E+03	4.133321E-02	1.694464E-04
4.365386E+03	4.128279E-02	1.692397E-04
4.367074E+03	4.132280E-02	1.694037E-04
4.368762E+03	4.141451E-02	1.697797E-04
4.370450E+03	4.154141E-02	1.702999E-04
4.372138E+03	4.174732E-02	1.711440E-04
4.373826E+03	4.200050E-02	1.721819E-04
4.375513E+03	4.218724E-02	1.729475E-04
4.377201E+03	4.230690E-02	1.734380E-04
4.378889E+03	4.240903E-02	1.738567E-04
4.380577E+03	4.253873E-02	1.743884E-04
4.382265E+03	4.264584E-02	1.748275E-04
4.383953E+03	4.269098E-02	1.750126E-04
4.385641E+03	4.272433E-02	1.751493E-04
4.387329E+03	4.275607E-02	1.752794E-04
4.389017E+03	4.275190E-02	1.752623E-04
4.390705E+03	4.279312E-02	1.754313E-04
4.392392E+03	4.284923E-02	1.756613E-04
4.394080E+03	4.286122E-02	1.757105E-04
4.395769E+03	4.288240E-02	1.757973E-04
4.397457E+03	4.292421E-02	1.759687E-04
4.399145E+03	4.293207E-02	1.760009E-04
4.400833E+03	4.300180E-02	1.762868E-04
4.402521E+03	4.321331E-02	1.771539E-04
4.404209E+03	4.339212E-02	1.778869E-04
4.405897E+03	4.344058E-02	1.780855E-04
4.407585E+03	4.341899E-02	1.779970E-04
4.409272E+03	4.332930E-02	1.776294E-04
4.410960E+03	4.314872E-02	1.768891E-04
4.412648E+03	4.292801E-02	1.759843E-04
4.414336E+03	4.265263E-02	1.748553E-04
4.416024E+03	4.233655E-02	1.735596E-04
4.417712E+03	4.205645E-02	1.724113E-04
4.419400E+03	4.177495E-02	1.712573E-04
4.421088E+03	4.151359E-02	1.701858E-04
4.422776E+03	4.128186E-02	1.692358E-04
4.424464E+03	4.098293E-02	1.680104E-04
4.426152E+03	4.058205E-02	1.663669E-04
4.427839E+03	4.015078E-02	1.645990E-04
4.429527E+03	3.970812E-02	1.627842E-04
4.431215E+03	3.928760E-02	1.610603E-04
4.432903E+03	3.889111E-02	1.594349E-04
4.434591E+03	3.850411E-02	1.578484E-04
4.436279E+03	3.808301E-02	1.561220E-04
4.437967E+03	3.762405E-02	1.542405E-04
4.439655E+03	3.707612E-02	1.519943E-04
4.441343E+03	3.651823E-02	1.497072E-04
4.443030E+03	3.594850E-02	1.473716E-04
4.444718E+03	3.539849E-02	1.451168E-04
4.446406E+03	3.484800E-02	1.428601E-04
4.448094E+03	3.433552E-02	1.407591E-04
4.449782E+03	3.388372E-02	1.389070E-04
