#wls	flux	fluxerr
1.591533E+03	2.361340E-04	1.497755E-05
1.631321E+03	2.392773E-04	1.510227E-05
1.671110E+03	2.425652E-04	1.523233E-05
1.710898E+03	2.459100E-04	1.536198E-05
1.750686E+03	2.493927E-04	1.549612E-05
1.790475E+03	2.530095E-04	1.563425E-05
1.830263E+03	2.567562E-04	1.577587E-05
1.870051E+03	2.606282E-04	1.592043E-05
1.909840E+03	2.646206E-04	1.606738E-05
1.949628E+03	2.686449E-04	1.621113E-05
1.989416E+03	2.728628E-04	1.636120E-05
2.029205E+03	2.771850E-04	1.651192E-05
2.068993E+03	2.815231E-04	1.665778E-05
2.108781E+03	2.860371E-04	1.680805E-05
2.148570E+03	2.905562E-04	1.695239E-05
2.188358E+03	2.951578E-04	1.709513E-05
2.228146E+03	2.998374E-04	1.723576E-05
2.267935E+03	3.045912E-04	1.737380E-05
2.307723E+03	3.093351E-04	1.750426E-05
2.347511E+03	3.141501E-04	1.763153E-05
2.387300E+03	3.190374E-04	1.775543E-05
2.427088E+03	3.239204E-04	1.787147E-05
2.466876E+03	3.288073E-04	1.797996E-05
2.506665E+03	3.337896E-04	1.808570E-05
2.546453E+03	3.388036E-04	1.818498E-05
2.586241E+03	3.438712E-04	1.827875E-05
2.626030E+03	3.490986E-04	1.837238E-05
2.665818E+03	3.543620E-04	1.845901E-05
2.705606E+03	3.598591E-04	1.854863E-05
2.745395E+03	3.655589E-04	1.863912E-05
2.785183E+03	3.715170E-04	1.873280E-05
2.824971E+03	3.777966E-04	1.883223E-05
2.864759E+03	3.845473E-04	1.894408E-05
2.904548E+03	3.917725E-04	1.906753E-05
2.944336E+03	3.997199E-04	1.921346E-05
2.984124E+03	4.084948E-04	1.938542E-05
2.994072E+03	4.108337E-04	1.943303E-05
3.004019E+03	4.132193E-04	1.948189E-05
3.013966E+03	4.157319E-04	1.953575E-05
3.023913E+03	4.182956E-04	1.959099E-05
3.033860E+03	4.209907E-04	1.965134E-05
3.043807E+03	4.236632E-04	1.970956E-05
3.053754E+03	4.265508E-04	1.977669E-05
3.063701E+03	4.294210E-04	1.984187E-05
3.073648E+03	4.324331E-04	1.991244E-05
3.083595E+03	4.355910E-04	1.998852E-05
3.093542E+03	4.388187E-04	2.006656E-05
3.103489E+03	4.421192E-04	2.014665E-05
3.113437E+03	4.455749E-04	2.023250E-05
3.123384E+03	4.491901E-04	2.032422E-05
3.133331E+03	4.529684E-04	2.042190E-05
3.143278E+03	4.568345E-04	2.052206E-05
3.153225E+03	4.607919E-04	2.062482E-05
3.163172E+03	4.650059E-04	2.073750E-05
3.173119E+03	4.693208E-04	2.085306E-05
3.183066E+03	4.738218E-04	2.097521E-05
3.193013E+03	4.785151E-04	2.110412E-05
3.202960E+03	4.834061E-04	2.123994E-05
3.212907E+03	4.885014E-04	2.138285E-05
3.222854E+03	4.938072E-04	2.153301E-05
3.232801E+03	4.992481E-04	2.168704E-05
3.242749E+03	5.049966E-04	2.185233E-05
3.252696E+03	5.109785E-04	2.202552E-05
3.262643E+03	5.172858E-04	2.221044E-05
3.272590E+03	5.237595E-04	2.240012E-05
3.282537E+03	5.305781E-04	2.260207E-05
3.292484E+03	5.376673E-04	2.281296E-05
3.302431E+03	5.450382E-04	2.303311E-05
3.312378E+03	5.527881E-04	2.326648E-05
3.322325E+03	5.609312E-04	2.351344E-05
3.332272E+03	5.693941E-04	2.377074E-05
3.342219E+03	5.781912E-04	2.403879E-05
3.352166E+03	5.874254E-04	2.432169E-05
3.362114E+03	5.971148E-04	2.461993E-05
3.372061E+03	6.072781E-04	2.493405E-05
3.382008E+03	6.179355E-04	2.526462E-05
3.391955E+03	6.291076E-04	2.561221E-05
3.401902E+03	6.407250E-04	2.597374E-05
3.411849E+03	6.529960E-04	2.635736E-05
3.421796E+03	6.658537E-04	2.676005E-05
3.431743E+03	6.793252E-04	2.718256E-05
3.441690E+03	6.935337E-04	2.762947E-05
3.451637E+03	7.084140E-04	2.809781E-05
3.461584E+03	7.239945E-04	2.858833E-05
3.471531E+03	7.404053E-04	2.910576E-05
3.481479E+03	7.576794E-04	2.965094E-05
3.491426E+03	7.758518E-04	3.022478E-05
3.501373E+03	7.948548E-04	3.082415E-05
3.511320E+03	8.148264E-04	3.145394E-05
3.521267E+03	8.358070E-04	3.211516E-05
3.531214E+03	8.579443E-04	3.281293E-05
3.541161E+03	8.810690E-04	3.354016E-05
3.551108E+03	9.054439E-04	3.430628E-05
3.561055E+03	9.310095E-04	3.510835E-05
3.571002E+03	9.578174E-04	3.594767E-05
3.580949E+03	9.860371E-04	3.682989E-05
3.590896E+03	1.015731E-03	3.775655E-05
3.600844E+03	1.046844E-03	3.872481E-05
3.610791E+03	1.079682E-03	3.974514E-05
3.620738E+03	1.114076E-03	4.081039E-05
3.630685E+03	1.150220E-03	4.192680E-05
3.640632E+03	1.188193E-03	4.309626E-05
3.650579E+03	1.228078E-03	4.432070E-05
3.660526E+03	1.270091E-03	4.560690E-05
3.670473E+03	1.314195E-03	4.695229E-05
3.680420E+03	1.360618E-03	4.836386E-05
3.690367E+03	1.409323E-03	4.983900E-05
3.700314E+03	1.460550E-03	5.138489E-05
3.710261E+03	1.514407E-03	5.300390E-05
3.720208E+03	1.570854E-03	5.469319E-05
3.730156E+03	1.630295E-03	5.646534E-05
3.740103E+03	1.692696E-03	5.831745E-05
3.750050E+03	1.758164E-03	6.025158E-05
3.759997E+03	1.826806E-03	6.226966E-05
3.769944E+03	1.898886E-03	6.437889E-05
3.779891E+03	1.974340E-03	6.657522E-05
3.789838E+03	2.053426E-03	6.886537E-05
3.799785E+03	2.136226E-03	7.125010E-05
3.809732E+03	2.222808E-03	7.372960E-05
3.819679E+03	2.313222E-03	7.630336E-05
3.829626E+03	2.407679E-03	7.897626E-05
3.839573E+03	2.505808E-03	8.173389E-05
3.849521E+03	2.607952E-03	8.458535E-05
3.859468E+03	2.714050E-03	8.752646E-05
3.869415E+03	2.823795E-03	9.054516E-05
3.879362E+03	2.937228E-03	9.364075E-05
3.889309E+03	3.054142E-03	9.680461E-05
3.899256E+03	3.174268E-03	1.000264E-04
3.909203E+03	3.297271E-03	1.032938E-04
3.919150E+03	3.422975E-03	1.065997E-04
3.929097E+03	3.550688E-03	1.099213E-04
3.939044E+03	3.680094E-03	1.132478E-04
3.948991E+03	3.810348E-03	1.165524E-04
3.958938E+03	3.941235E-03	1.198281E-04
3.968886E+03	4.071538E-03	1.230379E-04
3.978833E+03	4.200685E-03	1.261650E-04
3.988780E+03	4.328071E-03	1.291919E-04
3.998727E+03	4.452564E-03	1.320862E-04
4.008674E+03	4.573503E-03	1.348301E-04
4.018621E+03	4.689725E-03	1.373915E-04
4.028568E+03	4.800593E-03	1.397547E-04
4.038515E+03	4.905246E-03	1.418977E-04
4.048462E+03	5.002905E-03	1.438017E-04
4.058409E+03	5.092865E-03	1.454505E-04
4.068356E+03	5.174799E-03	1.468393E-04
4.078303E+03	5.247778E-03	1.479464E-04
4.088251E+03	5.312259E-03	1.487897E-04
4.098198E+03	5.367407E-03	1.493506E-04
4.108145E+03	5.414031E-03	1.496570E-04
4.118092E+03	5.451892E-03	1.497069E-04
4.128039E+03	5.481648E-03	1.495232E-04
4.137986E+03	5.503840E-03	1.491253E-04
4.147933E+03	5.519360E-03	1.485413E-04
4.157880E+03	5.528499E-03	1.477828E-04
4.167827E+03	5.532520E-03	1.468869E-04
4.177774E+03	5.532033E-03	1.458727E-04
4.187721E+03	5.528105E-03	1.447706E-04
4.197668E+03	5.521363E-03	1.435989E-04
4.207615E+03	5.512837E-03	1.423858E-04
4.217563E+03	5.503109E-03	1.411474E-04
4.227510E+03	5.493321E-03	1.399134E-04
4.237457E+03	5.483772E-03	1.386917E-04
4.247404E+03	5.475301E-03	1.375032E-04
4.257351E+03	5.468494E-03	1.363622E-04
4.267298E+03	5.463881E-03	1.352809E-04
4.277245E+03	5.461930E-03	1.342699E-04
4.287192E+03	5.463216E-03	1.333419E-04
4.297139E+03	5.467742E-03	1.324954E-04
4.307086E+03	5.476131E-03	1.317439E-04
4.317033E+03	5.488608E-03	1.310909E-04
4.326980E+03	5.505218E-03	1.305355E-04
4.336928E+03	5.526278E-03	1.300832E-04
4.346875E+03	5.551827E-03	1.297328E-04
4.356822E+03	5.582228E-03	1.294906E-04
4.366769E+03	5.617747E-03	1.293606E-04
4.376716E+03	5.658892E-03	1.293520E-04
4.386663E+03	5.705935E-03	1.294684E-04
4.396610E+03	5.759367E-03	1.297181E-04
4.406557E+03	5.819842E-03	1.301129E-04
4.416504E+03	5.887895E-03	1.306616E-04
4.426451E+03	5.964165E-03	1.313748E-04
4.436398E+03	6.049131E-03	1.322593E-04
4.446345E+03	6.143213E-03	1.333205E-04
4.456293E+03	6.246898E-03	1.345646E-04
4.466240E+03	6.360431E-03	1.359928E-04
4.476187E+03	6.484076E-03	1.376063E-04
4.486134E+03	6.618078E-03	1.394059E-04
4.496081E+03	6.761963E-03	1.413773E-04
4.506028E+03	6.915866E-03	1.435192E-04
4.515975E+03	7.079036E-03	1.458117E-04
4.525922E+03	7.250752E-03	1.482364E-04
4.535869E+03	7.430065E-03	1.507705E-04
4.545816E+03	7.615527E-03	1.533818E-04
4.555763E+03	7.805497E-03	1.560353E-04
4.565710E+03	7.998281E-03	1.586957E-04
4.575658E+03	8.191652E-03	1.613185E-04
4.585605E+03	8.383729E-03	1.638672E-04
4.595552E+03	8.572494E-03	1.663035E-04
4.605499E+03	8.755854E-03	1.685893E-04
4.615446E+03	8.932003E-03	1.706926E-04
4.625393E+03	9.099224E-03	1.725847E-04
4.635340E+03	9.256248E-03	1.742457E-04
4.645287E+03	9.402156E-03	1.756632E-04
4.655234E+03	9.535998E-03	1.768248E-04
4.665181E+03	9.657960E-03	1.777391E-04
4.675128E+03	9.767919E-03	1.784092E-04
4.685075E+03	9.866693E-03	1.788552E-04
4.695022E+03	9.954987E-03	1.790945E-04
4.704970E+03	1.003404E-02	1.791539E-04
4.714917E+03	1.010499E-02	1.790573E-04
4.724864E+03	1.016919E-02	1.788322E-04
4.734811E+03	1.022804E-02	1.785056E-04
4.744758E+03	1.028288E-02	1.781032E-04
4.754705E+03	1.033495E-02	1.776481E-04
4.764652E+03	1.038509E-02	1.771556E-04
4.774599E+03	1.043435E-02	1.766446E-04
4.784546E+03	1.048331E-02	1.761252E-04
4.794493E+03	1.053246E-02	1.756061E-04
4.804440E+03	1.058198E-02	1.750901E-04
4.814387E+03	1.063185E-02	1.745766E-04
4.824335E+03	1.068209E-02	1.740660E-04
4.834282E+03	1.073258E-02	1.735558E-04
4.844229E+03	1.078317E-02	1.730431E-04
4.854176E+03	1.083355E-02	1.725228E-04
4.864123E+03	1.088333E-02	1.719886E-04
4.874070E+03	1.093176E-02	1.714288E-04
4.884017E+03	1.097865E-02	1.708408E-04
4.893964E+03	1.102316E-02	1.702118E-04
4.903911E+03	1.106467E-02	1.695332E-04
4.913858E+03	1.110283E-02	1.688002E-04
4.923805E+03	1.113678E-02	1.680014E-04
4.933752E+03	1.116623E-02	1.671334E-04
4.943700E+03	1.119071E-02	1.661909E-04
4.953647E+03	1.120980E-02	1.651692E-04
4.963594E+03	1.122319E-02	1.640655E-04
4.973541E+03	1.123089E-02	1.628820E-04
4.983488E+03	1.123257E-02	1.616157E-04
4.993435E+03	1.122857E-02	1.602737E-04
5.003382E+03	1.121907E-02	1.588601E-04
5.013329E+03	1.120423E-02	1.573793E-04
5.023276E+03	1.118483E-02	1.558440E-04
5.033223E+03	1.116150E-02	1.542642E-04
5.043170E+03	1.113496E-02	1.526515E-04
5.053117E+03	1.110623E-02	1.510206E-04
5.063064E+03	1.107652E-02	1.493891E-04
5.073012E+03	1.104694E-02	1.477718E-04
5.082959E+03	1.101858E-02	1.461836E-04
5.092906E+03	1.099289E-02	1.446433E-04
5.102853E+03	1.097084E-02	1.431630E-04
5.112800E+03	1.095374E-02	1.417586E-04
5.122747E+03	1.094232E-02	1.404384E-04
5.132694E+03	1.093753E-02	1.392129E-04
5.142641E+03	1.094002E-02	1.380886E-04
5.152588E+03	1.095027E-02	1.370698E-04
5.162535E+03	1.096846E-02	1.361567E-04
5.172482E+03	1.099491E-02	1.353516E-04
5.182429E+03	1.102945E-02	1.346503E-04
5.192377E+03	1.107181E-02	1.340479E-04
5.202324E+03	1.112157E-02	1.335380E-04
5.212271E+03	1.117826E-02	1.331133E-04
5.222218E+03	1.124090E-02	1.327613E-04
5.232165E+03	1.130878E-02	1.324732E-04
5.242112E+03	1.138081E-02	1.322358E-04
5.252059E+03	1.145564E-02	1.320335E-04
5.262006E+03	1.153184E-02	1.318505E-04
5.271953E+03	1.160796E-02	1.316715E-04
5.281900E+03	1.168222E-02	1.314777E-04
5.291847E+03	1.175283E-02	1.312512E-04
5.301794E+03	1.181813E-02	1.309762E-04
5.311742E+03	1.187621E-02	1.306344E-04
5.321689E+03	1.192555E-02	1.302126E-04
5.331636E+03	1.196439E-02	1.296955E-04
5.341583E+03	1.199174E-02	1.290765E-04
5.351530E+03	1.200656E-02	1.283485E-04
5.361477E+03	1.200833E-02	1.275102E-04
5.371424E+03	1.199683E-02	1.265634E-04
5.381371E+03	1.197255E-02	1.255172E-04
5.391318E+03	1.193619E-02	1.243826E-04
5.401265E+03	1.188904E-02	1.231762E-04
5.411212E+03	1.183282E-02	1.219186E-04
5.421159E+03	1.176961E-02	1.206333E-04
5.431107E+03	1.170165E-02	1.193449E-04
5.441054E+03	1.163142E-02	1.180799E-04
5.451001E+03	1.156124E-02	1.168624E-04
5.460948E+03	1.149310E-02	1.157129E-04
5.470895E+03	1.142872E-02	1.146479E-04
5.480842E+03	1.136872E-02	1.136714E-04
5.490789E+03	1.131363E-02	1.127860E-04
5.500736E+03	1.126338E-02	1.119881E-04
5.510683E+03	1.121771E-02	1.112727E-04
5.520630E+03	1.117627E-02	1.106339E-04
5.530577E+03	1.113874E-02	1.100659E-04
5.540524E+03	1.110483E-02	1.095636E-04
5.550471E+03	1.107421E-02	1.091217E-04
5.560419E+03	1.104697E-02	1.087388E-04
5.570366E+03	1.102273E-02	1.084091E-04
5.580313E+03	1.100158E-02	1.081315E-04
5.590260E+03	1.098355E-02	1.079043E-04
5.600207E+03	1.096854E-02	1.077249E-04
5.610154E+03	1.095643E-02	1.075900E-04
5.620101E+03	1.094726E-02	1.074985E-04
5.630048E+03	1.094080E-02	1.074464E-04
5.639995E+03	1.093679E-02	1.074295E-04
5.649942E+03	1.093502E-02	1.074444E-04
5.659889E+03	1.093511E-02	1.074858E-04
5.669836E+03	1.093718E-02	1.075532E-04
5.679784E+03	1.094088E-02	1.076423E-04
5.689731E+03	1.094646E-02	1.077539E-04
5.699678E+03	1.095398E-02	1.078875E-04
5.709625E+03	1.096401E-02	1.080476E-04
5.719572E+03	1.097684E-02	1.082358E-04
5.729519E+03	1.099329E-02	1.084592E-04
5.739466E+03	1.101404E-02	1.087236E-04
5.749413E+03	1.103977E-02	1.090349E-04
5.759360E+03	1.107098E-02	1.093970E-04
5.769307E+03	1.110849E-02	1.098174E-04
5.779254E+03	1.115228E-02	1.102949E-04
5.789201E+03	1.120270E-02	1.108325E-04
5.799149E+03	1.125929E-02	1.114250E-04
5.809096E+03	1.132162E-02	1.120673E-04
5.819043E+03	1.138882E-02	1.127504E-04
5.828990E+03	1.145972E-02	1.134619E-04
5.838937E+03	1.153287E-02	1.141871E-04
5.848884E+03	1.160671E-02	1.149100E-04
5.858831E+03	1.167929E-02	1.156109E-04
5.868778E+03	1.174870E-02	1.162703E-04
5.878725E+03	1.181313E-02	1.168702E-04
5.888672E+03	1.187075E-02	1.173923E-04
5.898619E+03	1.191983E-02	1.178195E-04
5.908566E+03	1.195914E-02	1.181396E-04
5.918514E+03	1.198770E-02	1.183432E-04
5.928461E+03	1.200497E-02	1.184252E-04
5.938408E+03	1.201071E-02	1.183838E-04
5.948355E+03	1.200545E-02	1.182249E-04
5.958302E+03	1.198991E-02	1.179561E-04
5.968249E+03	1.196493E-02	1.175867E-04
5.978196E+03	1.193217E-02	1.171336E-04
5.988143E+03	1.189291E-02	1.166105E-04
5.998090E+03	1.184885E-02	1.160349E-04
6.008037E+03	1.180171E-02	1.154244E-04
6.017984E+03	1.175290E-02	1.147941E-04
6.027931E+03	1.170401E-02	1.141602E-04
6.037878E+03	1.165601E-02	1.135332E-04
6.047826E+03	1.161010E-02	1.129257E-04
6.057773E+03	1.156679E-02	1.123436E-04
6.067720E+03	1.152632E-02	1.117900E-04
6.077667E+03	1.148879E-02	1.112671E-04
6.087614E+03	1.145379E-02	1.107718E-04
6.097561E+03	1.142039E-02	1.102963E-04
6.107508E+03	1.138752E-02	1.098313E-04
6.117455E+03	1.135395E-02	1.093663E-04
6.127402E+03	1.131814E-02	1.088876E-04
6.137349E+03	1.127837E-02	1.083803E-04
6.147296E+03	1.123309E-02	1.078306E-04
6.157243E+03	1.118100E-02	1.072278E-04
6.167191E+03	1.112105E-02	1.065629E-04
6.177138E+03	1.105264E-02	1.058310E-04
6.187085E+03	1.097532E-02	1.050282E-04
6.197032E+03	1.088922E-02	1.041564E-04
6.206979E+03	1.079450E-02	1.032172E-04
6.216926E+03	1.069150E-02	1.022144E-04
6.226873E+03	1.058098E-02	1.011554E-04
6.236820E+03	1.046378E-02	1.000485E-04
6.246767E+03	1.034080E-02	9.890235E-05
6.256714E+03	1.021352E-02	9.773121E-05
6.266661E+03	1.008343E-02	9.654922E-05
6.276608E+03	9.952306E-03	9.537344E-05
6.286556E+03	9.822257E-03	9.422405E-05
6.296503E+03	9.695471E-03	9.312207E-05
6.306450E+03	9.574301E-03	9.209019E-05
6.316397E+03	9.461180E-03	9.115204E-05
6.326344E+03	9.358668E-03	9.033268E-05
6.336291E+03	9.269241E-03	8.965664E-05
6.346238E+03	9.195394E-03	8.914898E-05
6.356185E+03	9.139437E-03	8.883332E-05
6.366132E+03	9.103580E-03	8.873278E-05
6.376079E+03	9.089964E-03	8.887029E-05
6.386026E+03	9.100581E-03	8.926786E-05
6.395973E+03	9.137173E-03	8.994566E-05
6.405921E+03	9.201310E-03	9.092276E-05
6.415868E+03	9.294547E-03	9.221872E-05
6.425815E+03	9.417870E-03	9.384745E-05
6.435762E+03	9.572477E-03	9.582460E-05
6.445709E+03	9.758905E-03	9.815968E-05
6.455656E+03	9.977336E-03	1.008591E-04
6.465603E+03	1.022763E-02	1.039264E-04
6.475550E+03	1.050853E-02	1.073537E-04
6.485497E+03	1.081790E-02	1.111245E-04
6.495444E+03	1.115212E-02	1.152062E-04
6.505391E+03	1.150558E-02	1.195449E-04
6.515338E+03	1.187071E-02	1.240650E-04
6.525285E+03	1.223794E-02	1.286681E-04
6.535233E+03	1.259657E-02	1.332408E-04
6.545180E+03	1.293484E-02	1.376562E-04
6.555127E+03	1.324101E-02	1.417836E-04
6.565074E+03	1.350414E-02	1.454980E-04
6.575021E+03	1.371498E-02	1.486894E-04
6.584968E+03	1.386630E-02	1.512671E-04
6.594915E+03	1.395330E-02	1.531649E-04
6.604862E+03	1.397453E-02	1.543521E-04
6.614809E+03	1.393140E-02	1.548293E-04
6.624756E+03	1.382798E-02	1.546273E-04
6.634703E+03	1.367040E-02	1.538012E-04
6.644650E+03	1.346664E-02	1.524287E-04
6.654598E+03	1.322540E-02	1.505983E-04
6.664545E+03	1.295549E-02	1.484020E-04
6.674492E+03	1.266571E-02	1.459347E-04
6.684439E+03	1.236391E-02	1.432824E-04
6.694386E+03	1.205711E-02	1.405242E-04
6.704333E+03	1.175145E-02	1.377304E-04
6.714280E+03	1.145168E-02	1.349571E-04
6.724227E+03	1.116179E-02	1.322526E-04
6.734174E+03	1.088445E-02	1.296505E-04
6.744121E+03	1.062201E-02	1.271813E-04
6.754068E+03	1.037565E-02	1.248620E-04
6.764015E+03	1.014642E-02	1.227085E-04
6.773963E+03	9.934488E-03	1.207261E-04
6.783910E+03	9.740095E-03	1.189209E-04
6.793857E+03	9.562760E-03	1.172903E-04
6.803804E+03	9.402024E-03	1.158316E-04
6.813751E+03	9.257462E-03	1.145426E-04
6.823698E+03	9.128103E-03	1.134140E-04
6.833645E+03	9.013089E-03	1.124375E-04
6.843592E+03	8.911469E-03	1.116036E-04
6.853539E+03	8.822349E-03	1.109031E-04
6.863486E+03	8.744548E-03	1.103231E-04
6.873433E+03	8.676965E-03	1.098513E-04
6.883380E+03	8.618447E-03	1.094744E-04
6.893327E+03	8.567838E-03	1.091789E-04
6.903275E+03	8.523985E-03	1.089510E-04
6.913222E+03	8.485651E-03	1.087759E-04
6.923169E+03	8.451839E-03	1.086412E-04
6.933116E+03	8.421536E-03	1.085345E-04
6.943063E+03	8.393581E-03	1.084412E-04
6.953010E+03	8.367326E-03	1.083530E-04
6.962957E+03	8.342020E-03	1.082607E-04
6.972904E+03	8.316842E-03	1.081535E-04
6.982851E+03	8.291374E-03	1.080261E-04
6.992798E+03	8.265245E-03	1.078739E-04
7.002745E+03	8.238188E-03	1.076934E-04
7.012692E+03	8.210091E-03	1.074832E-04
7.022640E+03	8.180851E-03	1.072421E-04
7.032587E+03	8.150681E-03	1.069732E-04
7.042534E+03	8.119718E-03	1.066783E-04
7.052481E+03	8.088378E-03	1.063632E-04
7.062428E+03	8.056979E-03	1.060323E-04
7.072375E+03	8.025987E-03	1.056920E-04
7.082322E+03	7.995923E-03	1.053495E-04
7.092269E+03	7.967312E-03	1.050122E-04
7.102216E+03	7.940700E-03	1.046874E-04
7.112163E+03	7.916585E-03	1.043822E-04
7.122110E+03	7.895432E-03	1.041029E-04
7.132057E+03	7.877533E-03	1.038539E-04
7.142005E+03	7.863400E-03	1.036421E-04
7.151952E+03	7.853031E-03	1.034679E-04
7.161899E+03	7.846539E-03	1.033329E-04
7.171846E+03	7.844019E-03	1.032387E-04
7.181793E+03	7.845360E-03	1.031841E-04
7.191740E+03	7.850343E-03	1.031665E-04
7.201687E+03	7.858474E-03	1.031794E-04
7.211634E+03	7.869660E-03	1.032221E-04
7.221581E+03	7.883246E-03	1.032861E-04
7.231528E+03	7.898718E-03	1.033650E-04
7.241475E+03	7.915632E-03	1.034532E-04
7.251422E+03	7.933311E-03	1.035423E-04
7.261370E+03	7.951289E-03	1.036265E-04
7.271317E+03	7.969004E-03	1.036990E-04
7.281264E+03	7.985816E-03	1.037519E-04
7.291211E+03	8.001347E-03	1.037810E-04
7.301158E+03	8.015063E-03	1.037798E-04
7.311105E+03	8.026709E-03	1.037458E-04
7.321052E+03	8.036001E-03	1.036761E-04
7.330999E+03	8.042740E-03	1.035688E-04
7.340946E+03	8.046807E-03	1.034233E-04
7.350893E+03	8.048163E-03	1.032399E-04
7.360840E+03	8.046827E-03	1.030197E-04
7.370787E+03	8.042873E-03	1.027646E-04
7.380734E+03	8.036392E-03	1.024767E-04
7.390682E+03	8.027524E-03	1.021588E-04
7.400629E+03	8.016498E-03	1.018146E-04
7.410576E+03	8.003334E-03	1.014454E-04
7.420523E+03	7.988043E-03	1.010523E-04
7.430470E+03	7.970945E-03	1.006401E-04
7.440417E+03	7.952036E-03	1.002098E-04
7.450364E+03	7.931535E-03	9.976425E-05
7.460311E+03	7.909337E-03	9.930249E-05
7.470258E+03	7.885769E-03	9.882886E-05
7.480205E+03	7.860834E-03	9.834367E-05
7.490152E+03	7.834652E-03	9.784871E-05
7.500099E+03	7.807454E-03	9.734711E-05
7.510047E+03	7.779294E-03	9.683985E-05
7.519994E+03	7.750347E-03	9.632938E-05
7.529941E+03	7.720931E-03	9.581995E-05
7.539888E+03	7.691068E-03	9.531213E-05
7.549835E+03	7.661213E-03	9.481188E-05
7.559782E+03	7.631521E-03	9.432140E-05
7.569729E+03	7.602220E-03	9.384383E-05
7.579676E+03	7.573540E-03	9.338238E-05
7.589623E+03	7.545773E-03	9.294094E-05
7.599570E+03	7.518853E-03	9.251911E-05
7.609517E+03	7.493095E-03	9.212113E-05
7.619464E+03	7.468428E-03	9.174655E-05
7.629412E+03	7.444847E-03	9.139574E-05
7.639359E+03	7.422386E-03	9.106960E-05
7.649306E+03	7.400731E-03	9.076480E-05
7.659253E+03	7.379947E-03	9.048263E-05
7.669200E+03	7.359857E-03	9.022152E-05
7.679147E+03	7.340050E-03	8.997702E-05
7.689094E+03	7.320639E-03	8.975112E-05
7.699041E+03	7.301094E-03	8.953796E-05
7.708988E+03	7.281522E-03	8.933951E-05
7.718935E+03	7.261497E-03	8.915121E-05
