#wls	flux	fluxerr
1.591533E+03	8.266375E-05	6.160003E-06
1.631321E+03	8.423244E-05	6.246809E-06
1.671110E+03	8.589703E-05	6.338784E-06
1.710898E+03	8.761082E-05	6.432331E-06
1.750686E+03	8.937622E-05	6.527506E-06
1.790475E+03	9.124551E-05	6.627982E-06
1.830263E+03	9.317243E-05	6.730222E-06
1.870051E+03	9.518531E-05	6.836116E-06
1.909840E+03	9.728820E-05	6.945769E-06
1.949628E+03	9.948553E-05	7.059298E-06
1.989416E+03	1.017823E-04	7.176847E-06
2.029205E+03	1.041842E-04	7.298581E-06
2.068993E+03	1.067228E-04	7.426471E-06
2.108781E+03	1.093541E-04	7.557169E-06
2.148570E+03	1.121371E-04	7.694493E-06
2.188358E+03	1.150548E-04	7.836941E-06
2.228146E+03	1.181431E-04	7.986617E-06
2.267935E+03	1.213866E-04	8.142097E-06
2.307723E+03	1.248238E-04	8.305573E-06
2.347511E+03	1.284686E-04	8.477495E-06
2.387300E+03	1.323090E-04	8.656585E-06
2.427088E+03	1.364161E-04	8.846972E-06
2.466876E+03	1.407817E-04	9.047490E-06
2.506665E+03	1.454265E-04	9.258816E-06
2.546453E+03	1.504017E-04	9.483486E-06
2.586241E+03	1.557046E-04	9.720510E-06
2.626030E+03	1.614211E-04	9.974362E-06
2.665818E+03	1.675540E-04	1.024418E-05
2.705606E+03	1.741678E-04	1.053279E-05
2.745395E+03	1.813007E-04	1.084126E-05
2.785183E+03	1.889945E-04	1.117068E-05
2.824971E+03	1.973575E-04	1.152590E-05
2.864759E+03	2.063755E-04	1.190436E-05
2.904548E+03	2.161986E-04	1.231282E-05
2.944336E+03	2.268511E-04	1.275048E-05
2.984124E+03	2.384260E-04	1.322022E-05
2.994072E+03	2.414621E-04	1.334227E-05
3.004019E+03	2.445783E-04	1.346736E-05
3.013966E+03	2.477758E-04	1.359551E-05
3.023913E+03	2.510198E-04	1.372476E-05
3.033860E+03	2.543473E-04	1.385708E-05
3.043807E+03	2.577231E-04	1.399050E-05
3.053754E+03	2.611842E-04	1.412701E-05
3.063701E+03	2.646952E-04	1.426462E-05
3.073648E+03	2.683306E-04	1.440731E-05
3.083595E+03	2.719806E-04	1.454910E-05
3.093542E+03	2.757573E-04	1.469597E-05
3.103489E+03	2.795873E-04	1.484392E-05
3.113437E+03	2.835088E-04	1.499495E-05
3.123384E+03	2.875230E-04	1.514904E-05
3.133331E+03	2.915923E-04	1.530416E-05
3.143278E+03	2.957559E-04	1.546232E-05
3.153225E+03	3.000149E-04	1.562349E-05
3.163172E+03	3.043700E-04	1.578767E-05
3.173119E+03	3.087826E-04	1.595276E-05
3.183066E+03	3.133325E-04	1.612286E-05
3.193013E+03	3.179408E-04	1.629380E-05
3.202960E+03	3.226481E-04	1.646762E-05
3.212907E+03	3.274548E-04	1.664427E-05
3.222854E+03	3.323204E-04	1.682162E-05
3.232801E+03	3.373274E-04	1.700378E-05
3.242749E+03	3.423934E-04	1.718652E-05
3.252696E+03	3.476023E-04	1.737398E-05
3.262643E+03	3.528700E-04	1.756188E-05
3.272590E+03	3.582385E-04	1.775225E-05
3.282537E+03	3.637509E-04	1.794713E-05
3.292484E+03	3.693211E-04	1.814220E-05
3.302431E+03	3.749917E-04	1.833949E-05
3.312378E+03	3.807620E-04	1.853890E-05
3.322325E+03	3.866761E-04	1.874247E-05
3.332272E+03	3.926447E-04	1.894579E-05
3.342219E+03	3.987559E-04	1.915307E-05
3.352166E+03	4.049646E-04	1.936201E-05
3.362114E+03	4.112236E-04	1.957033E-05
3.372061E+03	4.176228E-04	1.978221E-05
3.382008E+03	4.241152E-04	1.999534E-05
3.391955E+03	4.307457E-04	2.021176E-05
3.401902E+03	4.374197E-04	2.042694E-05
3.411849E+03	4.442283E-04	2.064508E-05
3.421796E+03	4.511231E-04	2.086383E-05
3.431743E+03	4.581014E-04	2.108301E-05
3.441690E+03	4.652087E-04	2.130463E-05
3.451637E+03	4.723952E-04	2.152632E-05
3.461584E+03	4.796569E-04	2.174784E-05
3.471531E+03	4.870404E-04	2.197122E-05
3.481479E+03	4.944935E-04	2.219404E-05
3.491426E+03	5.020129E-04	2.241607E-05
3.501373E+03	5.096440E-04	2.263930E-05
3.511320E+03	5.173340E-04	2.286129E-05
3.521267E+03	5.251288E-04	2.308401E-05
3.531214E+03	5.329736E-04	2.330498E-05
3.541161E+03	5.409150E-04	2.352620E-05
3.551108E+03	5.488972E-04	2.374516E-05
3.561055E+03	5.569668E-04	2.396384E-05
3.571002E+03	5.650670E-04	2.417973E-05
3.580949E+03	5.732435E-04	2.439475E-05
3.590896E+03	5.814916E-04	2.460863E-05
3.600844E+03	5.898051E-04	2.482107E-05
3.610791E+03	5.981253E-04	2.502955E-05
3.620738E+03	6.064447E-04	2.523374E-05
3.630685E+03	6.148632E-04	2.543777E-05
3.640632E+03	6.232672E-04	2.563690E-05
3.650579E+03	6.317022E-04	2.583300E-05
3.660526E+03	6.401608E-04	2.602572E-05
3.670473E+03	6.485811E-04	2.621256E-05
3.680420E+03	6.570622E-04	2.639751E-05
3.690367E+03	6.654877E-04	2.657588E-05
3.700314E+03	6.739028E-04	2.674951E-05
3.710261E+03	6.822976E-04	2.691802E-05
3.720208E+03	6.906639E-04	2.708108E-05
3.730156E+03	6.989909E-04	2.723831E-05
3.740103E+03	7.072688E-04	2.738935E-05
3.750050E+03	7.154879E-04	2.753388E-05
3.759997E+03	7.236374E-04	2.767152E-05
3.769944E+03	7.316523E-04	2.779985E-05
3.779891E+03	7.396309E-04	2.792270E-05
3.789838E+03	7.475080E-04	2.803765E-05
3.799785E+03	7.552720E-04	2.814435E-05
3.809732E+03	7.629676E-04	2.824454E-05
3.819679E+03	7.704736E-04	2.833383E-05
3.829626E+03	7.778883E-04	2.841596E-05
3.839573E+03	7.850917E-04	2.848665E-05
3.849521E+03	7.921815E-04	2.854959E-05
3.859468E+03	7.990929E-04	2.860256E-05
3.869415E+03	8.058150E-04	2.864531E-05
3.879362E+03	8.123916E-04	2.867955E-05
3.889309E+03	8.187583E-04	2.870315E-05
3.899256E+03	8.248515E-04	2.871407E-05
3.909203E+03	8.308236E-04	2.871778E-05
3.919150E+03	8.365039E-04	2.870855E-05
3.929097E+03	8.419922E-04	2.869000E-05
3.939044E+03	8.472274E-04	2.866024E-05
3.948991E+03	8.522549E-04	2.862101E-05
3.958938E+03	8.570173E-04	2.857055E-05
3.968886E+03	8.615093E-04	2.850893E-05
3.978833E+03	8.657282E-04	2.843628E-05
3.988780E+03	8.697238E-04	2.835444E-05
3.998727E+03	8.734437E-04	2.826193E-05
4.008674E+03	8.769404E-04	2.816064E-05
4.018621E+03	8.801664E-04	2.804928E-05
4.028568E+03	8.831278E-04	2.792825E-05
4.038515E+03	8.858814E-04	2.779956E-05
4.048462E+03	8.883879E-04	2.766218E-05
4.058409E+03	8.907079E-04	2.751819E-05
4.068356E+03	8.928082E-04	2.736675E-05
4.078303E+03	8.947062E-04	2.720857E-05
4.088251E+03	8.964698E-04	2.704589E-05
4.098198E+03	8.980728E-04	2.687807E-05
4.108145E+03	8.995874E-04	2.670739E-05
4.118092E+03	9.009937E-04	2.653337E-05
4.128039E+03	9.023209E-04	2.635698E-05
4.137986E+03	9.036004E-04	2.617924E-05
4.147933E+03	9.049105E-04	2.600245E-05
4.157880E+03	9.062853E-04	2.582762E-05
4.167827E+03	9.076728E-04	2.565328E-05
4.177774E+03	9.091989E-04	2.548297E-05
4.187721E+03	9.109023E-04	2.531774E-05
4.197668E+03	9.127377E-04	2.515626E-05
4.207615E+03	9.148329E-04	2.500196E-05
4.217563E+03	9.171884E-04	2.485475E-05
4.227510E+03	9.198901E-04	2.471679E-05
4.237457E+03	9.228996E-04	2.458688E-05
4.247404E+03	9.263459E-04	2.446827E-05
4.257351E+03	9.302339E-04	2.436086E-05
4.267298E+03	9.346118E-04	2.426567E-05
4.277245E+03	9.395673E-04	2.418468E-05
4.287192E+03	9.450681E-04	2.411676E-05
4.297139E+03	9.512427E-04	2.406487E-05
4.307086E+03	9.580592E-04	2.402785E-05
4.317033E+03	9.656448E-04	2.400852E-05
4.326980E+03	9.739662E-04	2.400566E-05
4.336928E+03	9.831464E-04	2.402189E-05
4.346875E+03	9.931471E-04	2.405584E-05
4.356822E+03	1.004045E-03	2.410893E-05
4.366769E+03	1.015871E-03	2.418147E-05
4.376716E+03	1.028650E-03	2.427359E-05
4.386663E+03	1.042398E-03	2.438523E-05
4.396610E+03	1.057090E-03	2.451531E-05
4.406557E+03	1.072767E-03	2.466441E-05
4.416504E+03	1.089429E-03	2.483207E-05
4.426451E+03	1.107029E-03	2.501685E-05
4.436398E+03	1.125596E-03	2.521901E-05
4.446345E+03	1.145072E-03	2.543691E-05
4.456293E+03	1.165477E-03	2.567067E-05
4.466240E+03	1.186742E-03	2.591849E-05
4.476187E+03	1.208876E-03	2.618029E-05
4.486134E+03	1.231796E-03	2.645401E-05
4.496081E+03	1.255456E-03	2.673836E-05
4.506028E+03	1.279801E-03	2.703192E-05
4.515975E+03	1.304816E-03	2.733412E-05
4.525922E+03	1.330345E-03	2.764156E-05
4.535869E+03	1.356403E-03	2.795437E-05
4.545816E+03	1.382865E-03	2.826989E-05
4.555763E+03	1.409598E-03	2.858532E-05
4.565710E+03	1.436595E-03	2.890055E-05
4.575658E+03	1.463663E-03	2.921169E-05
4.585605E+03	1.490736E-03	2.951755E-05
4.595552E+03	1.517698E-03	2.981593E-05
4.605499E+03	1.544377E-03	3.010366E-05
4.615446E+03	1.570691E-03	3.037938E-05
4.625393E+03	1.596504E-03	3.064074E-05
4.635340E+03	1.621630E-03	3.088453E-05
4.645287E+03	1.645927E-03	3.110844E-05
4.655234E+03	1.669302E-03	3.131118E-05
4.665181E+03	1.691570E-03	3.148975E-05
4.675128E+03	1.712651E-03	3.164320E-05
4.685075E+03	1.732335E-03	3.176824E-05
4.695022E+03	1.750636E-03	3.186572E-05
4.704970E+03	1.767451E-03	3.193440E-05
4.714917E+03	1.782767E-03	3.197468E-05
4.724864E+03	1.796556E-03	3.198664E-05
4.734811E+03	1.808962E-03	3.197345E-05
4.744758E+03	1.820000E-03	3.193591E-05
4.754705E+03	1.829697E-03	3.187501E-05
4.764652E+03	1.838184E-03	3.179352E-05
4.774599E+03	1.845549E-03	3.169337E-05
4.784546E+03	1.851876E-03	3.157641E-05
4.794493E+03	1.857206E-03	3.144367E-05
4.804440E+03	1.861674E-03	3.129771E-05
4.814387E+03	1.865320E-03	3.113936E-05
4.824335E+03	1.868227E-03	3.097012E-05
4.834282E+03	1.870522E-03	3.079217E-05
4.844229E+03	1.872274E-03	3.060671E-05
4.854176E+03	1.873460E-03	3.041338E-05
4.864123E+03	1.874233E-03	3.021469E-05
4.874070E+03	1.874604E-03	3.001079E-05
4.884017E+03	1.874671E-03	2.980324E-05
4.893964E+03	1.874391E-03	2.959133E-05
4.903911E+03	1.873855E-03	2.937643E-05
4.913858E+03	1.873149E-03	2.915983E-05
4.923805E+03	1.872267E-03	2.894140E-05
4.933752E+03	1.871203E-03	2.872096E-05
4.943700E+03	1.870083E-03	2.850035E-05
4.953647E+03	1.868853E-03	2.827871E-05
4.963594E+03	1.867593E-03	2.805713E-05
4.973541E+03	1.866337E-03	2.783606E-05
4.983488E+03	1.865118E-03	2.761590E-05
4.993435E+03	1.863971E-03	2.739706E-05
5.003382E+03	1.862888E-03	2.717933E-05
5.013329E+03	1.861944E-03	2.696372E-05
5.023276E+03	1.861172E-03	2.675061E-05
5.033223E+03	1.860564E-03	2.653978E-05
5.043170E+03	1.860195E-03	2.633219E-05
5.053117E+03	1.860095E-03	2.612818E-05
5.063064E+03	1.860258E-03	2.592753E-05
5.073012E+03	1.860754E-03	2.573114E-05
5.082959E+03	1.861612E-03	2.553931E-05
5.092906E+03	1.862784E-03	2.535126E-05
5.102853E+03	1.864415E-03	2.516888E-05
5.112800E+03	1.866452E-03	2.499134E-05
5.122747E+03	1.868919E-03	2.481887E-05
5.132694E+03	1.871874E-03	2.465217E-05
5.142641E+03	1.875297E-03	2.449087E-05
5.152588E+03	1.879241E-03	2.433561E-05
5.162535E+03	1.883679E-03	2.418595E-05
5.172482E+03	1.888618E-03	2.404195E-05
5.182429E+03	1.894102E-03	2.390412E-05
5.192377E+03	1.900129E-03	2.377242E-05
5.202324E+03	1.906624E-03	2.364590E-05
5.212271E+03	1.913656E-03	2.352543E-05
5.222218E+03	1.921181E-03	2.341052E-05
5.232165E+03	1.929227E-03	2.330156E-05
5.242112E+03	1.937746E-03	2.319805E-05
5.252059E+03	1.946724E-03	2.309997E-05
5.262006E+03	1.956186E-03	2.300774E-05
5.271953E+03	1.966082E-03	2.292096E-05
5.281900E+03	1.976398E-03	2.283965E-05
5.291847E+03	1.987158E-03	2.276436E-05
5.301794E+03	1.998273E-03	2.269433E-05
5.311742E+03	2.009808E-03	2.263062E-05
5.321689E+03	2.021753E-03	2.257344E-05
5.331636E+03	2.034021E-03	2.252222E-05
5.341583E+03	2.046681E-03	2.247814E-05
5.351530E+03	2.059688E-03	2.244116E-05
5.361477E+03	2.073038E-03	2.241172E-05
5.371424E+03	2.086767E-03	2.239072E-05
5.381371E+03	2.100832E-03	2.237830E-05
5.391318E+03	2.115234E-03	2.237503E-05
5.401265E+03	2.129973E-03	2.238156E-05
5.411212E+03	2.145047E-03	2.239853E-05
5.421159E+03	2.160456E-03	2.242662E-05
5.431107E+03	2.176232E-03	2.246691E-05
5.441054E+03	2.192330E-03	2.251965E-05
5.451001E+03	2.208733E-03	2.258548E-05
5.460948E+03	2.225418E-03	2.266493E-05
5.470895E+03	2.242349E-03	2.275848E-05
5.480842E+03	2.259483E-03	2.286651E-05
5.490789E+03	2.276765E-03	2.298932E-05
5.500736E+03	2.294174E-03	2.312751E-05
5.510683E+03	2.311564E-03	2.328048E-05
5.520630E+03	2.328949E-03	2.344918E-05
5.530577E+03	2.346184E-03	2.363287E-05
5.540524E+03	2.363289E-03	2.383185E-05
5.550471E+03	2.380123E-03	2.404452E-05
5.560419E+03	2.396719E-03	2.427096E-05
5.570366E+03	2.412957E-03	2.450962E-05
5.580313E+03	2.428847E-03	2.476025E-05
5.590260E+03	2.444412E-03	2.502264E-05
5.600207E+03	2.459562E-03	2.529540E-05
5.610154E+03	2.474343E-03	2.557845E-05
5.620101E+03	2.488766E-03	2.587139E-05
5.630048E+03	2.502815E-03	2.617343E-05
5.639995E+03	2.516565E-03	2.648476E-05
5.649942E+03	2.530097E-03	2.680560E-05
5.659889E+03	2.543334E-03	2.713453E-05
5.669836E+03	2.556455E-03	2.747282E-05
5.679784E+03	2.569434E-03	2.781958E-05
5.689731E+03	2.582375E-03	2.817533E-05
5.699678E+03	2.595340E-03	2.854015E-05
5.709625E+03	2.608352E-03	2.891374E-05
5.719572E+03	2.621472E-03	2.929624E-05
5.729519E+03	2.634845E-03	2.968875E-05
5.739466E+03	2.648399E-03	3.008999E-05
5.749413E+03	2.662311E-03	3.050150E-05
5.759360E+03	2.676495E-03	3.092188E-05
5.769307E+03	2.691068E-03	3.135208E-05
5.779254E+03	2.706054E-03	3.179199E-05
5.789201E+03	2.721418E-03	3.224086E-05
5.799149E+03	2.737157E-03	3.269831E-05
5.809096E+03	2.753256E-03	3.316382E-05
5.819043E+03	2.769729E-03	3.363724E-05
5.828990E+03	2.786491E-03	3.411723E-05
5.838937E+03	2.803487E-03	3.460278E-05
5.848884E+03	2.820654E-03	3.509280E-05
5.858831E+03	2.837963E-03	3.558660E-05
5.868778E+03	2.855247E-03	3.608173E-05
5.878725E+03	2.872512E-03	3.657792E-05
5.888672E+03	2.889630E-03	3.707318E-05
5.898619E+03	2.906518E-03	3.756608E-05
5.908566E+03	2.923052E-03	3.805460E-05
5.918514E+03	2.939248E-03	3.853859E-05
5.928461E+03	2.954997E-03	3.901621E-05
5.938408E+03	2.970241E-03	3.948628E-05
5.948355E+03	2.984884E-03	3.994714E-05
5.958302E+03	2.998979E-03	4.039910E-05
5.968249E+03	3.012402E-03	4.084011E-05
5.978196E+03	3.025174E-03	4.127008E-05
5.988143E+03	3.037279E-03	4.168839E-05
5.998090E+03	3.048702E-03	4.209452E-05
6.008037E+03	3.059432E-03	4.248797E-05
6.017984E+03	3.069458E-03	4.286827E-05
6.027931E+03	3.078722E-03	4.323429E-05
6.037878E+03	3.087255E-03	4.358618E-05
6.047826E+03	3.095038E-03	4.392342E-05
6.057773E+03	3.101999E-03	4.424469E-05
6.067720E+03	3.108201E-03	4.455066E-05
6.077667E+03	3.113511E-03	4.483918E-05
6.087614E+03	3.117885E-03	4.510939E-05
6.097561E+03	3.121369E-03	4.536175E-05
6.107508E+03	3.123820E-03	4.559396E-05
6.117455E+03	3.125238E-03	4.580581E-05
6.127402E+03	3.125584E-03	4.599658E-05
6.137349E+03	3.124787E-03	4.616504E-05
6.147296E+03	3.122897E-03	4.631176E-05
6.157243E+03	3.119943E-03	4.643707E-05
6.167191E+03	3.115993E-03	4.654184E-05
6.177138E+03	3.111103E-03	4.662684E-05
6.187085E+03	3.105502E-03	4.669542E-05
6.197032E+03	3.099253E-03	4.674848E-05
6.206979E+03	3.092531E-03	4.678859E-05
6.216926E+03	3.085609E-03	4.681991E-05
6.226873E+03	3.078573E-03	4.684379E-05
6.236820E+03	3.071692E-03	4.686436E-05
6.246767E+03	3.065035E-03	4.688280E-05
6.256714E+03	3.058804E-03	4.690229E-05
6.266661E+03	3.053138E-03	4.692511E-05
6.276608E+03	3.048163E-03	4.695335E-05
6.286556E+03	3.043992E-03	4.698888E-05
6.296503E+03	3.040723E-03	4.703339E-05
6.306450E+03	3.038437E-03	4.708834E-05
6.316397E+03	3.037205E-03	4.715495E-05
6.326344E+03	3.037081E-03	4.723426E-05
6.336291E+03	3.038151E-03	4.732778E-05
6.346238E+03	3.040347E-03	4.743461E-05
6.356185E+03	3.043768E-03	4.755646E-05
6.366132E+03	3.048356E-03	4.769260E-05
6.376079E+03	3.054083E-03	4.784269E-05
6.386026E+03	3.060940E-03	4.800679E-05
6.395973E+03	3.068806E-03	4.818310E-05
6.405921E+03	3.077578E-03	4.837012E-05
6.415868E+03	3.087173E-03	4.856666E-05
6.425815E+03	3.097384E-03	4.876957E-05
6.435762E+03	3.108067E-03	4.897670E-05
6.445709E+03	3.118955E-03	4.918388E-05
6.455656E+03	3.129892E-03	4.938856E-05
6.465603E+03	3.140450E-03	4.958380E-05
6.475550E+03	3.150470E-03	4.976684E-05
6.485497E+03	3.159530E-03	4.993079E-05
6.495444E+03	3.167341E-03	5.007083E-05
6.505391E+03	3.173558E-03	5.018127E-05
6.515338E+03	3.177791E-03	5.025572E-05
6.525285E+03	3.179810E-03	5.029033E-05
6.535233E+03	3.179260E-03	5.027930E-05
6.545180E+03	3.175819E-03	5.021737E-05
6.555127E+03	3.169358E-03	5.010237E-05
6.565074E+03	3.159649E-03	4.993060E-05
6.575021E+03	3.146576E-03	4.970017E-05
6.584968E+03	3.130086E-03	4.941024E-05
6.594915E+03	3.110242E-03	4.906183E-05
6.604862E+03	3.087074E-03	4.865549E-05
6.614809E+03	3.060725E-03	4.819361E-05
6.624756E+03	3.031443E-03	4.768024E-05
6.634703E+03	2.999428E-03	4.711873E-05
6.644650E+03	2.964968E-03	4.651384E-05
6.654598E+03	2.928476E-03	4.587229E-05
6.664545E+03	2.890147E-03	4.519739E-05
6.674492E+03	2.850468E-03	4.449703E-05
6.684439E+03	2.809691E-03	4.377542E-05
6.694386E+03	2.768157E-03	4.303815E-05
6.704333E+03	2.726281E-03	4.229192E-05
6.714280E+03	2.684282E-03	4.154038E-05
6.724227E+03	2.642490E-03	4.078884E-05
6.734174E+03	2.601165E-03	4.004154E-05
6.744121E+03	2.560545E-03	3.930227E-05
6.754068E+03	2.520838E-03	3.857438E-05
6.764015E+03	2.482189E-03	3.786021E-05
6.773963E+03	2.444837E-03	3.716345E-05
6.783910E+03	2.408877E-03	3.648560E-05
6.793857E+03	2.374422E-03	3.582836E-05
6.803804E+03	2.341562E-03	3.519306E-05
6.813751E+03	2.310370E-03	3.458075E-05
6.823698E+03	2.280901E-03	3.399214E-05
6.833645E+03	2.253230E-03	3.342824E-05
6.843592E+03	2.227345E-03	3.288872E-05
6.853539E+03	2.203259E-03	3.237358E-05
6.863486E+03	2.180975E-03	3.188267E-05
6.873433E+03	2.160520E-03	3.141616E-05
6.883380E+03	2.141844E-03	3.097308E-05
6.893327E+03	2.124960E-03	3.055335E-05
6.903275E+03	2.109770E-03	3.015529E-05
6.913222E+03	2.096349E-03	2.977967E-05
6.923169E+03	2.084590E-03	2.942469E-05
6.933116E+03	2.074457E-03	2.908948E-05
6.943063E+03	2.065944E-03	2.877369E-05
6.953010E+03	2.058978E-03	2.847592E-05
6.962957E+03	2.053550E-03	2.819576E-05
6.972904E+03	2.049584E-03	2.793182E-05
6.982851E+03	2.047074E-03	2.768367E-05
6.992798E+03	2.045979E-03	2.745043E-05
7.002745E+03	2.046223E-03	2.723074E-05
7.012692E+03	2.047802E-03	2.702424E-05
7.022640E+03	2.050641E-03	2.682961E-05
7.032587E+03	2.054739E-03	2.664651E-05
7.042534E+03	2.060057E-03	2.647418E-05
7.052481E+03	2.066561E-03	2.631184E-05
7.062428E+03	2.074179E-03	2.615832E-05
7.072375E+03	2.082910E-03	2.601336E-05
7.082322E+03	2.092719E-03	2.587628E-05
7.092269E+03	2.103532E-03	2.574596E-05
7.102216E+03	2.115346E-03	2.562217E-05
7.112163E+03	2.128120E-03	2.550425E-05
7.122110E+03	2.141807E-03	2.539154E-05
7.132057E+03	2.156357E-03	2.528333E-05
7.142005E+03	2.171675E-03	2.517850E-05
7.151952E+03	2.187736E-03	2.507679E-05
7.161899E+03	2.204471E-03	2.497745E-05
7.171846E+03	2.221802E-03	2.487976E-05
7.181793E+03	2.239645E-03	2.478298E-05
7.191740E+03	2.257867E-03	2.468596E-05
7.201687E+03	2.276409E-03	2.458842E-05
7.211634E+03	2.295165E-03	2.448971E-05
7.221581E+03	2.314023E-03	2.438919E-05
7.231528E+03	2.332870E-03	2.428634E-05
7.241475E+03	2.351586E-03	2.418071E-05
7.251422E+03	2.370050E-03	2.407194E-05
7.261370E+03	2.388099E-03	2.395938E-05
7.271317E+03	2.405653E-03	2.384336E-05
7.281264E+03	2.422640E-03	2.372437E-05
7.291211E+03	2.438857E-03	2.360176E-05
7.301158E+03	2.454239E-03	2.347633E-05
7.311105E+03	2.468682E-03	2.334860E-05
7.321052E+03	2.482093E-03	2.321927E-05
7.330999E+03	2.494336E-03	2.308875E-05
7.340946E+03	2.505424E-03	2.295889E-05
7.350893E+03	2.515195E-03	2.282995E-05
7.360840E+03	2.523682E-03	2.270398E-05
7.370787E+03	2.530738E-03	2.258146E-05
7.380734E+03	2.536367E-03	2.246416E-05
7.390682E+03	2.540580E-03	2.235389E-05
7.400629E+03	2.543257E-03	2.225122E-05
7.410576E+03	2.544427E-03	2.215797E-05
7.420523E+03	2.544086E-03	2.207551E-05
7.430470E+03	2.542190E-03	2.200476E-05
7.440417E+03	2.538851E-03	2.194782E-05
7.450364E+03	2.534055E-03	2.190550E-05
7.460311E+03	2.527799E-03	2.187809E-05
7.470258E+03	2.520239E-03	2.186640E-05
7.480205E+03	2.511400E-03	2.186985E-05
7.490152E+03	2.501317E-03	2.188780E-05
7.500099E+03	2.490132E-03	2.192039E-05
7.510047E+03	2.477994E-03	2.196775E-05
7.519994E+03	2.464918E-03	2.202870E-05
7.529941E+03	2.451064E-03	2.210335E-05
7.539888E+03	2.436548E-03	2.219133E-05
7.549835E+03	2.421483E-03	2.229228E-05
7.559782E+03	2.405975E-03	2.240579E-05
7.569729E+03	2.390126E-03	2.253144E-05
7.579676E+03	2.374027E-03	2.266876E-05
7.589623E+03	2.357758E-03	2.281723E-05
7.599570E+03	2.341341E-03	2.297587E-05
7.609517E+03	2.324929E-03	2.314499E-05
7.619464E+03	2.308519E-03	2.332351E-05
7.629412E+03	2.292105E-03	2.351033E-05
7.639359E+03	2.275802E-03	2.370569E-05
7.649306E+03	2.259538E-03	2.390795E-05
7.659253E+03	2.243415E-03	2.411736E-05
7.669200E+03	2.227348E-03	2.433225E-05
7.679147E+03	2.211383E-03	2.455238E-05
7.689094E+03	2.195562E-03	2.477759E-05
7.699041E+03	2.179793E-03	2.500623E-05
7.708988E+03	2.164115E-03	2.523817E-05
7.718935E+03	2.148526E-03	2.547284E-05
