#wls	flux	fluxerr
1.573255E+03	2.338811E-16	1.225136E-17
1.612586E+03	2.452271E-16	1.265547E-17
1.651917E+03	2.564352E-16	1.303331E-17
1.691249E+03	2.673418E-16	1.337697E-17
1.730580E+03	2.778165E-16	1.368074E-17
1.769912E+03	2.876825E-16	1.393711E-17
1.809243E+03	2.966336E-16	1.413304E-17
1.848574E+03	3.044605E-16	1.426108E-17
1.887906E+03	3.108710E-16	1.431070E-17
1.927237E+03	3.158911E-16	1.428676E-17
1.966568E+03	3.200086E-16	1.421461E-17
2.005900E+03	3.244420E-16	1.414992E-17
2.045231E+03	3.310850E-16	1.417337E-17
2.084562E+03	3.423992E-16	1.438351E-17
2.123894E+03	3.610329E-16	1.487881E-17
2.163225E+03	3.884109E-16	1.570014E-17
2.202557E+03	4.236952E-16	1.679463E-17
2.241888E+03	4.642117E-16	1.804114E-17
2.281219E+03	5.071668E-16	1.932255E-17
2.320551E+03	5.511890E-16	2.058340E-17
2.359882E+03	5.955886E-16	2.179708E-17
2.399213E+03	6.399231E-16	2.294792E-17
2.438545E+03	6.840447E-16	2.403188E-17
2.477876E+03	7.274556E-16	2.503327E-17
2.517207E+03	7.686909E-16	2.590525E-17
2.556539E+03	8.045154E-16	2.654667E-17
2.595870E+03	8.313088E-16	2.685292E-17
2.635202E+03	8.499661E-16	2.687188E-17
2.674533E+03	8.652806E-16	2.676925E-17
2.713864E+03	8.816946E-16	2.668694E-17
2.753196E+03	9.023739E-16	2.671690E-17
2.792527E+03	9.295802E-16	2.691568E-17
2.831858E+03	9.652908E-16	2.732601E-17
2.871190E+03	1.011459E-15	2.798518E-17
2.910521E+03	1.069899E-15	2.892210E-17
2.949853E+03	1.142423E-15	3.016142E-17
2.959685E+03	1.162911E-15	3.051953E-17
2.969518E+03	1.184327E-15	3.089568E-17
2.979351E+03	1.206769E-15	3.129204E-17
2.989184E+03	1.230175E-15	3.170648E-17
2.999017E+03	1.254541E-15	3.213851E-17
3.008850E+03	1.279912E-15	3.258883E-17
3.018682E+03	1.306175E-15	3.305412E-17
3.028515E+03	1.333366E-15	3.353493E-17
3.038348E+03	1.361401E-15	3.402872E-17
3.048181E+03	1.390128E-15	3.453135E-17
3.058014E+03	1.419566E-15	3.504304E-17
3.067847E+03	1.449499E-15	3.555818E-17
3.077679E+03	1.479747E-15	3.607216E-17
3.087512E+03	1.510217E-15	3.658267E-17
3.097345E+03	1.540631E-15	3.708293E-17
3.107178E+03	1.570802E-15	3.756858E-17
3.117011E+03	1.600477E-15	3.803374E-17
3.126844E+03	1.629446E-15	3.847375E-17
3.136676E+03	1.657376E-15	3.888119E-17
3.146509E+03	1.684108E-15	3.925286E-17
3.156342E+03	1.709325E-15	3.958207E-17
3.166175E+03	1.732861E-15	3.986572E-17
3.176008E+03	1.754598E-15	4.010200E-17
3.185841E+03	1.774418E-15	4.028907E-17
3.195674E+03	1.792307E-15	4.042756E-17
3.205506E+03	1.808197E-15	4.051689E-17
3.215339E+03	1.822208E-15	4.056069E-17
3.225172E+03	1.834614E-15	4.056595E-17
3.235005E+03	1.845587E-15	4.053726E-17
3.244838E+03	1.855631E-15	4.048626E-17
3.254671E+03	1.864986E-15	4.041872E-17
3.264503E+03	1.874095E-15	4.034452E-17
3.274336E+03	1.883106E-15	4.026700E-17
3.284169E+03	1.892110E-15	4.018829E-17
3.294002E+03	1.901195E-15	4.011029E-17
3.303835E+03	1.910281E-15	4.003141E-17
3.313668E+03	1.919270E-15	3.994971E-17
3.323500E+03	1.928131E-15	3.986469E-17
3.333333E+03	1.936856E-15	3.977635E-17
3.343166E+03	1.945368E-15	3.968330E-17
3.352999E+03	1.953729E-15	3.958701E-17
3.362832E+03	1.961856E-15	3.948595E-17
3.372665E+03	1.969755E-15	3.938048E-17
3.382498E+03	1.977306E-15	3.926842E-17
3.392330E+03	1.984362E-15	3.914716E-17
3.402163E+03	1.990778E-15	3.901416E-17
3.411996E+03	1.996478E-15	3.886830E-17
3.421829E+03	2.001381E-15	3.870844E-17
3.431662E+03	2.005447E-15	3.853421E-17
3.441495E+03	2.008668E-15	3.834592E-17
3.451327E+03	2.011074E-15	3.814447E-17
3.461160E+03	2.012724E-15	3.793130E-17
3.470993E+03	2.013719E-15	3.770857E-17
3.480826E+03	2.014200E-15	3.747914E-17
3.490659E+03	2.014425E-15	3.724800E-17
3.500492E+03	2.014841E-15	3.702341E-17
3.510324E+03	2.015960E-15	3.681464E-17
3.520157E+03	2.018543E-15	3.663513E-17
3.529990E+03	2.023312E-15	3.649726E-17
3.539823E+03	2.031043E-15	3.641413E-17
3.549656E+03	2.042241E-15	3.639360E-17
3.559489E+03	2.057061E-15	3.643724E-17
3.569322E+03	2.075112E-15	3.653689E-17
3.579154E+03	2.095588E-15	3.667734E-17
3.588987E+03	2.117145E-15	3.683435E-17
3.598820E+03	2.138119E-15	3.697874E-17
3.608653E+03	2.156739E-15	3.708017E-17
3.618486E+03	2.171382E-15	3.711153E-17
3.628319E+03	2.180954E-15	3.705535E-17
3.638151E+03	2.185026E-15	3.690579E-17
3.647984E+03	2.184030E-15	3.667167E-17
3.657817E+03	2.179080E-15	3.637297E-17
3.667650E+03	2.171732E-15	3.603655E-17
3.677483E+03	2.163694E-15	3.569118E-17
3.687316E+03	2.156380E-15	3.536016E-17
3.697148E+03	2.150785E-15	3.505936E-17
3.706981E+03	2.147227E-15	3.479336E-17
3.716814E+03	2.145300E-15	3.455494E-17
3.726647E+03	2.143967E-15	3.432694E-17
3.736480E+03	2.141776E-15	3.408602E-17
3.746313E+03	2.137107E-15	3.380674E-17
3.756146E+03	2.128690E-15	3.346978E-17
3.765978E+03	2.115872E-15	3.306595E-17
3.775811E+03	2.098763E-15	3.259820E-17
3.785644E+03	2.078020E-15	3.207787E-17
3.795477E+03	2.054789E-15	3.152354E-17
3.805310E+03	2.030364E-15	3.095564E-17
3.815143E+03	2.005910E-15	3.039213E-17
3.824975E+03	1.982328E-15	2.984660E-17
3.834808E+03	1.960174E-15	2.932713E-17
3.844641E+03	1.939805E-15	2.883862E-17
3.854474E+03	1.921431E-15	2.838371E-17
3.864307E+03	1.905183E-15	2.796378E-17
3.874140E+03	1.891155E-15	2.757963E-17
3.883972E+03	1.879466E-15	2.723240E-17
3.893805E+03	1.870156E-15	2.692211E-17
3.903638E+03	1.863326E-15	2.664955E-17
3.913471E+03	1.859012E-15	2.641465E-17
3.923304E+03	1.857246E-15	2.621722E-17
3.933137E+03	1.857938E-15	2.605542E-17
3.942970E+03	1.860945E-15	2.592668E-17
3.952802E+03	1.866047E-15	2.582745E-17
3.962635E+03	1.872921E-15	2.575285E-17
3.972468E+03	1.881135E-15	2.569669E-17
3.982301E+03	1.890162E-15	2.565160E-17
3.992134E+03	1.899380E-15	2.560918E-17
4.001967E+03	1.907965E-15	2.555855E-17
4.011799E+03	1.915043E-15	2.548846E-17
4.021632E+03	1.919624E-15	2.538644E-17
4.031465E+03	1.920787E-15	2.524126E-17
4.041298E+03	1.917896E-15	2.504570E-17
4.051131E+03	1.910782E-15	2.479878E-17
4.060964E+03	1.899948E-15	2.450824E-17
4.070796E+03	1.886689E-15	2.419173E-17
4.080629E+03	1.872924E-15	2.387450E-17
4.090462E+03	1.861029E-15	2.358693E-17
4.100295E+03	1.853244E-15	2.335704E-17
4.110128E+03	1.850966E-15	2.320172E-17
4.119961E+03	1.854420E-15	2.312291E-17
4.129794E+03	1.862604E-15	2.310736E-17
4.139626E+03	1.873648E-15	2.313144E-17
4.149459E+03	1.885130E-15	2.316531E-17
4.159292E+03	1.894627E-15	2.317963E-17
4.169125E+03	1.900277E-15	2.315246E-17
4.178958E+03	1.901213E-15	2.307422E-17
4.188791E+03	1.897628E-15	2.294825E-17
4.198623E+03	1.890606E-15	2.278845E-17
4.208456E+03	1.881727E-15	2.261446E-17
4.218289E+03	1.872621E-15	2.244618E-17
4.228122E+03	1.864364E-15	2.229670E-17
4.237955E+03	1.857185E-15	2.216883E-17
4.247788E+03	1.850506E-15	2.205577E-17
4.257620E+03	1.843196E-15	2.194422E-17
4.267453E+03	1.833920E-15	2.181837E-17
4.277286E+03	1.821546E-15	2.166467E-17
4.287119E+03	1.805560E-15	2.147652E-17
4.296952E+03	1.786293E-15	2.125728E-17
4.306785E+03	1.764636E-15	2.101687E-17
4.316618E+03	1.741728E-15	2.076819E-17
4.326450E+03	1.718570E-15	2.052246E-17
4.336283E+03	1.695929E-15	2.028825E-17
4.346116E+03	1.674327E-15	2.007121E-17
4.355949E+03	1.654043E-15	1.987419E-17
4.365782E+03	1.635286E-15	1.969927E-17
4.375615E+03	1.618174E-15	1.954748E-17
4.385447E+03	1.602949E-15	1.942143E-17
4.395280E+03	1.590000E-15	1.932561E-17
4.405113E+03	1.579895E-15	1.926676E-17
4.414946E+03	1.573442E-15	1.925470E-17
4.424779E+03	1.571356E-15	1.929835E-17
4.434612E+03	1.574087E-15	1.940348E-17
4.444444E+03	1.581582E-15	1.956979E-17
4.454277E+03	1.593252E-15	1.979034E-17
4.464110E+03	1.608094E-15	2.005297E-17
4.473943E+03	1.624806E-15	2.034156E-17
4.483776E+03	1.641887E-15	2.063727E-17
4.493609E+03	1.657871E-15	2.092141E-17
4.503441E+03	1.671451E-15	2.117697E-17
4.513274E+03	1.681674E-15	2.139120E-17
4.523107E+03	1.688065E-15	2.155728E-17
4.532940E+03	1.690640E-15	2.167456E-17
4.542773E+03	1.689808E-15	2.174750E-17
4.552606E+03	1.686079E-15	2.178195E-17
4.562439E+03	1.679957E-15	2.178380E-17
4.572271E+03	1.671845E-15	2.175776E-17
4.582104E+03	1.662165E-15	2.170888E-17
4.591937E+03	1.651370E-15	2.164270E-17
4.601770E+03	1.639879E-15	2.156446E-17
4.611603E+03	1.628078E-15	2.147904E-17
4.621436E+03	1.616226E-15	2.138968E-17
4.631268E+03	1.604557E-15	2.129941E-17
4.641101E+03	1.593275E-15	2.121086E-17
4.650934E+03	1.582574E-15	2.112662E-17
4.660767E+03	1.572628E-15	2.104899E-17
4.670600E+03	1.563562E-15	2.097967E-17
4.680433E+03	1.555354E-15	2.091841E-17
4.690265E+03	1.547873E-15	2.086347E-17
4.700098E+03	1.540816E-15	2.081077E-17
4.709931E+03	1.533785E-15	2.075494E-17
4.719764E+03	1.526336E-15	2.068992E-17
4.729597E+03	1.518117E-15	2.061089E-17
4.739430E+03	1.508969E-15	2.051562E-17
4.749263E+03	1.498924E-15	2.040453E-17
4.759095E+03	1.488206E-15	2.028063E-17
4.768928E+03	1.477193E-15	2.014908E-17
4.778761E+03	1.466234E-15	2.001468E-17
4.788594E+03	1.455564E-15	1.988068E-17
4.798427E+03	1.445191E-15	1.974727E-17
4.808260E+03	1.434993E-15	1.961286E-17
4.818092E+03	1.424829E-15	1.947556E-17
4.827925E+03	1.414627E-15	1.933447E-17
4.837758E+03	1.404448E-15	1.919048E-17
4.847591E+03	1.394500E-15	1.904655E-17
4.857424E+03	1.385107E-15	1.890716E-17
4.867257E+03	1.376607E-15	1.877701E-17
4.877089E+03	1.369292E-15	1.866011E-17
4.886922E+03	1.363262E-15	1.855789E-17
4.896755E+03	1.358522E-15	1.847043E-17
4.906588E+03	1.354909E-15	1.839552E-17
4.916421E+03	1.352203E-15	1.833019E-17
4.926254E+03	1.350186E-15	1.827151E-17
4.936087E+03	1.348679E-15	1.821710E-17
4.945919E+03	1.347649E-15	1.816652E-17
4.955752E+03	1.347235E-15	1.812171E-17
4.965585E+03	1.347628E-15	1.808526E-17
4.975418E+03	1.349115E-15	1.806101E-17
4.985251E+03	1.351834E-15	1.805077E-17
4.995084E+03	1.355687E-15	1.805322E-17
5.004916E+03	1.360209E-15	1.806212E-17
5.014749E+03	1.364647E-15	1.806752E-17
5.024582E+03	1.368030E-15	1.805672E-17
5.034415E+03	1.369436E-15	1.801782E-17
5.044248E+03	1.368147E-15	1.794178E-17
5.054081E+03	1.363977E-15	1.782666E-17
5.063913E+03	1.357363E-15	1.767868E-17
5.073746E+03	1.349185E-15	1.750979E-17
5.083579E+03	1.340553E-15	1.733470E-17
5.093412E+03	1.332576E-15	1.716796E-17
5.103245E+03	1.326157E-15	1.702125E-17
5.113078E+03	1.321907E-15	1.690232E-17
5.122911E+03	1.320091E-15	1.681442E-17
5.132743E+03	1.320622E-15	1.675629E-17
5.142576E+03	1.323135E-15	1.672313E-17
5.152409E+03	1.327023E-15	1.670722E-17
5.162242E+03	1.331559E-15	1.669943E-17
5.172075E+03	1.336039E-15	1.669109E-17
5.181908E+03	1.339873E-15	1.667509E-17
5.191740E+03	1.342687E-15	1.664710E-17
5.201573E+03	1.344345E-15	1.660581E-17
5.211406E+03	1.344965E-15	1.655310E-17
5.221239E+03	1.344853E-15	1.649307E-17
5.231072E+03	1.344330E-15	1.642997E-17
5.240905E+03	1.343705E-15	1.636786E-17
5.250737E+03	1.343141E-15	1.630899E-17
5.260570E+03	1.342695E-15	1.625425E-17
5.270403E+03	1.342264E-15	1.620265E-17
5.280236E+03	1.341597E-15	1.615139E-17
5.290069E+03	1.340298E-15	1.609599E-17
5.299902E+03	1.337876E-15	1.603084E-17
5.309735E+03	1.333779E-15	1.594965E-17
5.319567E+03	1.327566E-15	1.584748E-17
5.329400E+03	1.318938E-15	1.572104E-17
5.339233E+03	1.307875E-15	1.557030E-17
5.349066E+03	1.294754E-15	1.539992E-17
5.358899E+03	1.280260E-15	1.521804E-17
5.368732E+03	1.265352E-15	1.503577E-17
5.378564E+03	1.250961E-15	1.486389E-17
5.388397E+03	1.237911E-15	1.471185E-17
5.398230E+03	1.226779E-15	1.458624E-17
5.408063E+03	1.217786E-15	1.448944E-17
5.417896E+03	1.210762E-15	1.441923E-17
5.427729E+03	1.205272E-15	1.437025E-17
5.437561E+03	1.200625E-15	1.433409E-17
5.447394E+03	1.196051E-15	1.430137E-17
5.457227E+03	1.190795E-15	1.426283E-17
5.467060E+03	1.184284E-15	1.421138E-17
5.476893E+03	1.176163E-15	1.414241E-17
5.486726E+03	1.166334E-15	1.405445E-17
5.496559E+03	1.154901E-15	1.394837E-17
5.506391E+03	1.142130E-15	1.382708E-17
5.516224E+03	1.128380E-15	1.369460E-17
5.526057E+03	1.114058E-15	1.355558E-17
5.535890E+03	1.099568E-15	1.341473E-17
5.545723E+03	1.085284E-15	1.327641E-17
5.555556E+03	1.071563E-15	1.314486E-17
5.565388E+03	1.058719E-15	1.302385E-17
5.575221E+03	1.047024E-15	1.291667E-17
5.585054E+03	1.036724E-15	1.282638E-17
5.594887E+03	1.027937E-15	1.275446E-17
5.604720E+03	1.020733E-15	1.270184E-17
5.614553E+03	1.015096E-15	1.266840E-17
5.624385E+03	1.010872E-15	1.265228E-17
5.634218E+03	1.007844E-15	1.265083E-17
5.644051E+03	1.005733E-15	1.266062E-17
5.653884E+03	1.004228E-15	1.267772E-17
5.663717E+03	1.002968E-15	1.269759E-17
5.673550E+03	1.001621E-15	1.271597E-17
5.683382E+03	9.998742E-16	1.272882E-17
5.693215E+03	9.974489E-16	1.273249E-17
5.703048E+03	9.941323E-16	1.272416E-17
5.712881E+03	9.897927E-16	1.270202E-17
5.722714E+03	9.843775E-16	1.266525E-17
5.732547E+03	9.779933E-16	1.261511E-17
5.742380E+03	9.708249E-16	1.255389E-17
5.752212E+03	9.632392E-16	1.248627E-17
5.762045E+03	9.557338E-16	1.241868E-17
5.771878E+03	9.489029E-16	1.235886E-17
5.781711E+03	9.434239E-16	1.231575E-17
5.791544E+03	9.399164E-16	1.229758E-17
5.801377E+03	9.389036E-16	1.231141E-17
5.811209E+03	9.407230E-16	1.236190E-17
5.821042E+03	9.454967E-16	1.245093E-17
5.830875E+03	9.530919E-16	1.257699E-17
5.840708E+03	9.630743E-16	1.273461E-17
5.850541E+03	9.748211E-16	1.291574E-17
5.860374E+03	9.874742E-16	1.310916E-17
5.870206E+03	1.000083E-15	1.330232E-17
5.880039E+03	1.011621E-15	1.348158E-17
5.889872E+03	1.021149E-15	1.363435E-17
5.899705E+03	1.027954E-15	1.375101E-17
5.909538E+03	1.031607E-15	1.382565E-17
5.919371E+03	1.032050E-15	1.385734E-17
5.929204E+03	1.029529E-15	1.384919E-17
5.939036E+03	1.024501E-15	1.380724E-17
5.948869E+03	1.017492E-15	1.373844E-17
5.958702E+03	1.009049E-15	1.365016E-17
5.968535E+03	9.997062E-16	1.354957E-17
5.978368E+03	9.899342E-16	1.344308E-17
5.988201E+03	9.801291E-16	1.333610E-17
5.998033E+03	9.706836E-16	1.323407E-17
6.007866E+03	9.619271E-16	1.314159E-17
6.017699E+03	9.541399E-16	1.306260E-17
6.027532E+03	9.475884E-16	1.300093E-17
6.037365E+03	9.424892E-16	1.295974E-17
6.047198E+03	9.390097E-16	1.294152E-17
6.057030E+03	9.372455E-16	1.294785E-17
6.066863E+03	9.372583E-16	1.297981E-17
6.076696E+03	9.389532E-16	1.303637E-17
6.086529E+03	9.421758E-16	1.311564E-17
6.096362E+03	9.466306E-16	1.321378E-17
6.106195E+03	9.519161E-16	1.332540E-17
6.116028E+03	9.575616E-16	1.344404E-17
6.125860E+03	9.630480E-16	1.356243E-17
6.135693E+03	9.678952E-16	1.367369E-17
6.145526E+03	9.716754E-16	1.377163E-17
6.155359E+03	9.741054E-16	1.385203E-17
6.165192E+03	9.750195E-16	1.391224E-17
6.175025E+03	9.743386E-16	1.395085E-17
6.184857E+03	9.720361E-16	1.396717E-17
6.194690E+03	9.680992E-16	1.396067E-17
6.204523E+03	9.625905E-16	1.393192E-17
6.214356E+03	9.556068E-16	1.388199E-17
6.224189E+03	9.473567E-16	1.381360E-17
6.234022E+03	9.382369E-16	1.373225E-17
6.243854E+03	9.288155E-16	1.364606E-17
6.253687E+03	9.198229E-16	1.356567E-17
6.263520E+03	9.121144E-16	1.350373E-17
6.273353E+03	9.065186E-16	1.347269E-17
6.283186E+03	9.038416E-16	1.348488E-17
6.293019E+03	9.046444E-16	1.354914E-17
6.302852E+03	9.092718E-16	1.367119E-17
6.312684E+03	9.177034E-16	1.385135E-17
6.322517E+03	9.296376E-16	1.408564E-17
6.332350E+03	9.444025E-16	1.436439E-17
6.342183E+03	9.610557E-16	1.467359E-17
6.352016E+03	9.784470E-16	1.499586E-17
6.361849E+03	9.952867E-16	1.531135E-17
6.371681E+03	1.010347E-15	1.560090E-17
6.381514E+03	1.022525E-15	1.584701E-17
6.391347E+03	1.031087E-15	1.603764E-17
6.401180E+03	1.035630E-15	1.616579E-17
6.411013E+03	1.036074E-15	1.622943E-17
6.420846E+03	1.032681E-15	1.623190E-17
6.430678E+03	1.025905E-15	1.617967E-17
6.440511E+03	1.016364E-15	1.608193E-17
6.450344E+03	1.004768E-15	1.594945E-17
6.460177E+03	9.918932E-16	1.579424E-17
6.470010E+03	9.785097E-16	1.562839E-17
6.479843E+03	9.654140E-16	1.546455E-17
6.489676E+03	9.533396E-16	1.531453E-17
6.499508E+03	9.429021E-16	1.518839E-17
6.509341E+03	9.345797E-16	1.509402E-17
6.519174E+03	9.286700E-16	1.503652E-17
6.529007E+03	9.252181E-16	1.501686E-17
6.538840E+03	9.239998E-16	1.503166E-17
6.548673E+03	9.245863E-16	1.507413E-17
6.558505E+03	9.264109E-16	1.513515E-17
6.568338E+03	9.288146E-16	1.520399E-17
6.578171E+03	9.312087E-16	1.527100E-17
6.588004E+03	9.331367E-16	1.532862E-17
6.597837E+03	9.344391E-16	1.537412E-17
6.607670E+03	9.351195E-16	1.540747E-17
6.617502E+03	9.353581E-16	1.543156E-17
6.627335E+03	9.353065E-16	1.544883E-17
6.637168E+03	9.351009E-16	1.546146E-17
6.647001E+03	9.347187E-16	1.546906E-17
6.656834E+03	9.339965E-16	1.546888E-17
6.666667E+03	9.326101E-16	1.545551E-17
6.676500E+03	9.301214E-16	1.542165E-17
6.686332E+03	9.261485E-16	1.536094E-17
6.696165E+03	9.203599E-16	1.526786E-17
6.705998E+03	9.126921E-16	1.514136E-17
6.715831E+03	9.033561E-16	1.498497E-17
6.725664E+03	8.927308E-16	1.480505E-17
6.735497E+03	8.813793E-16	1.461102E-17
6.745329E+03	8.698528E-16	1.441208E-17
6.755162E+03	8.586275E-16	1.421622E-17
6.764995E+03	8.480732E-16	1.402962E-17
6.774828E+03	8.383987E-16	1.385578E-17
6.784661E+03	8.297088E-16	1.369645E-17
6.794494E+03	8.219327E-16	1.355049E-17
6.804326E+03	8.149459E-16	1.341584E-17
6.814159E+03	8.085521E-16	1.328929E-17
6.823992E+03	8.025103E-16	1.316689E-17
6.833825E+03	7.966445E-16	1.304578E-17
6.843658E+03	7.907706E-16	1.292300E-17
6.853491E+03	7.847637E-16	1.279657E-17
6.863324E+03	7.785400E-16	1.266521E-17
6.873156E+03	7.721000E-16	1.252902E-17
6.882989E+03	7.654900E-16	1.238883E-17
6.892822E+03	7.588003E-16	1.224621E-17
6.902655E+03	7.521844E-16	1.210371E-17
6.912488E+03	7.458489E-16	1.196471E-17
6.922321E+03	7.399896E-16	1.183238E-17
6.932153E+03	7.348607E-16	1.171077E-17
6.941986E+03	7.306508E-16	1.160283E-17
6.951819E+03	7.275485E-16	1.151145E-17
6.961652E+03	7.256633E-16	1.143825E-17
6.971485E+03	7.250580E-16	1.138406E-17
6.981318E+03	7.256902E-16	1.134801E-17
6.991150E+03	7.274583E-16	1.132837E-17
7.000983E+03	7.302170E-16	1.132271E-17
7.010816E+03	7.337285E-16	1.132721E-17
7.020649E+03	7.377216E-16	1.133760E-17
7.030482E+03	7.418187E-16	1.134808E-17
7.040315E+03	7.455302E-16	1.135123E-17
7.050147E+03	7.483272E-16	1.133920E-17
7.059980E+03	7.496655E-16	1.130405E-17
7.069813E+03	7.490489E-16	1.123878E-17
7.079646E+03	7.461927E-16	1.113966E-17
7.089479E+03	7.410116E-16	1.100605E-17
7.099312E+03	7.337075E-16	1.084159E-17
7.109145E+03	7.247159E-16	1.065328E-17
7.118977E+03	7.146236E-16	1.045022E-17
7.128810E+03	7.040719E-16	1.024211E-17
7.138643E+03	6.937171E-16	1.003869E-17
7.148476E+03	6.841263E-16	9.848190E-18
7.158309E+03	6.757341E-16	9.676786E-18
7.168142E+03	6.688529E-16	9.528779E-18
7.177974E+03	6.636675E-16	9.406582E-18
7.187807E+03	6.602071E-16	9.310368E-18
7.197640E+03	6.583976E-16	9.238868E-18
7.207473E+03	6.581316E-16	9.190389E-18
7.217306E+03	6.592146E-16	9.162077E-18
7.227139E+03	6.613971E-16	9.150397E-18
7.236971E+03	6.643963E-16	9.151433E-18
7.246804E+03	6.678001E-16	9.159596E-18
7.256637E+03	6.711476E-16	9.168736E-18
7.266470E+03	6.739400E-16	9.172303E-18
7.276303E+03	6.756460E-16	9.163404E-18
7.286136E+03	6.758233E-16	9.136437E-18
7.295969E+03	6.741590E-16	9.087592E-18
7.305801E+03	6.705721E-16	9.016178E-18
7.315634E+03	6.652252E-16	8.924729E-18
7.325467E+03	6.584491E-16	8.817956E-18
7.335300E+03	6.507767E-16	8.703178E-18
7.345133E+03	6.427614E-16	8.587908E-18
7.354966E+03	6.349208E-16	8.479123E-18
7.364798E+03	6.276551E-16	8.382200E-18
7.374631E+03	6.212303E-16	8.300736E-18
7.384464E+03	6.158003E-16	8.236846E-18
7.394297E+03	6.113990E-16	8.191079E-18
7.404130E+03	6.079668E-16	8.162761E-18
7.413963E+03	6.054134E-16	8.150833E-18
7.423795E+03	6.036076E-16	8.153701E-18
7.433628E+03	6.024177E-16	8.169732E-18
7.443461E+03	6.017410E-16	8.197566E-18
7.453294E+03	6.015166E-16	8.236378E-18
7.463127E+03	6.017078E-16	8.285678E-18
7.472960E+03	6.022826E-16	8.345037E-18
7.482793E+03	6.031665E-16	8.413435E-18
7.492625E+03	6.042338E-16	8.489115E-18
7.502458E+03	6.053447E-16	8.570072E-18
7.512291E+03	6.063152E-16	8.653609E-18
7.522124E+03	6.069411E-16	8.736645E-18
7.531957E+03	6.070145E-16	8.815930E-18
7.541790E+03	6.063416E-16	8.888290E-18
7.551622E+03	6.047756E-16	8.951117E-18
7.561455E+03	6.021981E-16	9.002108E-18
7.571288E+03	5.985684E-16	9.040030E-18
7.581121E+03	5.939284E-16	9.064853E-18
7.590954E+03	5.883772E-16	9.077421E-18
7.600787E+03	5.820647E-16	9.079411E-18
7.610619E+03	5.752165E-16	9.073777E-18
7.620452E+03	5.680998E-16	9.064284E-18
7.630285E+03	5.609788E-16	9.054837E-18
