#wls	flux	fluxerr
1.573255E+03	1.387781E-19	5.967934E-20
1.612586E+03	1.457825E-19	6.263182E-20
1.651917E+03	1.529437E-19	6.564465E-20
1.691249E+03	1.601550E-19	6.867174E-20
1.730580E+03	1.672826E-19	7.165543E-20
1.769912E+03	1.743736E-19	7.461584E-20
1.809243E+03	1.810899E-19	7.740831E-20
1.848574E+03	1.873750E-19	8.000903E-20
1.887906E+03	1.927958E-19	8.223368E-20
1.927237E+03	1.971863E-19	8.401256E-20
1.966568E+03	2.004251E-19	8.529538E-20
2.005900E+03	2.027264E-19	8.617473E-20
2.045231E+03	2.047859E-19	8.694735E-20
2.084562E+03	2.080933E-19	8.824527E-20
2.123894E+03	2.143166E-19	9.077285E-20
2.163225E+03	2.245335E-19	9.498134E-20
2.202557E+03	2.392292E-19	1.010690E-19
2.241888E+03	2.576968E-19	1.087301E-19
2.281219E+03	2.787276E-19	1.174484E-19
2.320551E+03	3.013132E-19	1.267947E-19
2.359882E+03	3.245014E-19	1.363656E-19
2.399213E+03	3.477492E-19	1.459317E-19
2.438545E+03	3.707541E-19	1.553652E-19
2.477876E+03	3.932265E-19	1.645448E-19
2.517207E+03	4.152195E-19	1.734931E-19
2.556539E+03	4.365450E-19	1.821318E-19
2.595870E+03	4.571538E-19	1.904411E-19
2.635202E+03	4.773103E-19	1.985317E-19
2.674533E+03	4.971381E-19	2.064554E-19
2.713864E+03	5.164216E-19	2.141227E-19
2.753196E+03	5.354279E-19	2.216450E-19
2.792527E+03	5.542583E-19	2.290640E-19
2.831858E+03	5.728287E-19	2.363450E-19
2.871190E+03	5.915836E-19	2.436712E-19
2.910521E+03	6.102346E-19	2.509232E-19
2.949853E+03	6.290254E-19	2.582009E-19
2.959685E+03	6.338996E-19	2.600876E-19
2.969518E+03	6.386890E-19	2.619375E-19
2.979351E+03	6.433897E-19	2.637490E-19
2.989184E+03	6.481932E-19	2.656006E-19
2.999017E+03	6.531102E-19	2.674966E-19
3.008850E+03	6.579613E-19	2.693634E-19
3.018682E+03	6.629299E-19	2.712763E-19
3.028515E+03	6.680096E-19	2.732324E-19
3.038348E+03	6.730044E-19	2.751516E-19
3.048181E+03	6.781072E-19	2.771128E-19
3.058014E+03	6.833295E-19	2.791205E-19
3.067847E+03	6.884676E-19	2.810916E-19
3.077679E+03	6.938988E-19	2.831801E-19
3.087512E+03	6.992259E-19	2.852237E-19
3.097345E+03	7.046337E-19	2.872979E-19
3.107178E+03	7.101130E-19	2.893989E-19
3.117011E+03	7.156547E-19	2.915229E-19
3.126844E+03	7.212498E-19	2.936663E-19
3.136676E+03	7.268902E-19	2.958256E-19
3.146509E+03	7.325667E-19	2.979971E-19
3.156342E+03	7.382712E-19	3.001775E-19
3.166175E+03	7.439950E-19	3.023632E-19
3.176008E+03	7.497291E-19	3.045506E-19
3.185841E+03	7.554663E-19	3.067368E-19
3.195674E+03	7.613896E-19	3.089959E-19
3.205506E+03	7.671053E-19	3.111682E-19
3.215339E+03	7.729897E-19	3.134064E-19
3.225172E+03	7.790324E-19	3.157061E-19
3.235005E+03	7.848426E-19	3.179090E-19
3.244838E+03	7.907921E-19	3.201657E-19
3.254671E+03	7.968718E-19	3.224725E-19
3.264503E+03	8.028808E-19	3.247480E-19
3.274336E+03	8.088100E-19	3.269885E-19
3.284169E+03	8.148387E-19	3.292666E-19
3.294002E+03	8.207678E-19	3.315018E-19
3.303835E+03	8.269600E-19	3.338406E-19
3.313668E+03	8.330309E-19	3.361276E-19
3.323500E+03	8.389713E-19	3.383594E-19
3.333333E+03	8.451372E-19	3.406794E-19
3.343166E+03	8.511497E-19	3.429348E-19
3.352999E+03	8.573610E-19	3.452676E-19
3.362832E+03	8.633955E-19	3.475265E-19
3.372665E+03	8.694223E-19	3.497796E-19
3.382498E+03	8.756057E-19	3.520929E-19
3.392330E+03	8.815771E-19	3.543183E-19
3.402163E+03	8.876773E-19	3.565928E-19
3.411996E+03	8.937161E-19	3.588399E-19
3.421829E+03	8.998527E-19	3.611235E-19
3.431662E+03	9.058989E-19	3.633681E-19
3.441495E+03	9.120128E-19	3.656372E-19
3.451327E+03	9.180085E-19	3.678562E-19
3.461160E+03	9.240412E-19	3.700874E-19
3.470993E+03	9.300945E-19	3.723241E-19
3.480826E+03	9.359892E-19	3.744946E-19
3.490659E+03	9.420370E-19	3.767238E-19
3.500492E+03	9.478984E-19	3.788757E-19
3.510324E+03	9.538799E-19	3.810730E-19
3.520157E+03	9.598050E-19	3.832452E-19
3.529990E+03	9.656602E-19	3.853868E-19
3.539823E+03	9.714325E-19	3.874928E-19
3.549656E+03	9.772601E-19	3.896182E-19
3.559489E+03	9.829764E-19	3.916967E-19
3.569322E+03	9.887181E-19	3.937829E-19
3.579154E+03	9.944693E-19	3.958702E-19
3.588987E+03	1.000071E-18	3.978956E-19
3.598820E+03	1.005657E-18	3.999121E-19
3.608653E+03	1.011353E-18	4.019702E-19
3.618486E+03	1.016866E-18	4.039530E-19
3.628319E+03	1.022463E-18	4.059666E-19
3.638151E+03	1.027858E-18	4.078979E-19
3.647984E+03	1.033445E-18	4.099029E-19
3.657817E+03	1.038815E-18	4.118191E-19
3.667650E+03	1.044221E-18	4.137475E-19
3.677483E+03	1.049651E-18	4.156833E-19
3.687316E+03	1.055095E-18	4.176225E-19
3.697148E+03	1.060422E-18	4.195126E-19
3.706981E+03	1.065868E-18	4.214478E-19
3.716814E+03	1.071303E-18	4.233759E-19
3.726647E+03	1.076602E-18	4.252486E-19
3.736480E+03	1.082111E-18	4.272019E-19
3.746313E+03	1.087475E-18	4.290955E-19
3.756146E+03	1.092919E-18	4.310184E-19
3.765978E+03	1.098434E-18	4.329671E-19
3.775811E+03	1.104013E-18	4.349390E-19
3.785644E+03	1.109545E-18	4.368899E-19
3.795477E+03	1.115238E-18	4.389021E-19
3.805310E+03	1.120980E-18	4.409312E-19
3.815143E+03	1.126768E-18	4.429761E-19
3.824975E+03	1.132599E-18	4.450359E-19
3.834808E+03	1.138667E-18	4.471859E-19
3.844641E+03	1.144673E-18	4.493098E-19
3.854474E+03	1.150905E-18	4.515197E-19
3.864307E+03	1.157260E-18	4.537755E-19
3.874140E+03	1.163645E-18	4.560407E-19
3.883972E+03	1.170329E-18	4.584207E-19
3.893805E+03	1.177038E-18	4.608080E-19
3.903638E+03	1.183949E-18	4.632714E-19
3.913471E+03	1.191054E-18	4.658086E-19
3.923304E+03	1.198352E-18	4.684182E-19
3.933137E+03	1.205755E-18	4.710664E-19
3.942970E+03	1.213427E-18	4.738169E-19
3.952802E+03	1.221282E-18	4.766361E-19
3.962635E+03	1.229398E-18	4.795539E-19
3.972468E+03	1.237692E-18	4.825386E-19
3.982301E+03	1.246317E-18	4.856491E-19
3.992134E+03	1.255117E-18	4.888245E-19
4.001967E+03	1.264166E-18	4.920942E-19
4.011799E+03	1.273537E-18	4.954856E-19
4.021632E+03	1.283153E-18	4.989693E-19
4.031465E+03	1.293086E-18	5.025727E-19
4.041298E+03	1.303334E-18	5.062950E-19
4.051131E+03	1.313828E-18	5.101093E-19
4.060964E+03	1.324705E-18	5.140686E-19
4.070796E+03	1.335963E-18	5.181721E-19
4.080629E+03	1.347472E-18	5.223690E-19
4.090462E+03	1.359430E-18	5.267358E-19
4.100295E+03	1.371709E-18	5.312231E-19
4.110128E+03	1.384439E-18	5.358809E-19
4.119961E+03	1.397499E-18	5.406620E-19
4.129794E+03	1.411017E-18	5.456162E-19
4.139626E+03	1.424998E-18	5.507447E-19
4.149459E+03	1.439388E-18	5.560264E-19
4.159292E+03	1.454312E-18	5.615099E-19
4.169125E+03	1.469660E-18	5.671522E-19
4.178958E+03	1.485559E-18	5.730021E-19
4.188791E+03	1.501961E-18	5.790404E-19
4.198623E+03	1.518932E-18	5.852932E-19
4.208456E+03	1.536485E-18	5.917647E-19
4.218289E+03	1.554633E-18	5.984597E-19
4.228122E+03	1.573390E-18	6.053834E-19
4.237955E+03	1.592772E-18	6.125415E-19
4.247788E+03	1.612849E-18	6.199609E-19
4.257620E+03	1.633585E-18	6.276273E-19
4.267453E+03	1.655104E-18	6.355880E-19
4.277286E+03	1.677320E-18	6.438098E-19
4.287119E+03	1.700358E-18	6.523401E-19
4.296952E+03	1.724185E-18	6.611663E-19
4.306785E+03	1.748873E-18	6.703155E-19
4.316618E+03	1.774392E-18	6.797755E-19
4.326450E+03	1.800860E-18	6.895915E-19
4.336283E+03	1.828194E-18	6.997315E-19
4.346116E+03	1.856511E-18	7.102395E-19
4.355949E+03	1.885776E-18	7.211017E-19
4.365782E+03	1.916053E-18	7.323427E-19
4.375615E+03	1.947357E-18	7.439673E-19
4.385447E+03	1.979655E-18	7.559628E-19
4.395280E+03	2.013056E-18	7.683705E-19
4.405113E+03	2.047529E-18	7.811780E-19
4.414946E+03	2.083087E-18	7.943900E-19
4.424779E+03	2.119839E-18	8.080478E-19
4.434612E+03	2.157660E-18	8.221028E-19
4.444444E+03	2.196704E-18	8.366137E-19
4.454277E+03	2.236891E-18	8.515499E-19
4.464110E+03	2.278331E-18	8.669522E-19
4.473943E+03	2.320943E-18	8.827899E-19
4.483776E+03	2.364742E-18	8.990687E-19
4.493609E+03	2.409789E-18	9.158106E-19
4.503441E+03	2.456007E-18	9.329862E-19
4.513274E+03	2.503409E-18	9.506003E-19
4.523107E+03	2.551963E-18	9.686403E-19
4.532940E+03	2.601638E-18	9.870942E-19
4.542773E+03	2.652447E-18	1.005967E-18
4.552606E+03	2.704312E-18	1.025228E-18
4.562439E+03	2.757202E-18	1.044865E-18
4.572271E+03	2.811128E-18	1.064884E-18
4.582104E+03	2.865968E-18	1.085236E-18
4.591937E+03	2.921686E-18	1.105909E-18
4.601770E+03	2.978295E-18	1.126907E-18
4.611603E+03	3.035668E-18	1.148182E-18
4.621436E+03	3.093817E-18	1.169739E-18
4.631268E+03	3.152612E-18	1.191528E-18
4.641101E+03	3.212018E-18	1.213536E-18
4.650934E+03	3.271949E-18	1.235731E-18
4.660767E+03	3.332367E-18	1.258099E-18
4.670600E+03	3.393140E-18	1.280588E-18
4.680433E+03	3.454223E-18	1.303185E-18
4.690265E+03	3.515529E-18	1.325854E-18
4.700098E+03	3.576963E-18	1.348561E-18
4.709931E+03	3.638434E-18	1.371272E-18
4.719764E+03	3.699842E-18	1.393949E-18
4.729597E+03	3.761137E-18	1.416574E-18
4.739430E+03	3.822169E-18	1.439091E-18
4.749263E+03	3.882834E-18	1.461461E-18
4.759095E+03	3.943023E-18	1.483643E-18
4.768928E+03	4.002719E-18	1.505632E-18
4.778761E+03	4.061759E-18	1.527367E-18
4.788594E+03	4.120026E-18	1.548804E-18
4.798427E+03	4.177587E-18	1.569969E-18
4.808260E+03	4.234221E-18	1.590780E-18
4.818092E+03	4.289943E-18	1.611243E-18
4.827925E+03	4.344667E-18	1.631327E-18
4.837758E+03	4.398355E-18	1.651017E-18
4.847591E+03	4.450963E-18	1.670298E-18
4.857424E+03	4.502347E-18	1.689117E-18
4.867257E+03	4.552506E-18	1.707474E-18
4.877089E+03	4.601389E-18	1.725350E-18
4.886922E+03	4.648939E-18	1.742725E-18
4.896755E+03	4.695051E-18	1.759561E-18
4.906588E+03	4.739713E-18	1.775852E-18
4.916421E+03	4.782913E-18	1.791596E-18
4.926254E+03	4.824536E-18	1.806751E-18
4.936087E+03	4.864567E-18	1.821311E-18
4.945919E+03	4.902888E-18	1.835233E-18
4.955752E+03	4.939580E-18	1.848549E-18
4.965585E+03	4.974525E-18	1.861214E-18
4.975418E+03	5.007703E-18	1.873221E-18
4.985251E+03	5.039043E-18	1.884546E-18
4.995084E+03	5.068527E-18	1.895182E-18
5.004916E+03	5.096185E-18	1.905140E-18
5.014749E+03	5.121897E-18	1.914378E-18
5.024582E+03	5.145646E-18	1.922888E-18
5.034415E+03	5.167465E-18	1.930684E-18
5.044248E+03	5.187344E-18	1.937763E-18
5.054081E+03	5.205215E-18	1.944101E-18
5.063913E+03	5.221064E-18	1.949692E-18
5.073746E+03	5.234939E-18	1.954555E-18
5.083579E+03	5.246726E-18	1.958648E-18
5.093412E+03	5.256577E-18	1.962028E-18
5.103245E+03	5.264341E-18	1.964640E-18
5.113078E+03	5.270115E-18	1.966520E-18
5.122911E+03	5.273909E-18	1.967672E-18
5.132743E+03	5.275678E-18	1.968080E-18
5.142576E+03	5.275481E-18	1.967767E-18
5.152409E+03	5.273343E-18	1.966741E-18
5.162242E+03	5.269282E-18	1.965011E-18
5.172075E+03	5.263265E-18	1.962565E-18
5.181908E+03	5.255425E-18	1.959451E-18
5.191740E+03	5.245744E-18	1.955664E-18
5.201573E+03	5.234309E-18	1.951236E-18
5.211406E+03	5.221058E-18	1.946144E-18
5.221239E+03	5.206192E-18	1.940465E-18
5.231072E+03	5.189606E-18	1.934158E-18
5.240905E+03	5.171461E-18	1.927283E-18
5.250737E+03	5.151813E-18	1.919862E-18
5.260570E+03	5.130677E-18	1.911900E-18
5.270403E+03	5.108113E-18	1.903420E-18
5.280236E+03	5.084258E-18	1.894473E-18
5.290069E+03	5.059131E-18	1.885066E-18
5.299902E+03	5.032860E-18	1.875246E-18
5.309735E+03	5.005435E-18	1.865010E-18
5.319567E+03	4.977044E-18	1.854427E-18
5.329400E+03	4.947678E-18	1.843495E-18
5.339233E+03	4.917484E-18	1.832267E-18
5.349066E+03	4.886512E-18	1.820763E-18
5.358899E+03	4.854913E-18	1.809039E-18
5.368732E+03	4.822697E-18	1.797097E-18
5.378564E+03	4.789974E-18	1.784980E-18
5.388397E+03	4.756906E-18	1.772746E-18
5.398230E+03	4.723519E-18	1.760406E-18
5.408063E+03	4.689939E-18	1.748006E-18
5.417896E+03	4.656301E-18	1.735596E-18
5.427729E+03	4.622654E-18	1.723193E-18
5.437561E+03	4.589140E-18	1.710851E-18
5.447394E+03	4.555906E-18	1.698622E-18
5.457227E+03	4.522958E-18	1.686511E-18
5.467060E+03	4.490489E-18	1.674586E-18
5.476893E+03	4.458548E-18	1.662868E-18
5.486726E+03	4.427234E-18	1.651392E-18
5.496559E+03	4.396641E-18	1.640194E-18
5.506391E+03	4.366818E-18	1.629290E-18
5.516224E+03	4.337942E-18	1.618748E-18
5.526057E+03	4.310012E-18	1.608565E-18
5.535890E+03	4.283112E-18	1.598775E-18
5.545723E+03	4.257283E-18	1.589391E-18
5.555556E+03	4.232686E-18	1.580473E-18
5.565388E+03	4.209271E-18	1.572004E-18
5.575221E+03	4.187191E-18	1.564039E-18
5.585054E+03	4.166432E-18	1.556575E-18
5.594887E+03	4.147060E-18	1.549634E-18
5.604720E+03	4.129136E-18	1.543241E-18
5.614553E+03	4.112716E-18	1.537416E-18
5.624385E+03	4.097775E-18	1.532150E-18
5.634218E+03	4.084365E-18	1.527463E-18
5.644051E+03	4.072573E-18	1.523386E-18
5.653884E+03	4.062323E-18	1.519893E-18
5.663717E+03	4.053736E-18	1.517028E-18
5.673550E+03	4.046770E-18	1.514777E-18
5.683382E+03	4.041459E-18	1.513151E-18
5.693215E+03	4.037796E-18	1.512149E-18
5.703048E+03	4.035806E-18	1.511781E-18
5.712881E+03	4.035438E-18	1.512027E-18
5.722714E+03	4.036752E-18	1.512910E-18
5.732547E+03	4.039726E-18	1.514424E-18
5.742380E+03	4.044339E-18	1.516558E-18
5.752212E+03	4.050602E-18	1.519320E-18
5.762045E+03	4.058487E-18	1.522698E-18
5.771878E+03	4.067963E-18	1.526682E-18
5.781711E+03	4.078998E-18	1.531259E-18
5.791544E+03	4.091594E-18	1.536431E-18
5.801377E+03	4.105751E-18	1.542199E-18
5.811209E+03	4.121392E-18	1.548533E-18
5.821042E+03	4.138477E-18	1.555420E-18
5.830875E+03	4.157039E-18	1.562871E-18
5.840708E+03	4.176994E-18	1.570857E-18
5.850541E+03	4.198337E-18	1.579376E-18
5.860374E+03	4.221021E-18	1.588410E-18
5.870206E+03	4.244997E-18	1.597941E-18
5.880039E+03	4.270257E-18	1.607967E-18
5.889872E+03	4.296711E-18	1.618455E-18
5.899705E+03	4.324386E-18	1.629415E-18
5.909538E+03	4.353194E-18	1.640814E-18
5.919371E+03	4.383121E-18	1.652647E-18
5.929204E+03	4.414076E-18	1.664881E-18
5.939036E+03	4.446121E-18	1.677539E-18
5.948869E+03	4.479128E-18	1.690574E-18
5.958702E+03	4.513079E-18	1.703979E-18
5.968535E+03	4.547957E-18	1.717748E-18
5.978368E+03	4.583666E-18	1.731845E-18
5.988201E+03	4.620228E-18	1.746279E-18
5.998033E+03	4.657577E-18	1.761025E-18
6.007866E+03	4.695664E-18	1.776065E-18
6.017699E+03	4.734458E-18	1.791387E-18
6.027532E+03	4.773892E-18	1.806967E-18
6.037365E+03	4.813945E-18	1.822797E-18
6.047198E+03	4.854539E-18	1.838848E-18
6.057030E+03	4.895693E-18	1.855126E-18
6.066863E+03	4.937280E-18	1.871585E-18
6.076696E+03	4.979352E-18	1.888243E-18
6.086529E+03	5.021782E-18	1.905054E-18
6.096362E+03	5.064530E-18	1.922002E-18
6.106195E+03	5.107547E-18	1.939068E-18
6.116028E+03	5.150823E-18	1.956249E-18
6.125860E+03	5.194315E-18	1.973529E-18
6.135693E+03	5.237910E-18	1.990865E-18
6.145526E+03	5.281650E-18	2.008273E-18
6.155359E+03	5.325412E-18	2.025706E-18
6.165192E+03	5.369189E-18	2.043161E-18
6.175025E+03	5.412950E-18	2.060627E-18
6.184857E+03	5.456622E-18	2.078077E-18
6.194690E+03	5.500231E-18	2.095518E-18
6.204523E+03	5.543640E-18	2.112900E-18
6.214356E+03	5.586869E-18	2.130231E-18
6.224189E+03	5.629887E-18	2.147497E-18
6.234022E+03	5.672597E-18	2.164663E-18
6.243854E+03	5.714967E-18	2.181715E-18
6.253687E+03	5.756951E-18	2.198636E-18
6.263520E+03	5.798555E-18	2.215428E-18
6.273353E+03	5.839633E-18	2.232035E-18
6.283186E+03	5.880241E-18	2.248478E-18
6.293019E+03	5.920230E-18	2.264700E-18
6.302852E+03	5.959656E-18	2.280723E-18
6.312684E+03	5.998356E-18	2.296482E-18
6.322517E+03	6.036345E-18	2.311985E-18
6.332350E+03	6.073569E-18	2.327209E-18
6.342183E+03	6.110033E-18	2.342156E-18
6.352016E+03	6.145521E-18	2.356743E-18
6.361849E+03	6.180162E-18	2.371019E-18
6.371681E+03	6.213727E-18	2.384896E-18
6.381514E+03	6.246295E-18	2.398403E-18
6.391347E+03	6.277763E-18	2.411501E-18
6.401180E+03	6.307978E-18	2.424130E-18
6.411013E+03	6.336895E-18	2.436272E-18
6.420846E+03	6.364420E-18	2.447889E-18
6.430678E+03	6.390462E-18	2.458948E-18
6.440511E+03	6.414999E-18	2.469438E-18
6.450344E+03	6.437817E-18	2.479276E-18
6.460177E+03	6.458966E-18	2.488480E-18
6.470010E+03	6.478372E-18	2.497022E-18
6.479843E+03	6.495845E-18	2.504826E-18
6.489676E+03	6.511447E-18	2.511917E-18
6.499508E+03	6.525060E-18	2.518247E-18
6.509341E+03	6.536647E-18	2.523800E-18
6.519174E+03	6.546162E-18	2.528560E-18
6.529007E+03	6.553648E-18	2.532540E-18
6.538840E+03	6.559016E-18	2.535705E-18
6.548673E+03	6.562320E-18	2.538076E-18
6.558505E+03	6.563427E-18	2.539599E-18
6.568338E+03	6.562477E-18	2.540328E-18
6.578171E+03	6.559486E-18	2.540267E-18
6.588004E+03	6.554408E-18	2.539399E-18
6.597837E+03	6.547277E-18	2.537734E-18
6.607670E+03	6.538131E-18	2.535287E-18
6.617502E+03	6.527085E-18	2.532102E-18
6.627335E+03	6.514191E-18	2.528197E-18
6.637168E+03	6.499375E-18	2.523542E-18
6.647001E+03	6.482837E-18	2.518216E-18
6.656834E+03	6.464649E-18	2.512243E-18
6.666667E+03	6.444744E-18	2.505598E-18
6.676500E+03	6.423404E-18	2.498390E-18
6.686332E+03	6.400502E-18	2.490567E-18
6.696165E+03	6.376255E-18	2.482215E-18
6.705998E+03	6.350670E-18	2.473334E-18
6.715831E+03	6.323832E-18	2.463958E-18
6.725664E+03	6.295881E-18	2.454140E-18
6.735497E+03	6.266822E-18	2.443881E-18
6.745329E+03	6.236658E-18	2.433183E-18
6.755162E+03	6.205661E-18	2.422150E-18
6.764995E+03	6.173687E-18	2.410726E-18
6.774828E+03	6.140853E-18	2.398956E-18
6.784661E+03	6.107213E-18	2.386862E-18
6.794494E+03	6.072809E-18	2.374458E-18
6.804326E+03	6.037735E-18	2.361781E-18
6.814159E+03	6.001887E-18	2.348790E-18
6.823992E+03	5.965347E-18	2.335517E-18
6.833825E+03	5.928057E-18	2.321939E-18
6.843658E+03	5.890156E-18	2.308110E-18
6.853491E+03	5.851496E-18	2.293971E-18
6.863324E+03	5.812137E-18	2.279545E-18
6.873156E+03	5.771980E-18	2.264795E-18
6.882989E+03	5.731073E-18	2.249736E-18
6.892822E+03	5.689311E-18	2.234329E-18
6.902655E+03	5.646719E-18	2.218583E-18
6.912488E+03	5.603249E-18	2.202478E-18
6.922321E+03	5.558729E-18	2.185946E-18
6.932153E+03	5.513239E-18	2.169017E-18
6.941986E+03	5.466659E-18	2.151645E-18
6.951819E+03	5.419004E-18	2.133835E-18
6.961652E+03	5.370100E-18	2.115517E-18
6.971485E+03	5.320029E-18	2.096723E-18
6.981318E+03	5.268682E-18	2.077410E-18
6.991150E+03	5.215959E-18	2.057537E-18
7.000983E+03	5.161958E-18	2.037142E-18
7.010816E+03	5.106597E-18	2.016193E-18
7.020649E+03	5.049794E-18	1.994656E-18
7.030482E+03	4.991674E-18	1.972580E-18
7.040315E+03	4.932117E-18	1.949916E-18
7.050147E+03	4.871205E-18	1.926697E-18
7.059980E+03	4.808904E-18	1.902907E-18
7.069813E+03	4.745372E-18	1.878610E-18
7.079646E+03	4.680544E-18	1.853777E-18
7.089479E+03	4.614541E-18	1.828458E-18
7.099312E+03	4.547381E-18	1.802658E-18
7.109145E+03	4.479202E-18	1.776431E-18
7.118977E+03	4.410104E-18	1.749816E-18
7.128810E+03	4.340132E-18	1.722830E-18
7.138643E+03	4.269456E-18	1.695542E-18
7.148476E+03	4.198144E-18	1.667977E-18
7.158309E+03	4.126371E-18	1.640205E-18
7.168142E+03	4.054272E-18	1.612278E-18
7.177974E+03	3.981932E-18	1.584230E-18
7.187807E+03	3.909497E-18	1.556120E-18
7.197640E+03	3.837200E-18	1.528040E-18
7.207473E+03	3.765040E-18	1.499990E-18
7.217306E+03	3.693310E-18	1.472086E-18
7.227139E+03	3.622051E-18	1.444345E-18
7.236971E+03	3.551404E-18	1.416824E-18
7.246804E+03	3.481559E-18	1.389599E-18
7.256637E+03	3.412643E-18	1.362720E-18
7.266470E+03	3.344787E-18	1.336241E-18
7.276303E+03	3.278072E-18	1.310194E-18
7.286136E+03	3.212664E-18	1.284646E-18
7.295969E+03	3.148631E-18	1.259626E-18
7.305801E+03	3.086164E-18	1.235210E-18
7.315634E+03	3.025283E-18	1.211407E-18
7.325467E+03	2.966123E-18	1.188273E-18
7.335300E+03	2.908773E-18	1.165843E-18
7.345133E+03	2.853313E-18	1.144151E-18
7.354966E+03	2.799819E-18	1.123228E-18
7.364798E+03	2.748359E-18	1.103102E-18
7.374631E+03	2.699032E-18	1.083816E-18
7.384464E+03	2.651820E-18	1.065361E-18
7.394297E+03	2.606812E-18	1.047776E-18
7.404130E+03	2.564051E-18	1.031079E-18
7.413963E+03	2.523611E-18	1.015300E-18
7.423795E+03	2.485458E-18	1.000428E-18
7.433628E+03	2.449688E-18	9.865025E-19
7.443461E+03	2.416291E-18	9.735204E-19
7.453294E+03	2.385319E-18	9.615042E-19
7.463127E+03	2.356719E-18	9.504341E-19
7.472960E+03	2.330563E-18	9.403406E-19
7.482793E+03	2.306852E-18	9.312251E-19
7.492625E+03	2.285511E-18	9.230589E-19
7.502458E+03	2.266617E-18	9.158745E-19
7.512291E+03	2.250078E-18	9.096361E-19
7.522124E+03	2.235862E-18	9.043317E-19
7.531957E+03	2.223963E-18	8.999610E-19
7.541790E+03	2.214345E-18	8.965099E-19
7.551622E+03	2.206938E-18	8.939517E-19
7.561455E+03	2.201768E-18	8.922981E-19
7.571288E+03	2.198734E-18	8.915101E-19
7.581121E+03	2.197835E-18	8.915875E-19
7.590954E+03	2.199067E-18	8.925309E-19
7.600787E+03	2.202337E-18	8.943030E-19
7.610619E+03	2.207645E-18	8.969055E-19
7.620452E+03	2.214995E-18	9.003411E-19
7.630285E+03	2.224330E-18	9.045876E-19
