#wls	flux	fluxerr
1.567552E+03	7.240490E-02	1.063546E-03
1.606740E+03	7.297411E-02	1.066891E-03
1.645929E+03	7.355308E-02	1.070187E-03
1.685118E+03	7.414235E-02	1.073435E-03
1.724307E+03	7.474246E-02	1.076637E-03
1.763496E+03	7.535299E-02	1.079779E-03
1.802684E+03	7.597485E-02	1.082868E-03
1.841873E+03	7.660795E-02	1.085895E-03
1.881062E+03	7.725218E-02	1.088852E-03
1.920251E+03	7.790825E-02	1.091742E-03
1.959440E+03	7.857536E-02	1.094545E-03
1.998628E+03	7.925402E-02	1.097262E-03
2.037817E+03	7.994366E-02	1.099877E-03
2.077006E+03	8.064354E-02	1.102372E-03
2.116195E+03	8.135364E-02	1.104740E-03
2.155384E+03	8.207241E-02	1.106953E-03
2.194572E+03	8.279982E-02	1.109002E-03
2.233761E+03	8.353305E-02	1.110844E-03
2.272950E+03	8.427116E-02	1.112460E-03
2.312139E+03	8.501261E-02	1.113825E-03
2.351328E+03	8.575337E-02	1.114880E-03
2.390516E+03	8.649144E-02	1.115596E-03
2.429705E+03	8.722221E-02	1.115912E-03
2.468894E+03	8.794182E-02	1.115776E-03
2.508083E+03	8.864516E-02	1.115127E-03
2.547271E+03	8.932571E-02	1.113883E-03
2.586460E+03	8.997697E-02	1.111971E-03
2.625649E+03	9.058965E-02	1.109285E-03
2.664838E+03	9.115565E-02	1.105739E-03
2.704027E+03	9.166305E-02	1.101204E-03
2.743215E+03	9.210026E-02	1.095564E-03
2.782404E+03	9.245374E-02	1.088686E-03
2.821593E+03	9.270821E-02	1.080423E-03
2.860782E+03	9.284696E-02	1.070622E-03
2.899971E+03	9.285128E-02	1.059116E-03
2.939159E+03	9.270265E-02	1.045753E-03
2.948957E+03	9.263964E-02	1.042107E-03
2.958754E+03	9.256499E-02	1.038327E-03
2.968551E+03	9.247884E-02	1.034415E-03
2.978348E+03	9.238144E-02	1.030376E-03
2.988145E+03	9.227140E-02	1.026196E-03
2.997943E+03	9.214947E-02	1.021883E-03
3.007740E+03	9.201482E-02	1.017430E-03
3.017537E+03	9.186720E-02	1.012836E-03
3.027334E+03	9.170566E-02	1.008092E-03
3.037131E+03	9.153106E-02	1.003208E-03
3.046929E+03	9.134269E-02	9.981780E-04
3.056726E+03	9.114013E-02	9.929995E-04
3.066523E+03	9.092388E-02	9.876790E-04
3.076320E+03	9.069237E-02	9.822013E-04
3.086117E+03	9.044611E-02	9.765734E-04
3.095915E+03	9.018541E-02	9.708003E-04
3.105712E+03	8.990898E-02	9.648696E-04
3.115509E+03	8.961785E-02	9.587945E-04
3.125306E+03	8.931131E-02	9.525687E-04
3.135103E+03	8.898935E-02	9.461939E-04
3.144901E+03	8.865189E-02	9.396711E-04
3.154698E+03	8.829899E-02	9.330026E-04
3.164495E+03	8.793116E-02	9.261955E-04
3.174292E+03	8.754740E-02	9.192411E-04
3.184089E+03	8.714911E-02	9.121557E-04
3.193887E+03	8.673578E-02	9.049359E-04
3.203684E+03	8.630726E-02	8.975816E-04
3.213481E+03	8.586548E-02	8.901148E-04
3.223278E+03	8.540924E-02	8.825244E-04
3.233075E+03	8.493957E-02	8.748229E-04
3.242873E+03	8.445770E-02	8.670245E-04
3.252670E+03	8.396313E-02	8.591255E-04
3.262467E+03	8.345782E-02	8.511473E-04
3.272264E+03	8.294208E-02	8.430945E-04
3.282061E+03	8.241745E-02	8.349840E-04
3.291859E+03	8.188410E-02	8.268186E-04
3.301656E+03	8.134429E-02	8.186222E-04
3.311453E+03	8.079905E-02	8.104060E-04
3.321250E+03	8.024987E-02	8.021856E-04
3.331047E+03	7.969853E-02	7.939795E-04
3.340845E+03	7.914747E-02	7.858122E-04
3.350642E+03	7.859826E-02	7.776996E-04
3.360439E+03	7.805317E-02	7.696640E-04
3.370236E+03	7.751463E-02	7.617292E-04
3.380033E+03	7.698576E-02	7.539252E-04
3.389831E+03	7.646831E-02	7.462684E-04
3.399628E+03	7.596619E-02	7.387958E-04
3.409425E+03	7.548235E-02	7.315348E-04
3.419222E+03	7.501885E-02	7.245035E-04
3.429019E+03	7.457967E-02	7.177384E-04
3.438816E+03	7.416769E-02	7.112648E-04
3.448614E+03	7.378461E-02	7.050965E-04
3.458411E+03	7.343378E-02	6.992625E-04
3.468208E+03	7.311666E-02	6.937739E-04
3.478005E+03	7.283509E-02	6.886447E-04
3.487802E+03	7.258847E-02	6.838658E-04
3.497600E+03	7.237735E-02	6.794392E-04
3.507397E+03	7.219852E-02	6.753314E-04
3.517194E+03	7.205066E-02	6.715271E-04
3.526991E+03	7.193065E-02	6.679944E-04
3.536788E+03	7.183616E-02	6.647092E-04
3.546586E+03	7.176381E-02	6.616376E-04
3.556383E+03	7.171113E-02	6.587550E-04
3.566180E+03	7.167434E-02	6.560248E-04
3.575977E+03	7.165218E-02	6.534339E-04
3.585774E+03	7.164065E-02	6.509450E-04
3.595572E+03	7.163891E-02	6.485492E-04
3.605369E+03	7.164339E-02	6.462135E-04
3.615166E+03	7.165316E-02	6.439291E-04
3.624963E+03	7.166654E-02	6.416807E-04
3.634760E+03	7.168155E-02	6.394501E-04
3.644558E+03	7.169686E-02	6.372258E-04
3.654355E+03	7.171178E-02	6.350016E-04
3.664152E+03	7.172524E-02	6.327684E-04
3.673949E+03	7.173577E-02	6.305134E-04
3.683746E+03	7.174245E-02	6.282291E-04
3.693544E+03	7.174482E-02	6.259121E-04
3.703341E+03	7.174195E-02	6.235548E-04
3.713138E+03	7.173231E-02	6.211447E-04
3.722935E+03	7.171534E-02	6.186778E-04
3.732732E+03	7.168947E-02	6.161414E-04
3.742530E+03	7.165435E-02	6.135337E-04
3.752327E+03	7.160948E-02	6.108515E-04
3.762124E+03	7.155398E-02	6.080885E-04
3.771921E+03	7.148778E-02	6.052452E-04
3.781718E+03	7.140946E-02	6.023108E-04
3.791516E+03	7.131882E-02	5.992852E-04
3.801313E+03	7.121314E-02	5.961468E-04
3.811110E+03	7.109283E-02	5.929008E-04
3.820907E+03	7.095588E-02	5.895319E-04
3.830704E+03	7.080188E-02	5.860387E-04
3.840502E+03	7.062955E-02	5.824123E-04
3.850299E+03	7.043926E-02	5.786578E-04
3.860096E+03	7.022965E-02	5.747657E-04
3.869893E+03	7.000120E-02	5.707420E-04
3.879690E+03	6.975382E-02	5.665881E-04
3.889488E+03	6.948908E-02	5.623183E-04
3.899285E+03	6.920923E-02	5.579527E-04
3.909082E+03	6.891549E-02	5.535027E-04
3.918879E+03	6.861019E-02	5.489882E-04
3.928676E+03	6.829642E-02	5.444351E-04
3.938474E+03	6.797556E-02	5.398554E-04
3.948271E+03	6.764865E-02	5.352580E-04
3.958068E+03	6.731730E-02	5.306564E-04
3.967865E+03	6.698235E-02	5.260576E-04
3.977662E+03	6.664471E-02	5.214693E-04
3.987460E+03	6.630544E-02	5.169001E-04
3.997257E+03	6.596588E-02	5.123607E-04
4.007054E+03	6.562770E-02	5.078643E-04
4.016851E+03	6.529299E-02	5.034270E-04
4.026648E+03	6.496326E-02	4.990601E-04
4.036446E+03	6.464054E-02	4.947791E-04
4.046243E+03	6.432408E-02	4.905776E-04
4.056040E+03	6.401197E-02	4.864411E-04
4.065837E+03	6.370294E-02	4.823594E-04
4.075634E+03	6.339370E-02	4.783078E-04
4.085432E+03	6.308158E-02	4.742664E-04
4.095229E+03	6.276504E-02	4.702239E-04
4.105026E+03	6.244435E-02	4.661830E-04
4.114823E+03	6.212146E-02	4.621587E-04
4.124620E+03	6.180035E-02	4.581806E-04
4.134418E+03	6.148510E-02	4.542790E-04
4.144215E+03	6.118263E-02	4.505046E-04
4.154012E+03	6.089869E-02	4.468986E-04
4.163809E+03	6.063945E-02	4.435050E-04
4.173606E+03	6.041084E-02	4.403654E-04
4.183404E+03	6.021843E-02	4.375182E-04
4.193201E+03	6.006800E-02	4.350029E-04
4.202998E+03	5.996373E-02	4.328470E-04
4.212795E+03	5.990934E-02	4.310742E-04
4.222592E+03	5.990731E-02	4.296993E-04
4.232390E+03	5.995906E-02	4.287293E-04
4.242187E+03	6.006301E-02	4.281499E-04
4.251984E+03	6.021602E-02	4.279357E-04
4.261781E+03	6.041083E-02	4.280323E-04
4.271578E+03	6.063909E-02	4.283783E-04
4.281376E+03	6.088803E-02	4.288819E-04
4.291173E+03	6.114079E-02	4.294236E-04
4.300970E+03	6.137720E-02	4.298622E-04
4.310767E+03	6.157387E-02	4.300355E-04
4.320564E+03	6.170452E-02	4.297629E-04
4.330362E+03	6.174525E-02	4.288826E-04
4.340159E+03	6.167567E-02	4.272582E-04
4.349956E+03	6.148306E-02	4.248080E-04
4.359753E+03	6.116417E-02	4.215160E-04
4.369550E+03	6.072912E-02	4.174582E-04
4.379348E+03	6.019800E-02	4.127780E-04
4.389145E+03	5.959173E-02	4.076229E-04
4.398942E+03	5.893445E-02	4.021607E-04
4.408739E+03	5.824670E-02	3.965331E-04
4.418536E+03	5.754796E-02	3.908731E-04
4.428333E+03	5.685591E-02	3.853004E-04
4.438131E+03	5.618318E-02	3.798992E-04
4.447928E+03	5.554237E-02	3.747532E-04
4.457725E+03	5.494075E-02	3.699092E-04
4.467522E+03	5.438438E-02	3.654055E-04
4.477319E+03	5.387637E-02	3.612606E-04
4.487117E+03	5.341706E-02	3.574743E-04
4.496914E+03	5.300600E-02	3.540412E-04
4.506711E+03	5.264142E-02	3.509472E-04
4.516508E+03	5.232108E-02	3.481753E-04
4.526305E+03	5.204194E-02	3.457034E-04
4.536103E+03	5.180197E-02	3.435162E-04
4.545900E+03	5.159700E-02	3.415846E-04
4.555697E+03	5.142390E-02	3.398867E-04
4.565494E+03	5.127829E-02	3.383923E-04
4.575291E+03	5.115679E-02	3.370781E-04
4.585089E+03	5.105447E-02	3.359110E-04
4.594886E+03	5.096638E-02	3.348577E-04
4.604683E+03	5.088900E-02	3.338947E-04
4.614480E+03	5.081712E-02	3.329873E-04
4.624277E+03	5.074725E-02	3.321120E-04
4.634075E+03	5.067408E-02	3.312338E-04
4.643872E+03	5.059383E-02	3.303277E-04
4.653669E+03	5.050320E-02	3.293718E-04
4.663466E+03	5.039854E-02	3.283423E-04
4.673263E+03	5.028041E-02	3.272427E-04
4.683061E+03	5.015135E-02	3.260895E-04
4.692858E+03	5.002076E-02	3.249433E-04
4.702655E+03	4.990091E-02	3.238836E-04
4.712452E+03	4.980841E-02	3.230174E-04
4.722249E+03	4.975830E-02	3.224415E-04
4.732047E+03	4.976472E-02	3.222463E-04
4.741844E+03	4.983959E-02	3.225081E-04
4.751641E+03	4.999220E-02	3.232858E-04
4.761438E+03	5.022693E-02	3.246064E-04
4.771235E+03	5.054557E-02	3.264807E-04
4.781033E+03	5.094307E-02	3.288750E-04
4.790830E+03	5.140889E-02	3.317207E-04
4.800627E+03	5.192589E-02	3.349066E-04
4.810424E+03	5.246713E-02	3.382588E-04
4.820221E+03	5.300010E-02	3.415677E-04
4.830019E+03	5.348502E-02	3.445773E-04
4.839816E+03	5.387653E-02	3.469957E-04
4.849613E+03	5.413267E-02	3.485536E-04
4.859410E+03	5.422141E-02	3.490452E-04
4.869207E+03	5.413019E-02	3.483905E-04
4.879005E+03	5.386175E-02	3.466073E-04
4.888802E+03	5.343122E-02	3.437934E-04
4.898599E+03	5.286328E-02	3.401073E-04
4.908396E+03	5.218702E-02	3.357359E-04
4.918193E+03	5.143354E-02	3.308789E-04
4.927991E+03	5.063349E-02	3.257328E-04
4.937788E+03	4.981483E-02	3.204770E-04
4.947585E+03	4.900158E-02	3.152652E-04
4.957382E+03	4.821633E-02	3.102422E-04
4.967179E+03	4.747431E-02	3.055057E-04
4.976977E+03	4.678788E-02	3.011346E-04
4.986774E+03	4.616047E-02	2.971507E-04
4.996571E+03	4.559163E-02	2.935509E-04
5.006368E+03	4.507830E-02	2.903153E-04
5.016165E+03	4.461474E-02	2.874068E-04
5.025963E+03	4.419575E-02	2.847919E-04
5.035760E+03	4.381719E-02	2.824438E-04
5.045557E+03	4.347892E-02	2.803616E-04
5.055354E+03	4.318221E-02	2.785536E-04
5.065151E+03	4.292772E-02	2.770241E-04
5.074949E+03	4.271577E-02	2.757754E-04
5.084746E+03	4.254478E-02	2.747974E-04
5.094543E+03	4.241118E-02	2.740673E-04
5.104340E+03	4.231010E-02	2.735539E-04
5.114137E+03	4.223602E-02	2.732217E-04
5.123935E+03	4.218032E-02	2.730152E-04
5.133732E+03	4.213450E-02	2.728795E-04
5.143529E+03	4.208893E-02	2.727522E-04
5.153326E+03	4.203614E-02	2.725850E-04
5.163123E+03	4.197055E-02	2.723414E-04
5.172921E+03	4.188835E-02	2.719966E-04
5.182718E+03	4.178941E-02	2.715495E-04
5.192515E+03	4.167409E-02	2.710020E-04
5.202312E+03	4.154534E-02	2.703733E-04
5.212109E+03	4.140801E-02	2.696945E-04
5.221907E+03	4.126548E-02	2.689876E-04
5.231704E+03	4.112225E-02	2.682818E-04
5.241501E+03	4.098104E-02	2.675946E-04
5.251298E+03	4.084213E-02	2.669277E-04
5.261095E+03	4.070561E-02	2.662813E-04
5.270893E+03	4.056886E-02	2.656382E-04
5.280690E+03	4.042998E-02	2.649854E-04
5.290487E+03	4.028629E-02	2.643051E-04
5.300284E+03	4.013472E-02	2.635769E-04
5.310081E+03	3.997369E-02	2.627897E-04
5.319879E+03	3.980004E-02	2.619223E-04
5.329676E+03	3.961218E-02	2.609640E-04
5.339473E+03	3.940827E-02	2.599017E-04
5.349270E+03	3.918675E-02	2.587247E-04
5.359067E+03	3.894629E-02	2.574235E-04
5.368865E+03	3.868564E-02	2.559891E-04
5.378662E+03	3.840606E-02	2.544293E-04
5.388459E+03	3.810875E-02	2.527513E-04
5.398256E+03	3.779799E-02	2.509827E-04
5.408053E+03	3.747885E-02	2.491569E-04
5.417850E+03	3.715679E-02	2.473097E-04
5.427648E+03	3.683676E-02	2.454738E-04
5.437445E+03	3.652300E-02	2.436773E-04
5.447242E+03	3.621912E-02	2.419443E-04
5.457039E+03	3.592808E-02	2.402945E-04
5.466836E+03	3.565171E-02	2.387406E-04
5.476634E+03	3.539247E-02	2.372989E-04
5.486431E+03	3.515076E-02	2.359727E-04
5.496228E+03	3.492631E-02	2.347603E-04
5.506025E+03	3.471886E-02	2.336603E-04
5.515822E+03	3.452734E-02	2.326658E-04
5.525620E+03	3.434892E-02	2.317579E-04
5.535417E+03	3.418198E-02	2.309260E-04
5.545214E+03	3.402518E-02	2.301611E-04
5.555011E+03	3.387617E-02	2.294476E-04
5.564808E+03	3.373413E-02	2.287800E-04
5.574606E+03	3.359804E-02	2.281515E-04
5.584403E+03	3.346748E-02	2.275593E-04
5.594200E+03	3.334067E-02	2.269913E-04
5.603997E+03	3.321684E-02	2.264423E-04
5.613794E+03	3.309489E-02	2.259049E-04
5.623592E+03	3.297411E-02	2.253742E-04
5.633389E+03	3.285438E-02	2.248493E-04
5.643186E+03	3.273655E-02	2.243362E-04
5.652983E+03	3.262071E-02	2.238353E-04
5.662780E+03	3.250855E-02	2.233584E-04
5.672578E+03	3.240150E-02	2.229152E-04
5.682375E+03	3.230081E-02	2.225147E-04
5.692172E+03	3.220776E-02	2.221657E-04
5.701969E+03	3.212207E-02	2.218666E-04
5.711766E+03	3.204471E-02	2.216241E-04
5.721564E+03	3.197617E-02	2.214420E-04
5.731361E+03	3.191738E-02	2.213269E-04
5.741158E+03	3.186770E-02	2.212747E-04
5.750955E+03	3.182741E-02	2.212875E-04
5.760752E+03	3.179642E-02	2.213650E-04
5.770550E+03	3.177295E-02	2.214950E-04
5.780347E+03	3.175652E-02	2.216746E-04
5.790144E+03	3.174455E-02	2.218857E-04
5.799941E+03	3.173585E-02	2.221203E-04
5.809738E+03	3.172712E-02	2.223554E-04
5.819536E+03	3.171656E-02	2.225784E-04
5.829333E+03	3.170056E-02	2.227637E-04
5.839130E+03	3.167715E-02	2.228977E-04
5.848927E+03	3.164331E-02	2.229587E-04
5.858724E+03	3.159651E-02	2.229286E-04
5.868522E+03	3.153623E-02	2.228035E-04
5.878319E+03	3.146133E-02	2.225750E-04
5.888116E+03	3.137165E-02	2.222416E-04
5.897913E+03	3.126752E-02	2.218052E-04
5.907710E+03	3.114972E-02	2.212709E-04
5.917508E+03	3.101950E-02	2.206475E-04
5.927305E+03	3.087851E-02	2.199463E-04
5.937102E+03	3.072881E-02	2.191816E-04
5.946899E+03	3.057277E-02	2.183704E-04
5.956696E+03	3.041307E-02	2.175315E-04
5.966494E+03	3.025253E-02	2.166851E-04
5.976291E+03	3.009389E-02	2.158509E-04
5.986088E+03	2.993967E-02	2.150472E-04
5.995885E+03	2.979252E-02	2.142931E-04
6.005682E+03	2.965319E-02	2.135943E-04
6.015480E+03	2.952307E-02	2.129612E-04
6.025277E+03	2.940280E-02	2.123988E-04
6.035074E+03	2.929091E-02	2.118966E-04
6.044871E+03	2.918621E-02	2.114465E-04
6.054668E+03	2.908680E-02	2.110350E-04
6.064466E+03	2.898885E-02	2.106345E-04
6.074263E+03	2.888981E-02	2.102264E-04
6.084060E+03	2.878559E-02	2.097808E-04
6.093857E+03	2.867225E-02	2.092687E-04
6.103654E+03	2.854774E-02	2.086746E-04
6.113452E+03	2.840956E-02	2.079797E-04
6.123249E+03	2.825889E-02	2.071920E-04
6.133046E+03	2.809740E-02	2.063234E-04
6.142843E+03	2.792834E-02	2.053971E-04
6.152640E+03	2.775733E-02	2.044543E-04
6.162438E+03	2.758901E-02	2.035288E-04
6.172235E+03	2.742831E-02	2.026571E-04
6.182032E+03	2.727901E-02	2.018674E-04
6.191829E+03	2.714495E-02	2.011884E-04
6.201626E+03	2.702731E-02	2.006292E-04
6.211424E+03	2.692603E-02	2.001899E-04
6.221221E+03	2.683898E-02	1.998551E-04
6.231018E+03	2.676244E-02	1.995974E-04
6.240815E+03	2.669386E-02	1.993981E-04
6.250612E+03	2.662983E-02	1.992319E-04
6.260410E+03	2.656796E-02	1.990809E-04
6.270207E+03	2.650640E-02	1.989313E-04
6.280004E+03	2.644336E-02	1.987695E-04
6.289801E+03	2.637896E-02	1.985963E-04
6.299598E+03	2.631273E-02	1.984080E-04
6.309396E+03	2.624539E-02	1.982100E-04
6.319193E+03	2.617790E-02	1.980094E-04
6.328990E+03	2.611313E-02	1.978279E-04
6.338787E+03	2.605312E-02	1.976810E-04
6.348584E+03	2.600072E-02	1.975904E-04
6.358382E+03	2.595849E-02	1.975760E-04
6.368179E+03	2.593043E-02	1.976684E-04
6.377976E+03	2.591877E-02	1.978852E-04
6.387773E+03	2.592752E-02	1.982574E-04
6.397570E+03	2.595913E-02	1.988047E-04
6.407367E+03	2.601563E-02	1.995434E-04
6.417165E+03	2.609930E-02	2.004917E-04
6.426962E+03	2.620905E-02	2.016422E-04
6.436759E+03	2.634385E-02	2.029879E-04
6.446556E+03	2.650174E-02	2.045144E-04
6.456353E+03	2.667846E-02	2.061896E-04
6.466151E+03	2.687028E-02	2.079853E-04
6.475948E+03	2.707201E-02	2.098617E-04
6.485745E+03	2.727730E-02	2.117700E-04
6.495542E+03	2.747886E-02	2.136532E-04
6.505339E+03	2.766863E-02	2.154487E-04
6.515137E+03	2.783803E-02	2.170892E-04
6.524934E+03	2.797850E-02	2.185068E-04
6.534731E+03	2.808211E-02	2.196388E-04
6.544528E+03	2.814224E-02	2.204318E-04
6.554325E+03	2.815324E-02	2.208401E-04
6.564123E+03	2.811280E-02	2.208439E-04
6.573920E+03	2.801857E-02	2.204229E-04
6.583717E+03	2.787171E-02	2.195843E-04
6.593514E+03	2.767522E-02	2.183502E-04
6.603311E+03	2.743234E-02	2.167444E-04
6.613109E+03	2.714920E-02	2.148140E-04
6.622906E+03	2.683226E-02	2.126087E-04
6.632703E+03	2.648848E-02	2.101826E-04
6.642500E+03	2.612442E-02	2.075871E-04
6.652297E+03	2.574792E-02	2.048839E-04
6.662095E+03	2.536480E-02	2.021189E-04
6.671892E+03	2.498029E-02	1.993338E-04
6.681689E+03	2.459989E-02	1.965725E-04
6.691486E+03	2.422773E-02	1.938683E-04
6.701283E+03	2.386729E-02	1.912492E-04
6.711081E+03	2.352147E-02	1.887392E-04
6.720878E+03	2.319269E-02	1.863580E-04
6.730675E+03	2.288289E-02	1.841221E-04
6.740472E+03	2.259314E-02	1.820406E-04
6.750269E+03	2.232489E-02	1.801260E-04
6.760067E+03	2.207912E-02	1.783869E-04
6.769864E+03	2.185489E-02	1.768166E-04
6.779661E+03	2.165203E-02	1.754144E-04
6.789458E+03	2.146901E-02	1.741687E-04
6.799255E+03	2.130541E-02	1.730767E-04
6.809053E+03	2.115900E-02	1.721211E-04
6.818850E+03	2.102924E-02	1.712980E-04
6.828647E+03	2.091406E-02	1.705910E-04
6.838444E+03	2.081280E-02	1.699956E-04
6.848241E+03	2.072405E-02	1.695005E-04
6.858039E+03	2.064748E-02	1.691035E-04
6.867836E+03	2.058078E-02	1.687862E-04
6.877633E+03	2.052317E-02	1.685424E-04
6.887430E+03	2.047221E-02	1.683527E-04
6.897227E+03	2.042645E-02	1.682052E-04
6.907025E+03	2.038550E-02	1.680970E-04
6.916822E+03	2.034757E-02	1.680135E-04
6.926619E+03	2.031291E-02	1.679571E-04
6.936416E+03	2.028033E-02	1.679179E-04
6.946213E+03	2.024946E-02	1.678931E-04
6.956011E+03	2.022074E-02	1.678864E-04
6.965808E+03	2.019276E-02	1.678862E-04
6.975605E+03	2.016585E-02	1.678955E-04
6.985402E+03	2.013815E-02	1.678988E-04
6.995199E+03	2.011035E-02	1.679019E-04
7.004997E+03	2.008136E-02	1.678957E-04
7.014794E+03	2.005000E-02	1.678706E-04
7.024591E+03	2.001597E-02	1.678238E-04
7.034388E+03	1.997867E-02	1.677503E-04
7.044185E+03	1.993727E-02	1.676432E-04
7.053983E+03	1.989247E-02	1.675082E-04
7.063780E+03	1.984343E-02	1.673382E-04
7.073577E+03	1.979029E-02	1.671344E-04
7.083374E+03	1.973427E-02	1.669069E-04
7.093171E+03	1.967500E-02	1.666525E-04
7.102969E+03	1.961359E-02	1.663808E-04
7.112766E+03	1.955084E-02	1.660983E-04
7.122563E+03	1.948766E-02	1.658129E-04
7.132360E+03	1.942459E-02	1.655293E-04
7.142157E+03	1.936293E-02	1.652586E-04
7.151955E+03	1.930279E-02	1.650019E-04
7.161752E+03	1.924511E-02	1.647674E-04
7.171549E+03	1.918871E-02	1.645450E-04
7.181346E+03	1.913358E-02	1.643349E-04
7.191143E+03	1.907875E-02	1.641289E-04
7.200941E+03	1.902457E-02	1.639300E-04
7.210738E+03	1.896952E-02	1.637251E-04
7.220535E+03	1.891288E-02	1.635082E-04
7.230332E+03	1.885471E-02	1.632798E-04
7.240129E+03	1.879329E-02	1.630247E-04
7.249927E+03	1.872766E-02	1.627349E-04
7.259724E+03	1.865782E-02	1.624100E-04
7.269521E+03	1.858217E-02	1.620360E-04
7.279318E+03	1.850064E-02	1.616120E-04
7.289115E+03	1.841256E-02	1.611320E-04
7.298913E+03	1.831839E-02	1.605997E-04
7.308710E+03	1.821843E-02	1.600175E-04
7.318507E+03	1.811324E-02	1.593902E-04
7.328304E+03	1.800314E-02	1.587201E-04
7.338101E+03	1.788948E-02	1.580193E-04
7.347899E+03	1.777294E-02	1.572932E-04
7.357696E+03	1.765519E-02	1.565568E-04
7.367493E+03	1.753760E-02	1.558222E-04
7.377290E+03	1.742125E-02	1.550988E-04
7.387087E+03	1.730866E-02	1.544094E-04
7.396884E+03	1.720035E-02	1.537587E-04
7.406682E+03	1.709952E-02	1.531756E-04
7.416479E+03	1.700724E-02	1.526703E-04
7.426276E+03	1.692536E-02	1.522597E-04
7.436073E+03	1.685638E-02	1.519671E-04
7.445870E+03	1.680069E-02	1.517966E-04
7.455668E+03	1.675890E-02	1.517546E-04
7.465465E+03	1.673125E-02	1.518437E-04
7.475262E+03	1.671664E-02	1.520548E-04
7.485059E+03	1.671279E-02	1.523679E-04
7.494856E+03	1.671778E-02	1.527659E-04
7.504654E+03	1.672897E-02	1.532252E-04
7.514451E+03	1.674335E-02	1.537185E-04
7.524248E+03	1.675887E-02	1.542270E-04
7.534045E+03	1.677326E-02	1.547298E-04
7.543842E+03	1.678417E-02	1.552052E-04
7.553640E+03	1.679006E-02	1.556383E-04
7.563437E+03	1.679016E-02	1.560217E-04
7.573234E+03	1.678366E-02	1.563475E-04
7.583031E+03	1.677021E-02	1.566117E-04
7.592828E+03	1.674941E-02	1.568100E-04
7.602626E+03	1.672178E-02	1.569468E-04
