#wls	flux	fluxerr
1.567552E+03	3.231163E-02	1.099711E-03
1.606740E+03	3.229899E-02	1.093403E-03
1.645929E+03	3.227403E-02	1.086549E-03
1.685118E+03	3.223630E-02	1.079141E-03
1.724307E+03	3.218515E-02	1.071162E-03
1.763496E+03	3.212035E-02	1.062612E-03
1.802684E+03	3.204106E-02	1.053468E-03
1.841873E+03	3.194708E-02	1.043733E-03
1.881062E+03	3.183781E-02	1.033395E-03
1.920251E+03	3.171290E-02	1.022454E-03
1.959440E+03	3.157180E-02	1.010900E-03
1.998628E+03	3.141445E-02	9.987436E-04
2.037817E+03	3.124018E-02	9.859751E-04
2.077006E+03	3.104905E-02	9.726080E-04
2.116195E+03	3.084094E-02	9.586527E-04
2.155384E+03	3.061562E-02	9.441154E-04
2.194572E+03	3.037292E-02	9.290058E-04
2.233761E+03	3.011321E-02	9.133505E-04
2.272950E+03	2.983657E-02	8.971673E-04
2.312139E+03	2.954357E-02	8.804900E-04
2.351328E+03	2.923431E-02	8.633380E-04
2.390516E+03	2.890966E-02	8.457538E-04
2.429705E+03	2.857020E-02	8.277715E-04
2.468894E+03	2.821690E-02	8.094362E-04
2.508083E+03	2.785086E-02	7.907961E-04
2.547271E+03	2.747358E-02	7.719097E-04
2.586460E+03	2.708590E-02	7.528167E-04
2.625649E+03	2.669003E-02	7.335933E-04
2.664838E+03	2.628719E-02	7.142867E-04
2.704027E+03	2.587967E-02	6.949720E-04
2.743215E+03	2.546940E-02	6.757114E-04
2.782404E+03	2.505857E-02	6.565728E-04
2.821593E+03	2.464935E-02	6.376204E-04
2.860782E+03	2.424451E-02	6.189306E-04
2.899971E+03	2.384620E-02	6.005610E-04
2.939159E+03	2.345712E-02	5.825797E-04
2.948957E+03	2.336157E-02	5.781517E-04
2.958754E+03	2.326686E-02	5.737544E-04
2.968551E+03	2.317288E-02	5.693847E-04
2.978348E+03	2.307966E-02	5.650436E-04
2.988145E+03	2.298757E-02	5.607397E-04
2.997943E+03	2.289616E-02	5.564623E-04
3.007740E+03	2.280597E-02	5.522239E-04
3.017537E+03	2.271669E-02	5.480173E-04
3.027334E+03	2.262839E-02	5.438436E-04
3.037131E+03	2.254125E-02	5.397075E-04
3.046929E+03	2.245514E-02	5.356055E-04
3.056726E+03	2.237029E-02	5.315427E-04
3.066523E+03	2.228672E-02	5.275195E-04
3.076320E+03	2.220432E-02	5.235329E-04
3.086117E+03	2.212328E-02	5.195875E-04
3.095915E+03	2.204349E-02	5.156802E-04
3.105712E+03	2.196516E-02	5.118158E-04
3.115509E+03	2.188815E-02	5.079907E-04
3.125306E+03	2.181268E-02	5.042099E-04
3.135103E+03	2.173863E-02	5.004700E-04
3.144901E+03	2.166620E-02	4.967758E-04
3.154698E+03	2.159545E-02	4.931277E-04
3.164495E+03	2.152626E-02	4.895231E-04
3.174292E+03	2.145869E-02	4.859628E-04
3.184089E+03	2.139294E-02	4.824513E-04
3.193887E+03	2.132908E-02	4.789894E-04
3.203684E+03	2.126700E-02	4.755742E-04
3.213481E+03	2.120693E-02	4.722107E-04
3.223278E+03	2.114878E-02	4.688964E-04
3.233075E+03	2.109276E-02	4.656355E-04
3.242873E+03	2.103898E-02	4.624297E-04
3.252670E+03	2.098735E-02	4.592768E-04
3.262467E+03	2.093798E-02	4.561784E-04
3.272264E+03	2.089110E-02	4.531391E-04
3.282061E+03	2.084683E-02	4.501610E-04
3.291859E+03	2.080513E-02	4.472424E-04
3.301656E+03	2.076629E-02	4.443891E-04
3.311453E+03	2.073045E-02	4.416030E-04
3.321250E+03	2.069761E-02	4.388836E-04
3.331047E+03	2.066793E-02	4.362336E-04
3.340845E+03	2.064191E-02	4.336623E-04
3.350642E+03	2.061928E-02	4.311636E-04
3.360439E+03	2.060072E-02	4.287503E-04
3.370236E+03	2.058615E-02	4.264202E-04
3.380033E+03	2.057583E-02	4.241771E-04
3.389831E+03	2.057019E-02	4.220287E-04
3.399628E+03	2.056951E-02	4.199796E-04
3.409425E+03	2.057395E-02	4.180317E-04
3.419222E+03	2.058397E-02	4.161930E-04
3.429019E+03	2.059994E-02	4.144691E-04
3.438816E+03	2.062205E-02	4.128623E-04
3.448614E+03	2.065065E-02	4.113779E-04
3.458411E+03	2.068639E-02	4.100270E-04
3.468208E+03	2.072931E-02	4.088082E-04
3.478005E+03	2.077963E-02	4.077240E-04
3.487802E+03	2.083764E-02	4.067776E-04
3.497600E+03	2.090322E-02	4.059649E-04
3.507397E+03	2.097614E-02	4.052790E-04
3.517194E+03	2.105593E-02	4.047089E-04
3.526991E+03	2.114223E-02	4.042459E-04
3.536788E+03	2.123501E-02	4.038874E-04
3.546586E+03	2.133358E-02	4.036186E-04
3.556383E+03	2.143758E-02	4.034310E-04
3.566180E+03	2.154697E-02	4.033223E-04
3.575977E+03	2.166109E-02	4.032787E-04
3.585774E+03	2.177961E-02	4.032927E-04
3.595572E+03	2.190254E-02	4.033630E-04
3.605369E+03	2.202923E-02	4.034767E-04
3.615166E+03	2.215941E-02	4.036277E-04
3.624963E+03	2.229312E-02	4.038159E-04
3.634760E+03	2.242977E-02	4.040294E-04
3.644558E+03	2.256911E-02	4.042630E-04
3.654355E+03	2.271124E-02	4.045179E-04
3.664152E+03	2.285560E-02	4.047833E-04
3.673949E+03	2.300213E-02	4.050577E-04
3.683746E+03	2.315045E-02	4.053338E-04
3.693544E+03	2.330054E-02	4.056109E-04
3.703341E+03	2.345221E-02	4.058855E-04
3.713138E+03	2.360528E-02	4.061538E-04
3.722935E+03	2.375940E-02	4.064097E-04
3.732732E+03	2.391458E-02	4.066532E-04
3.742530E+03	2.407066E-02	4.068814E-04
3.752327E+03	2.422751E-02	4.070920E-04
3.762124E+03	2.438477E-02	4.072792E-04
3.771921E+03	2.454252E-02	4.074441E-04
3.781718E+03	2.470063E-02	4.075848E-04
3.791516E+03	2.485901E-02	4.076997E-04
3.801313E+03	2.501735E-02	4.077843E-04
3.811110E+03	2.517578E-02	4.078406E-04
3.820907E+03	2.533424E-02	4.078680E-04
3.830704E+03	2.549266E-02	4.078657E-04
3.840502E+03	2.565085E-02	4.078309E-04
3.850299E+03	2.580916E-02	4.077695E-04
3.860096E+03	2.596723E-02	4.076761E-04
3.869893E+03	2.612528E-02	4.075547E-04
3.879690E+03	2.628335E-02	4.074060E-04
3.889488E+03	2.644131E-02	4.072285E-04
3.899285E+03	2.659964E-02	4.070300E-04
3.909082E+03	2.675804E-02	4.068060E-04
3.918879E+03	2.691681E-02	4.065618E-04
3.928676E+03	2.707607E-02	4.062991E-04
3.938474E+03	2.723595E-02	4.060205E-04
3.948271E+03	2.739657E-02	4.057277E-04
3.958068E+03	2.755784E-02	4.054200E-04
3.967865E+03	2.772032E-02	4.051055E-04
3.977662E+03	2.788366E-02	4.047797E-04
3.987460E+03	2.804819E-02	4.044473E-04
3.997257E+03	2.821416E-02	4.041125E-04
4.007054E+03	2.838120E-02	4.037698E-04
4.016851E+03	2.854951E-02	4.034225E-04
4.026648E+03	2.871907E-02	4.030706E-04
4.036446E+03	2.888958E-02	4.027101E-04
4.046243E+03	2.906137E-02	4.023463E-04
4.056040E+03	2.923408E-02	4.019743E-04
4.065837E+03	2.940752E-02	4.015920E-04
4.075634E+03	2.958122E-02	4.011936E-04
4.085432E+03	2.975539E-02	4.007829E-04
4.095229E+03	2.992952E-02	4.003534E-04
4.105026E+03	3.010301E-02	3.998983E-04
4.114823E+03	3.027603E-02	3.994207E-04
4.124620E+03	3.044768E-02	3.989100E-04
4.134418E+03	3.061809E-02	3.983690E-04
4.144215E+03	3.078657E-02	3.977901E-04
4.154012E+03	3.095240E-02	3.971659E-04
4.163809E+03	3.111562E-02	3.964981E-04
4.173606E+03	3.127544E-02	3.957788E-04
4.183404E+03	3.143134E-02	3.950033E-04
4.193201E+03	3.158272E-02	3.941663E-04
4.202998E+03	3.172898E-02	3.932625E-04
4.212795E+03	3.186950E-02	3.922868E-04
4.222592E+03	3.200365E-02	3.912340E-04
4.232390E+03	3.213081E-02	3.900995E-04
4.242187E+03	3.225068E-02	3.888823E-04
4.251984E+03	3.236217E-02	3.875725E-04
4.261781E+03	3.246536E-02	3.861743E-04
4.271578E+03	3.255960E-02	3.846831E-04
4.281376E+03	3.264446E-02	3.830972E-04
4.291173E+03	3.271953E-02	3.814152E-04
4.300970E+03	3.278432E-02	3.796349E-04
4.310767E+03	3.283874E-02	3.777585E-04
4.320564E+03	3.288198E-02	3.757797E-04
4.330362E+03	3.291438E-02	3.737050E-04
4.340159E+03	3.293575E-02	3.715349E-04
4.349956E+03	3.294547E-02	3.692654E-04
4.359753E+03	3.294427E-02	3.669069E-04
4.369550E+03	3.293192E-02	3.644598E-04
4.379348E+03	3.290984E-02	3.619420E-04
4.389145E+03	3.287793E-02	3.593544E-04
4.398942E+03	3.283759E-02	3.567148E-04
4.408739E+03	3.278952E-02	3.540321E-04
4.418536E+03	3.273472E-02	3.513188E-04
4.428333E+03	3.267447E-02	3.485900E-04
4.438131E+03	3.260948E-02	3.458543E-04
4.447928E+03	3.254067E-02	3.431221E-04
4.457725E+03	3.246916E-02	3.404062E-04
4.467522E+03	3.239540E-02	3.377117E-04
4.477319E+03	3.231997E-02	3.350452E-04
4.487117E+03	3.224369E-02	3.324152E-04
4.496914E+03	3.216660E-02	3.298224E-04
4.506711E+03	3.208922E-02	3.272724E-04
4.516508E+03	3.201137E-02	3.247635E-04
4.526305E+03	3.193336E-02	3.222988E-04
4.536103E+03	3.185484E-02	3.198748E-04
4.545900E+03	3.177566E-02	3.174904E-04
4.555697E+03	3.169591E-02	3.151465E-04
4.565494E+03	3.161542E-02	3.128416E-04
4.575291E+03	3.153369E-02	3.105708E-04
4.585089E+03	3.145056E-02	3.083330E-04
4.594886E+03	3.136651E-02	3.061329E-04
4.604683E+03	3.128067E-02	3.039623E-04
4.614480E+03	3.119373E-02	3.018281E-04
4.624277E+03	3.110598E-02	2.997333E-04
4.634075E+03	3.101789E-02	2.976824E-04
4.643872E+03	3.092989E-02	2.956796E-04
4.653669E+03	3.084294E-02	2.937339E-04
4.663466E+03	3.075886E-02	2.918614E-04
4.673263E+03	3.067853E-02	2.900688E-04
4.683061E+03	3.060335E-02	2.883679E-04
4.692858E+03	3.053480E-02	2.867706E-04
4.702655E+03	3.047240E-02	2.852708E-04
4.712452E+03	3.041575E-02	2.838630E-04
4.722249E+03	3.036497E-02	2.825467E-04
4.732047E+03	3.031901E-02	2.813106E-04
4.741844E+03	3.027767E-02	2.801515E-04
4.751641E+03	3.024016E-02	2.790606E-04
4.761438E+03	3.020637E-02	2.780356E-04
4.771235E+03	3.017493E-02	2.770628E-04
4.781033E+03	3.014515E-02	2.761347E-04
4.790830E+03	3.011585E-02	2.752396E-04
4.800627E+03	3.008574E-02	2.743647E-04
4.810424E+03	3.005313E-02	2.734937E-04
4.820221E+03	3.001681E-02	2.726151E-04
4.830019E+03	2.997565E-02	2.717179E-04
4.839816E+03	2.992769E-02	2.707839E-04
4.849613E+03	2.987201E-02	2.698041E-04
4.859410E+03	2.980760E-02	2.687691E-04
4.869207E+03	2.973374E-02	2.676721E-04
4.879005E+03	2.964999E-02	2.665086E-04
4.888802E+03	2.955597E-02	2.652750E-04
4.898599E+03	2.945250E-02	2.639781E-04
4.908396E+03	2.933986E-02	2.626202E-04
4.918193E+03	2.921862E-02	2.612059E-04
4.927991E+03	2.909048E-02	2.597500E-04
4.937788E+03	2.895648E-02	2.582613E-04
4.947585E+03	2.881814E-02	2.567528E-04
4.957382E+03	2.867673E-02	2.552355E-04
4.967179E+03	2.853447E-02	2.537284E-04
4.976977E+03	2.839268E-02	2.522430E-04
4.986774E+03	2.825291E-02	2.507922E-04
4.996571E+03	2.811660E-02	2.493884E-04
5.006368E+03	2.798504E-02	2.480426E-04
5.016165E+03	2.785934E-02	2.467640E-04
5.025963E+03	2.774074E-02	2.455631E-04
5.035760E+03	2.762936E-02	2.444407E-04
5.045557E+03	2.752629E-02	2.434059E-04
5.055354E+03	2.743156E-02	2.424586E-04
5.065151E+03	2.734524E-02	2.415992E-04
5.074949E+03	2.726721E-02	2.408263E-04
5.084746E+03	2.719717E-02	2.401372E-04
5.094543E+03	2.713492E-02	2.395298E-04
5.104340E+03	2.707953E-02	2.389959E-04
5.114137E+03	2.703021E-02	2.385285E-04
5.123935E+03	2.698604E-02	2.381193E-04
5.133732E+03	2.694600E-02	2.377594E-04
5.143529E+03	2.690928E-02	2.374418E-04
5.153326E+03	2.687444E-02	2.371539E-04
5.163123E+03	2.684028E-02	2.368850E-04
5.172921E+03	2.680589E-02	2.366274E-04
5.182718E+03	2.676983E-02	2.363684E-04
5.192515E+03	2.673093E-02	2.360980E-04
5.202312E+03	2.668815E-02	2.358068E-04
5.212109E+03	2.664079E-02	2.354890E-04
5.221907E+03	2.658770E-02	2.351345E-04
5.231704E+03	2.652845E-02	2.347396E-04
5.241501E+03	2.646185E-02	2.342938E-04
5.251298E+03	2.638810E-02	2.337987E-04
5.261095E+03	2.630693E-02	2.332513E-04
5.270893E+03	2.621804E-02	2.326477E-04
5.280690E+03	2.612156E-02	2.319878E-04
5.290487E+03	2.601816E-02	2.312767E-04
5.300284E+03	2.590809E-02	2.305155E-04
5.310081E+03	2.579213E-02	2.297101E-04
5.319879E+03	2.567156E-02	2.288706E-04
5.329676E+03	2.554755E-02	2.280068E-04
5.339473E+03	2.542086E-02	2.271245E-04
5.349270E+03	2.529388E-02	2.262440E-04
5.359067E+03	2.516733E-02	2.253710E-04
5.368865E+03	2.504365E-02	2.245268E-04
5.378662E+03	2.492332E-02	2.237150E-04
5.388459E+03	2.480772E-02	2.229475E-04
5.398256E+03	2.469698E-02	2.222248E-04
5.408053E+03	2.459043E-02	2.215406E-04
5.417850E+03	2.448753E-02	2.208896E-04
5.427648E+03	2.438799E-02	2.202685E-04
5.437445E+03	2.429126E-02	2.196722E-04
5.447242E+03	2.419656E-02	2.190931E-04
5.457039E+03	2.410348E-02	2.185272E-04
5.466836E+03	2.401191E-02	2.179729E-04
5.476634E+03	2.392151E-02	2.174271E-04
5.486431E+03	2.383169E-02	2.168839E-04
5.496228E+03	2.374245E-02	2.163430E-04
5.506025E+03	2.365325E-02	2.157991E-04
5.515822E+03	2.356415E-02	2.152525E-04
5.525620E+03	2.347462E-02	2.146982E-04
5.535417E+03	2.338477E-02	2.141369E-04
5.545214E+03	2.329442E-02	2.135667E-04
5.555011E+03	2.320314E-02	2.129834E-04
5.564808E+03	2.311112E-02	2.123886E-04
5.574606E+03	2.301797E-02	2.117786E-04
5.584403E+03	2.292395E-02	2.111557E-04
5.594200E+03	2.282874E-02	2.105167E-04
5.603997E+03	2.273268E-02	2.098647E-04
5.613794E+03	2.263579E-02	2.091999E-04
5.623592E+03	2.253789E-02	2.085204E-04
5.633389E+03	2.243935E-02	2.078299E-04
5.643186E+03	2.234031E-02	2.071295E-04
5.652983E+03	2.224062E-02	2.064178E-04
5.662780E+03	2.214043E-02	2.056965E-04
5.672578E+03	2.204044E-02	2.049720E-04
5.682375E+03	2.194025E-02	2.042408E-04
5.692172E+03	2.184027E-02	2.035067E-04
5.701969E+03	2.174034E-02	2.027685E-04
5.711766E+03	2.164084E-02	2.020299E-04
5.721564E+03	2.154157E-02	2.012892E-04
5.731361E+03	2.144315E-02	2.005523E-04
5.741158E+03	2.134502E-02	1.998144E-04
5.750955E+03	2.124719E-02	1.990758E-04
5.760752E+03	2.115020E-02	1.983417E-04
5.770550E+03	2.105316E-02	1.976041E-04
5.780347E+03	2.095683E-02	1.968704E-04
5.790144E+03	2.086058E-02	1.961350E-04
5.799941E+03	2.076460E-02	1.953999E-04
5.809738E+03	2.066882E-02	1.946648E-04
5.819536E+03	2.057285E-02	1.939265E-04
5.829333E+03	2.047692E-02	1.931872E-04
5.839130E+03	2.038095E-02	1.924466E-04
5.848927E+03	2.028463E-02	1.917022E-04
5.858724E+03	2.018820E-02	1.909566E-04
5.868522E+03	2.009168E-02	1.902101E-04
5.878319E+03	1.999506E-02	1.894633E-04
5.888116E+03	1.989812E-02	1.887143E-04
5.897913E+03	1.980120E-02	1.879666E-04
5.907710E+03	1.970410E-02	1.872188E-04
5.917508E+03	1.960748E-02	1.864775E-04
5.927305E+03	1.951095E-02	1.857394E-04
5.937102E+03	1.941467E-02	1.850063E-04
5.946899E+03	1.931936E-02	1.842856E-04
5.956696E+03	1.922473E-02	1.835747E-04
5.966494E+03	1.913129E-02	1.828791E-04
5.976291E+03	1.903907E-02	1.821993E-04
5.986088E+03	1.894894E-02	1.815441E-04
5.995885E+03	1.886047E-02	1.809098E-04
6.005682E+03	1.877488E-02	1.803086E-04
6.015480E+03	1.869238E-02	1.797429E-04
6.025277E+03	1.861322E-02	1.792156E-04
6.035074E+03	1.853829E-02	1.787355E-04
6.044871E+03	1.846799E-02	1.783074E-04
6.054668E+03	1.840366E-02	1.779445E-04
6.064466E+03	1.834570E-02	1.776514E-04
6.074263E+03	1.829522E-02	1.774392E-04
6.084060E+03	1.825401E-02	1.773264E-04
6.093857E+03	1.822305E-02	1.773222E-04
6.103654E+03	1.820413E-02	1.774445E-04
6.113452E+03	1.819848E-02	1.777050E-04
6.123249E+03	1.820594E-02	1.781024E-04
6.133046E+03	1.822591E-02	1.786310E-04
6.142843E+03	1.825584E-02	1.792660E-04
6.152640E+03	1.829478E-02	1.799980E-04
6.162438E+03	1.834062E-02	1.808063E-04
6.172235E+03	1.839255E-02	1.816828E-04
6.182032E+03	1.844858E-02	1.826076E-04
6.191829E+03	1.850855E-02	1.835790E-04
6.201626E+03	1.857105E-02	1.845826E-04
6.211424E+03	1.863564E-02	1.856137E-04
6.221221E+03	1.870169E-02	1.866659E-04
6.231018E+03	1.876867E-02	1.877332E-04
6.240815E+03	1.883584E-02	1.888080E-04
6.250612E+03	1.890308E-02	1.898883E-04
6.260410E+03	1.896977E-02	1.909677E-04
6.270207E+03	1.903621E-02	1.920487E-04
6.280004E+03	1.910157E-02	1.931221E-04
6.289801E+03	1.916593E-02	1.941884E-04
6.299598E+03	1.922911E-02	1.952450E-04
6.309396E+03	1.929063E-02	1.962868E-04
6.319193E+03	1.935062E-02	1.973143E-04
6.328990E+03	1.940894E-02	1.983256E-04
6.338787E+03	1.946538E-02	1.993180E-04
6.348584E+03	1.951947E-02	2.002860E-04
6.358382E+03	1.957130E-02	2.012299E-04
6.368179E+03	1.962060E-02	2.021466E-04
6.377976E+03	1.966682E-02	2.030295E-04
6.387773E+03	1.970996E-02	2.038782E-04
6.397570E+03	1.974968E-02	2.046886E-04
6.407367E+03	1.978564E-02	2.054563E-04
6.417165E+03	1.981710E-02	2.061734E-04
6.426962E+03	1.984435E-02	2.068420E-04
6.436759E+03	1.986597E-02	2.074467E-04
6.446556E+03	1.988255E-02	2.079931E-04
6.456353E+03	1.989302E-02	2.084694E-04
6.466151E+03	1.989733E-02	2.088743E-04
6.475948E+03	1.989512E-02	2.092036E-04
6.485745E+03	1.988609E-02	2.094534E-04
6.495542E+03	1.986962E-02	2.096166E-04
6.505339E+03	1.984586E-02	2.096941E-04
6.515137E+03	1.981433E-02	2.096804E-04
6.524934E+03	1.977564E-02	2.095814E-04
6.534731E+03	1.972912E-02	2.093896E-04
6.544528E+03	1.967523E-02	2.091092E-04
6.554325E+03	1.961379E-02	2.087381E-04
6.564123E+03	1.954542E-02	2.082824E-04
6.573920E+03	1.947044E-02	2.077453E-04
6.583717E+03	1.938929E-02	2.071310E-04
6.593514E+03	1.930210E-02	2.064409E-04
6.603311E+03	1.920973E-02	2.056839E-04
6.613109E+03	1.911277E-02	2.048662E-04
6.622906E+03	1.901147E-02	2.039906E-04
6.632703E+03	1.890714E-02	2.030709E-04
6.642500E+03	1.879941E-02	2.021031E-04
6.652297E+03	1.868989E-02	2.011049E-04
6.662095E+03	1.857851E-02	2.000755E-04
6.671892E+03	1.846621E-02	1.990250E-04
6.681689E+03	1.835349E-02	1.979592E-04
6.691486E+03	1.824052E-02	1.968801E-04
6.701283E+03	1.812809E-02	1.957963E-04
6.711081E+03	1.801655E-02	1.947121E-04
6.720878E+03	1.790624E-02	1.936312E-04
6.730675E+03	1.779710E-02	1.925533E-04
6.740472E+03	1.768966E-02	1.914845E-04
6.750269E+03	1.758373E-02	1.904230E-04
6.760067E+03	1.747973E-02	1.893737E-04
6.769864E+03	1.737772E-02	1.883374E-04
6.779661E+03	1.727765E-02	1.873142E-04
6.789458E+03	1.717918E-02	1.863005E-04
6.799255E+03	1.708253E-02	1.852991E-04
6.809053E+03	1.698727E-02	1.843058E-04
6.818850E+03	1.689389E-02	1.833260E-04
6.828647E+03	1.680158E-02	1.823515E-04
6.838444E+03	1.671019E-02	1.813810E-04
6.848241E+03	1.662016E-02	1.804196E-04
6.858039E+03	1.653037E-02	1.794555E-04
6.867836E+03	1.644158E-02	1.784974E-04
6.877633E+03	1.635302E-02	1.775372E-04
6.887430E+03	1.626483E-02	1.765769E-04
6.897227E+03	1.617688E-02	1.756155E-04
6.907025E+03	1.608876E-02	1.746490E-04
6.916822E+03	1.600070E-02	1.736802E-04
6.926619E+03	1.591264E-02	1.727090E-04
6.936416E+03	1.582424E-02	1.717320E-04
6.946213E+03	1.573582E-02	1.707532E-04
6.956011E+03	1.564711E-02	1.697702E-04
6.965808E+03	1.555878E-02	1.687906E-04
6.975605E+03	1.547000E-02	1.678058E-04
6.985402E+03	1.538182E-02	1.668278E-04
6.995199E+03	1.529375E-02	1.658516E-04
7.004997E+03	1.520625E-02	1.648827E-04
7.014794E+03	1.511916E-02	1.639199E-04
7.024591E+03	1.503294E-02	1.629687E-04
7.034388E+03	1.494775E-02	1.620310E-04
7.044185E+03	1.486339E-02	1.611055E-04
7.053983E+03	1.478029E-02	1.601971E-04
7.063780E+03	1.469851E-02	1.593070E-04
7.073577E+03	1.461779E-02	1.584328E-04
7.083374E+03	1.453840E-02	1.575780E-04
7.093171E+03	1.446000E-02	1.567394E-04
7.102969E+03	1.438275E-02	1.559192E-04
7.112766E+03	1.430650E-02	1.551162E-04
7.122563E+03	1.423101E-02	1.543284E-04
7.132360E+03	1.415545E-02	1.535472E-04
7.142157E+03	1.408039E-02	1.527792E-04
7.151955E+03	1.400489E-02	1.520149E-04
7.161752E+03	1.392889E-02	1.512540E-04
7.171549E+03	1.385173E-02	1.504897E-04
7.181346E+03	1.377331E-02	1.497215E-04
7.191143E+03	1.369327E-02	1.489459E-04
7.200941E+03	1.361096E-02	1.481561E-04
7.210738E+03	1.352637E-02	1.473526E-04
7.220535E+03	1.343895E-02	1.465294E-04
7.230332E+03	1.334876E-02	1.456878E-04
7.240129E+03	1.325566E-02	1.448264E-04
7.249927E+03	1.315928E-02	1.439414E-04
7.259724E+03	1.305991E-02	1.430363E-04
7.269521E+03	1.295735E-02	1.421088E-04
7.279318E+03	1.285204E-02	1.411641E-04
7.289115E+03	1.274424E-02	1.402049E-04
7.298913E+03	1.263400E-02	1.392320E-04
7.308710E+03	1.252202E-02	1.382532E-04
7.318507E+03	1.240854E-02	1.372710E-04
7.328304E+03	1.229440E-02	1.362948E-04
7.338101E+03	1.217999E-02	1.353291E-04
7.347899E+03	1.206633E-02	1.343850E-04
7.357696E+03	1.195419E-02	1.334713E-04
7.367493E+03	1.184417E-02	1.325950E-04
7.377290E+03	1.173744E-02	1.317691E-04
7.387087E+03	1.163469E-02	1.310018E-04
7.396884E+03	1.153720E-02	1.303079E-04
7.406682E+03	1.144597E-02	1.296993E-04
7.416479E+03	1.136157E-02	1.291831E-04
7.426276E+03	1.128581E-02	1.287807E-04
7.436073E+03	1.121923E-02	1.284994E-04
7.445870E+03	1.116301E-02	1.283533E-04
7.455668E+03	1.111762E-02	1.283487E-04
7.465465E+03	1.108361E-02	1.284931E-04
7.475262E+03	1.106049E-02	1.287816E-04
7.485059E+03	1.104786E-02	1.292107E-04
7.494856E+03	1.104457E-02	1.297684E-04
7.504654E+03	1.104993E-02	1.304473E-04
7.514451E+03	1.106297E-02	1.312374E-04
7.524248E+03	1.108250E-02	1.321252E-04
7.534045E+03	1.110760E-02	1.331007E-04
7.543842E+03	1.113768E-02	1.341576E-04
7.553640E+03	1.117194E-02	1.352868E-04
7.563437E+03	1.120935E-02	1.364764E-04
7.573234E+03	1.124948E-02	1.377214E-04
7.583031E+03	1.129139E-02	1.390106E-04
7.592828E+03	1.133448E-02	1.403367E-04
7.602626E+03	1.137872E-02	1.416995E-04
