#wls	flux	fluxerr
1.567552E+03	2.277255E-02	6.447081E-04
1.606740E+03	2.272055E-02	6.421054E-04
1.645929E+03	2.265964E-02	6.392270E-04
1.685118E+03	2.258933E-02	6.360597E-04
1.724307E+03	2.250959E-02	6.326042E-04
1.763496E+03	2.241993E-02	6.288481E-04
1.802684E+03	2.232014E-02	6.247863E-04
1.841873E+03	2.220998E-02	6.204142E-04
1.881062E+03	2.208927E-02	6.157278E-04
1.920251E+03	2.195760E-02	6.107182E-04
1.959440E+03	2.181506E-02	6.053894E-04
1.998628E+03	2.166112E-02	5.997287E-04
2.037817E+03	2.149634E-02	5.937545E-04
2.077006E+03	2.132007E-02	5.874502E-04
2.116195E+03	2.113255E-02	5.808259E-04
2.155384E+03	2.093366E-02	5.738802E-04
2.194572E+03	2.072396E-02	5.666315E-04
2.233761E+03	2.050305E-02	5.590718E-04
2.272950E+03	2.027182E-02	5.512281E-04
2.312139E+03	2.003004E-02	5.430975E-04
2.351328E+03	1.977855E-02	5.347055E-04
2.390516E+03	1.951769E-02	5.260648E-04
2.429705E+03	1.924787E-02	5.171894E-04
2.468894E+03	1.897022E-02	5.081127E-04
2.508083E+03	1.868515E-02	4.988489E-04
2.547271E+03	1.839394E-02	4.894347E-04
2.586460E+03	1.809701E-02	4.798848E-04
2.625649E+03	1.779600E-02	4.702451E-04
2.664838E+03	1.749173E-02	4.605395E-04
2.704027E+03	1.718543E-02	4.508029E-04
2.743215E+03	1.687859E-02	4.410762E-04
2.782404E+03	1.657260E-02	4.313974E-04
2.821593E+03	1.626857E-02	4.217966E-04
2.860782E+03	1.596833E-02	4.123220E-04
2.899971E+03	1.567341E-02	4.030134E-04
2.939159E+03	1.538524E-02	3.939073E-04
2.948957E+03	1.531441E-02	3.916665E-04
2.958754E+03	1.524411E-02	3.894410E-04
2.968551E+03	1.517450E-02	3.872348E-04
2.978348E+03	1.510548E-02	3.850454E-04
2.988145E+03	1.503705E-02	3.828731E-04
2.997943E+03	1.496927E-02	3.807189E-04
3.007740E+03	1.490213E-02	3.785830E-04
3.017537E+03	1.483584E-02	3.764701E-04
3.027334E+03	1.477026E-02	3.743772E-04
3.037131E+03	1.470542E-02	3.723048E-04
3.046929E+03	1.464137E-02	3.702539E-04
3.056726E+03	1.457827E-02	3.682287E-04
3.066523E+03	1.451602E-02	3.662266E-04
3.076320E+03	1.445463E-02	3.642479E-04
3.086117E+03	1.439416E-02	3.622938E-04
3.095915E+03	1.433462E-02	3.603648E-04
3.105712E+03	1.427620E-02	3.584656E-04
3.115509E+03	1.421881E-02	3.565935E-04
3.125306E+03	1.416247E-02	3.547492E-04
3.135103E+03	1.410722E-02	3.529336E-04
3.144901E+03	1.405311E-02	3.511479E-04
3.154698E+03	1.400033E-02	3.493968E-04
3.164495E+03	1.394878E-02	3.476774E-04
3.174292E+03	1.389850E-02	3.459909E-04
3.184089E+03	1.384956E-02	3.443389E-04
3.193887E+03	1.380214E-02	3.427258E-04
3.203684E+03	1.375616E-02	3.411493E-04
3.213481E+03	1.371168E-02	3.396110E-04
3.223278E+03	1.366878E-02	3.381126E-04
3.233075E+03	1.362751E-02	3.366553E-04
3.242873E+03	1.358809E-02	3.352443E-04
3.252670E+03	1.355046E-02	3.338778E-04
3.262467E+03	1.351469E-02	3.325580E-04
3.272264E+03	1.348101E-02	3.312897E-04
3.282061E+03	1.344925E-02	3.300687E-04
3.291859E+03	1.341977E-02	3.289038E-04
3.301656E+03	1.339253E-02	3.277938E-04
3.311453E+03	1.336766E-02	3.267417E-04
3.321250E+03	1.334540E-02	3.257528E-04
3.331047E+03	1.332573E-02	3.248269E-04
3.340845E+03	1.330879E-02	3.239666E-04
3.350642E+03	1.329471E-02	3.231751E-04
3.360439E+03	1.328362E-02	3.224555E-04
3.370236E+03	1.327583E-02	3.218145E-04
3.380033E+03	1.327134E-02	3.212521E-04
3.389831E+03	1.327030E-02	3.207717E-04
3.399628E+03	1.327302E-02	3.203800E-04
3.409425E+03	1.327953E-02	3.200777E-04
3.419222E+03	1.328998E-02	3.198679E-04
3.429019E+03	1.330455E-02	3.197544E-04
3.438816E+03	1.332338E-02	3.197403E-04
3.448614E+03	1.334677E-02	3.198323E-04
3.458411E+03	1.337469E-02	3.200294E-04
3.468208E+03	1.340727E-02	3.203337E-04
3.478005E+03	1.344472E-02	3.207500E-04
3.487802E+03	1.348693E-02	3.212754E-04
3.497600E+03	1.353393E-02	3.219095E-04
3.507397E+03	1.358566E-02	3.226509E-04
3.517194E+03	1.364221E-02	3.235009E-04
3.526991E+03	1.370321E-02	3.244503E-04
3.536788E+03	1.376897E-02	3.255061E-04
3.546586E+03	1.383894E-02	3.266545E-04
3.556383E+03	1.391329E-02	3.278991E-04
3.566180E+03	1.399174E-02	3.292328E-04
3.575977E+03	1.407414E-02	3.306515E-04
3.585774E+03	1.416051E-02	3.321555E-04
3.595572E+03	1.425041E-02	3.337338E-04
3.605369E+03	1.434414E-02	3.353930E-04
3.615166E+03	1.444114E-02	3.371196E-04
3.624963E+03	1.454157E-02	3.389172E-04
3.634760E+03	1.464515E-02	3.407785E-04
3.644558E+03	1.475177E-02	3.427006E-04
3.654355E+03	1.486146E-02	3.446839E-04
3.664152E+03	1.497396E-02	3.467219E-04
3.673949E+03	1.508916E-02	3.488119E-04
3.683746E+03	1.520712E-02	3.509547E-04
3.693544E+03	1.532743E-02	3.531408E-04
3.703341E+03	1.545048E-02	3.553786E-04
3.713138E+03	1.557570E-02	3.576550E-04
3.722935E+03	1.570334E-02	3.599750E-04
3.732732E+03	1.583317E-02	3.623333E-04
3.742530E+03	1.596530E-02	3.647319E-04
3.752327E+03	1.609932E-02	3.671615E-04
3.762124E+03	1.623569E-02	3.696320E-04
3.771921E+03	1.637386E-02	3.721306E-04
3.781718E+03	1.651411E-02	3.746637E-04
3.791516E+03	1.665627E-02	3.772269E-04
3.801313E+03	1.680048E-02	3.798230E-04
3.811110E+03	1.694633E-02	3.824430E-04
3.820907E+03	1.709440E-02	3.850992E-04
3.830704E+03	1.724411E-02	3.877785E-04
3.840502E+03	1.739583E-02	3.904888E-04
3.850299E+03	1.754940E-02	3.932264E-04
3.860096E+03	1.770499E-02	3.959950E-04
3.869893E+03	1.786246E-02	3.987908E-04
3.879690E+03	1.802201E-02	4.016185E-04
3.889488E+03	1.818329E-02	4.044695E-04
3.899285E+03	1.834692E-02	4.073576E-04
3.909082E+03	1.851233E-02	4.102698E-04
3.918879E+03	1.867996E-02	4.132159E-04
3.928676E+03	1.884966E-02	4.161917E-04
3.938474E+03	1.902165E-02	4.192022E-04
3.948271E+03	1.919577E-02	4.222435E-04
3.958068E+03	1.937224E-02	4.253200E-04
3.967865E+03	1.955089E-02	4.284278E-04
3.977662E+03	1.973172E-02	4.315666E-04
3.987460E+03	1.991494E-02	4.347409E-04
3.997257E+03	2.010035E-02	4.379454E-04
4.007054E+03	2.028789E-02	4.411791E-04
4.016851E+03	2.047777E-02	4.444459E-04
4.026648E+03	2.066992E-02	4.477443E-04
4.036446E+03	2.086405E-02	4.510676E-04
4.046243E+03	2.106004E-02	4.544129E-04
4.056040E+03	2.125802E-02	4.577830E-04
4.065837E+03	2.145759E-02	4.611686E-04
4.075634E+03	2.165859E-02	4.645664E-04
4.085432E+03	2.186106E-02	4.679768E-04
4.095229E+03	2.206477E-02	4.713950E-04
4.105026E+03	2.226920E-02	4.748097E-04
4.114823E+03	2.247406E-02	4.782145E-04
4.124620E+03	2.267927E-02	4.816079E-04
4.134418E+03	2.288422E-02	4.849765E-04
4.144215E+03	2.308874E-02	4.883172E-04
4.154012E+03	2.329240E-02	4.916208E-04
4.163809E+03	2.349418E-02	4.948659E-04
4.173606E+03	2.369434E-02	4.980584E-04
4.183404E+03	2.389148E-02	5.011691E-04
4.193201E+03	2.408578E-02	5.042021E-04
4.202998E+03	2.427573E-02	5.071263E-04
4.212795E+03	2.446139E-02	5.099438E-04
4.222592E+03	2.464114E-02	5.126210E-04
4.232390E+03	2.481491E-02	5.151577E-04
4.242187E+03	2.498093E-02	5.175179E-04
4.251984E+03	2.513906E-02	5.196997E-04
4.261781E+03	2.528769E-02	5.216712E-04
4.271578E+03	2.542573E-02	5.234110E-04
4.281376E+03	2.555241E-02	5.249047E-04
4.291173E+03	2.566641E-02	5.261270E-04
4.300970E+03	2.576708E-02	5.270664E-04
4.310767E+03	2.585425E-02	5.277210E-04
4.320564E+03	2.592812E-02	5.280969E-04
4.330362E+03	2.598962E-02	5.282147E-04
4.340159E+03	2.603920E-02	5.280851E-04
4.349956E+03	2.607788E-02	5.277308E-04
4.359753E+03	2.610619E-02	5.271634E-04
4.369550E+03	2.612517E-02	5.264058E-04
4.379348E+03	2.613531E-02	5.254687E-04
4.389145E+03	2.613764E-02	5.243741E-04
4.398942E+03	2.613287E-02	5.231375E-04
4.408739E+03	2.612140E-02	5.217675E-04
4.418536E+03	2.610416E-02	5.202840E-04
4.428333E+03	2.608179E-02	5.187002E-04
4.438131E+03	2.605456E-02	5.170222E-04
4.447928E+03	2.602299E-02	5.152611E-04
4.457725E+03	2.598820E-02	5.134399E-04
4.467522E+03	2.595002E-02	5.115553E-04
4.477319E+03	2.590883E-02	5.096157E-04
4.487117E+03	2.586533E-02	5.076348E-04
4.496914E+03	2.581978E-02	5.056186E-04
4.506711E+03	2.577248E-02	5.035728E-04
4.516508E+03	2.572332E-02	5.014959E-04
4.526305E+03	2.567249E-02	4.993918E-04
4.536103E+03	2.562076E-02	4.972756E-04
4.545900E+03	2.556762E-02	4.951379E-04
4.555697E+03	2.551350E-02	4.929869E-04
4.565494E+03	2.545817E-02	4.908187E-04
4.575291E+03	2.540203E-02	4.886410E-04
4.585089E+03	2.534517E-02	4.864558E-04
4.594886E+03	2.528739E-02	4.842594E-04
4.604683E+03	2.522912E-02	4.820601E-04
4.614480E+03	2.517048E-02	4.798608E-04
4.624277E+03	2.511165E-02	4.776644E-04
4.634075E+03	2.505250E-02	4.754689E-04
4.643872E+03	2.499351E-02	4.732834E-04
4.653669E+03	2.493453E-02	4.711052E-04
4.663466E+03	2.487629E-02	4.689482E-04
4.673263E+03	2.481817E-02	4.668006E-04
4.683061E+03	2.476033E-02	4.646654E-04
4.692858E+03	2.470236E-02	4.625350E-04
4.702655E+03	2.464488E-02	4.604209E-04
4.712452E+03	2.458814E-02	4.583280E-04
4.722249E+03	2.453220E-02	4.562571E-04
4.732047E+03	2.447704E-02	4.542079E-04
4.741844E+03	2.442220E-02	4.521717E-04
4.751641E+03	2.436781E-02	4.501514E-04
4.761438E+03	2.431366E-02	4.481424E-04
4.771235E+03	2.425952E-02	4.461409E-04
4.781033E+03	2.420483E-02	4.441366E-04
4.790830E+03	2.414962E-02	4.421304E-04
4.800627E+03	2.409368E-02	4.401181E-04
4.810424E+03	2.403673E-02	4.380952E-04
4.820221E+03	2.397824E-02	4.360519E-04
4.830019E+03	2.391863E-02	4.339963E-04
4.839816E+03	2.385711E-02	4.319141E-04
4.849613E+03	2.379384E-02	4.298086E-04
4.859410E+03	2.372845E-02	4.276733E-04
4.869207E+03	2.366150E-02	4.255187E-04
4.879005E+03	2.359243E-02	4.233349E-04
4.888802E+03	2.352193E-02	4.211348E-04
4.898599E+03	2.344955E-02	4.189102E-04
4.908396E+03	2.337583E-02	4.166713E-04
4.918193E+03	2.330073E-02	4.144174E-04
4.927991E+03	2.322518E-02	4.121654E-04
4.937788E+03	2.314897E-02	4.099116E-04
4.947585E+03	2.307309E-02	4.076737E-04
4.957382E+03	2.299738E-02	4.054488E-04
4.967179E+03	2.292258E-02	4.032500E-04
4.976977E+03	2.284914E-02	4.010851E-04
4.986774E+03	2.277748E-02	3.989615E-04
4.996571E+03	2.270772E-02	3.968810E-04
5.006368E+03	2.264083E-02	3.948605E-04
5.016165E+03	2.257655E-02	3.928950E-04
5.025963E+03	2.251576E-02	3.909998E-04
5.035760E+03	2.245810E-02	3.891684E-04
5.045557E+03	2.240404E-02	3.874082E-04
5.055354E+03	2.235367E-02	3.857211E-04
5.065151E+03	2.230705E-02	3.841071E-04
5.074949E+03	2.226415E-02	3.825659E-04
5.084746E+03	2.222488E-02	3.810954E-04
5.094543E+03	2.218909E-02	3.796928E-04
5.104340E+03	2.215657E-02	3.783541E-04
5.114137E+03	2.212677E-02	3.770698E-04
5.123935E+03	2.209995E-02	3.758443E-04
5.133732E+03	2.207519E-02	3.746614E-04
5.143529E+03	2.205269E-02	3.735246E-04
5.153326E+03	2.203142E-02	3.724164E-04
5.163123E+03	2.201157E-02	3.713399E-04
5.172921E+03	2.199208E-02	3.702774E-04
5.182718E+03	2.197281E-02	3.692263E-04
5.192515E+03	2.195362E-02	3.681845E-04
5.202312E+03	2.193347E-02	3.671348E-04
5.212109E+03	2.191226E-02	3.660757E-04
5.221907E+03	2.188992E-02	3.650061E-04
5.231704E+03	2.186548E-02	3.639101E-04
5.241501E+03	2.183894E-02	3.627883E-04
5.251298E+03	2.181005E-02	3.616365E-04
5.261095E+03	2.177889E-02	3.604566E-04
5.270893E+03	2.174470E-02	3.592358E-04
5.280690E+03	2.170766E-02	3.579776E-04
5.290487E+03	2.166771E-02	3.566811E-04
5.300284E+03	2.162516E-02	3.553515E-04
5.310081E+03	2.157943E-02	3.539796E-04
5.319879E+03	2.153094E-02	3.525720E-04
5.329676E+03	2.148011E-02	3.511362E-04
5.339473E+03	2.142650E-02	3.496647E-04
5.349270E+03	2.137089E-02	3.481708E-04
5.359067E+03	2.131287E-02	3.466475E-04
5.368865E+03	2.125322E-02	3.451076E-04
5.378662E+03	2.119176E-02	3.435484E-04
5.388459E+03	2.112834E-02	3.419672E-04
5.398256E+03	2.106381E-02	3.403782E-04
5.408053E+03	2.099808E-02	3.387796E-04
5.417850E+03	2.093130E-02	3.371740E-04
5.427648E+03	2.086362E-02	3.355637E-04
5.437445E+03	2.079514E-02	3.339501E-04
5.447242E+03	2.072592E-02	3.323346E-04
5.457039E+03	2.065605E-02	3.307181E-04
5.466836E+03	2.058558E-02	3.291017E-04
5.476634E+03	2.051487E-02	3.274909E-04
5.486431E+03	2.044335E-02	3.258764E-04
5.496228E+03	2.037165E-02	3.242687E-04
5.506025E+03	2.029921E-02	3.226582E-04
5.515822E+03	2.022664E-02	3.210551E-04
5.525620E+03	2.015368E-02	3.194548E-04
5.535417E+03	2.008032E-02	3.178574E-04
5.545214E+03	2.000659E-02	3.162630E-04
5.555011E+03	1.993249E-02	3.146717E-04
5.564808E+03	1.985834E-02	3.130886E-04
5.574606E+03	1.978355E-02	3.115042E-04
5.584403E+03	1.970875E-02	3.099283E-04
5.594200E+03	1.963364E-02	3.083564E-04
5.603997E+03	1.955826E-02	3.067888E-04
5.613794E+03	1.948263E-02	3.052259E-04
5.623592E+03	1.940679E-02	3.036682E-04
5.633389E+03	1.933077E-02	3.021161E-04
5.643186E+03	1.925461E-02	3.005703E-04
5.652983E+03	1.917864E-02	2.990359E-04
5.662780E+03	1.910261E-02	2.975087E-04
5.672578E+03	1.902656E-02	2.959896E-04
5.682375E+03	1.895052E-02	2.944788E-04
5.692172E+03	1.887455E-02	2.929771E-04
5.701969E+03	1.879897E-02	2.914897E-04
5.711766E+03	1.872322E-02	2.900075E-04
5.721564E+03	1.864792E-02	2.885404E-04
5.731361E+03	1.857280E-02	2.870839E-04
5.741158E+03	1.849787E-02	2.856384E-04
5.750955E+03	1.842317E-02	2.842041E-04
5.760752E+03	1.834899E-02	2.827857E-04
5.770550E+03	1.827477E-02	2.813743E-04
5.780347E+03	1.820108E-02	2.799788E-04
5.790144E+03	1.812765E-02	2.785950E-04
5.799941E+03	1.805477E-02	2.772274E-04
5.809738E+03	1.798187E-02	2.758669E-04
5.819536E+03	1.790956E-02	2.745229E-04
5.829333E+03	1.783754E-02	2.731910E-04
5.839130E+03	1.776584E-02	2.718714E-04
5.848927E+03	1.769449E-02	2.705647E-04
5.858724E+03	1.762353E-02	2.692712E-04
5.868522E+03	1.755327E-02	2.679958E-04
5.878319E+03	1.748349E-02	2.667352E-04
5.888116E+03	1.741426E-02	2.654901E-04
5.897913E+03	1.734593E-02	2.642662E-04
5.907710E+03	1.727801E-02	2.630557E-04
5.917508E+03	1.721119E-02	2.618691E-04
5.927305E+03	1.714528E-02	2.607037E-04
5.937102E+03	1.708042E-02	2.595612E-04
5.946899E+03	1.701702E-02	2.584482E-04
5.956696E+03	1.695497E-02	2.573628E-04
5.966494E+03	1.689445E-02	2.563075E-04
5.976291E+03	1.683564E-02	2.552853E-04
5.986088E+03	1.677876E-02	2.542994E-04
5.995885E+03	1.672435E-02	2.533579E-04
6.005682E+03	1.667237E-02	2.524601E-04
6.015480E+03	1.662313E-02	2.516108E-04
6.025277E+03	1.657721E-02	2.508186E-04
6.035074E+03	1.653442E-02	2.500807E-04
6.044871E+03	1.649569E-02	2.494110E-04
6.054668E+03	1.646142E-02	2.488155E-04
6.064466E+03	1.643144E-02	2.482918E-04
6.074263E+03	1.640672E-02	2.478543E-04
6.084060E+03	1.638727E-02	2.475031E-04
6.093857E+03	1.637328E-02	2.472414E-04
6.103654E+03	1.636504E-02	2.470728E-04
6.113452E+03	1.636165E-02	2.469841E-04
6.123249E+03	1.636353E-02	2.469811E-04
6.133046E+03	1.637090E-02	2.470671E-04
6.142843E+03	1.638314E-02	2.472326E-04
6.152640E+03	1.640059E-02	2.474826E-04
6.162438E+03	1.642256E-02	2.478065E-04
6.172235E+03	1.644883E-02	2.482011E-04
6.182032E+03	1.647861E-02	2.486541E-04
6.191829E+03	1.651138E-02	2.491578E-04
6.201626E+03	1.654665E-02	2.497045E-04
6.211424E+03	1.658423E-02	2.502914E-04
6.221221E+03	1.662311E-02	2.509033E-04
6.231018E+03	1.666380E-02	2.515475E-04
6.240815E+03	1.670502E-02	2.522049E-04
6.250612E+03	1.674704E-02	2.528794E-04
6.260410E+03	1.678925E-02	2.535617E-04
6.270207E+03	1.683136E-02	2.542475E-04
6.280004E+03	1.687342E-02	2.549372E-04
6.289801E+03	1.691486E-02	2.556223E-04
6.299598E+03	1.695545E-02	2.562991E-04
6.309396E+03	1.699495E-02	2.569641E-04
6.319193E+03	1.703344E-02	2.576184E-04
6.328990E+03	1.707042E-02	2.582543E-04
6.338787E+03	1.710598E-02	2.588729E-04
6.348584E+03	1.713929E-02	2.594617E-04
6.358382E+03	1.717075E-02	2.600268E-04
6.368179E+03	1.720019E-02	2.605652E-04
6.377976E+03	1.722675E-02	2.610640E-04
6.387773E+03	1.725085E-02	2.615295E-04
6.397570E+03	1.727233E-02	2.619590E-04
6.407367E+03	1.729031E-02	2.623390E-04
6.417165E+03	1.730526E-02	2.626766E-04
6.426962E+03	1.731666E-02	2.629638E-04
6.436759E+03	1.732466E-02	2.632028E-04
6.446556E+03	1.732844E-02	2.633807E-04
6.456353E+03	1.732883E-02	2.635103E-04
6.466151E+03	1.732470E-02	2.635740E-04
6.475948E+03	1.731659E-02	2.635802E-04
6.485745E+03	1.730408E-02	2.635221E-04
6.495542E+03	1.728710E-02	2.633985E-04
6.505339E+03	1.726594E-02	2.632136E-04
6.515137E+03	1.724024E-02	2.629618E-04
6.524934E+03	1.721003E-02	2.626434E-04
6.534731E+03	1.717567E-02	2.622638E-04
6.544528E+03	1.713692E-02	2.618190E-04
6.554325E+03	1.709388E-02	2.613104E-04
6.564123E+03	1.704701E-02	2.607450E-04
6.573920E+03	1.699615E-02	2.601202E-04
6.583717E+03	1.694149E-02	2.594384E-04
6.593514E+03	1.688358E-02	2.587083E-04
6.603311E+03	1.682231E-02	2.579278E-04
6.613109E+03	1.675792E-02	2.571007E-04
6.622906E+03	1.669102E-02	2.562360E-04
6.632703E+03	1.662155E-02	2.553326E-04
6.642500E+03	1.654978E-02	2.543946E-04
6.652297E+03	1.647630E-02	2.534313E-04
6.662095E+03	1.640107E-02	2.524415E-04
6.671892E+03	1.632434E-02	2.514291E-04
6.681689E+03	1.624637E-02	2.503982E-04
6.691486E+03	1.616772E-02	2.493573E-04
6.701283E+03	1.608863E-02	2.483099E-04
6.711081E+03	1.600863E-02	2.472489E-04
6.720878E+03	1.592857E-02	2.461872E-04
6.730675E+03	1.584828E-02	2.451224E-04
6.740472E+03	1.576823E-02	2.440616E-04
6.750269E+03	1.568822E-02	2.430014E-04
6.760067E+03	1.560834E-02	2.419438E-04
6.769864E+03	1.552900E-02	2.408946E-04
6.779661E+03	1.544993E-02	2.398498E-04
6.789458E+03	1.537117E-02	2.388101E-04
6.799255E+03	1.529306E-02	2.377808E-04
6.809053E+03	1.521497E-02	2.367520E-04
6.818850E+03	1.513785E-02	2.357385E-04
6.828647E+03	1.506073E-02	2.347253E-04
6.838444E+03	1.498422E-02	2.337218E-04
6.848241E+03	1.490827E-02	2.327275E-04
6.858039E+03	1.483224E-02	2.317321E-04
6.867836E+03	1.475671E-02	2.307448E-04
6.877633E+03	1.468132E-02	2.297600E-04
6.887430E+03	1.460635E-02	2.287822E-04
6.897227E+03	1.453144E-02	2.278057E-04
6.907025E+03	1.445658E-02	2.268303E-04
6.916822E+03	1.438204E-02	2.258602E-04
6.926619E+03	1.430749E-02	2.248905E-04
6.936416E+03	1.423293E-02	2.239209E-04
6.946213E+03	1.415864E-02	2.229560E-04
6.956011E+03	1.408431E-02	2.219911E-04
6.965808E+03	1.400996E-02	2.210262E-04
6.975605E+03	1.393590E-02	2.200663E-04
6.985402E+03	1.386182E-02	2.191068E-04
6.995199E+03	1.378776E-02	2.181479E-04
7.004997E+03	1.371401E-02	2.171946E-04
7.014794E+03	1.364030E-02	2.162424E-04
7.024591E+03	1.356663E-02	2.152915E-04
7.034388E+03	1.349331E-02	2.143469E-04
7.044185E+03	1.342005E-02	2.134036E-04
7.053983E+03	1.334711E-02	2.124663E-04
7.063780E+03	1.327390E-02	2.115252E-04
7.073577E+03	1.320098E-02	2.105896E-04
7.083374E+03	1.312830E-02	2.096585E-04
7.093171E+03	1.305524E-02	2.087221E-04
7.102969E+03	1.298260E-02	2.077933E-04
7.112766E+03	1.290943E-02	2.068567E-04
7.122563E+03	1.283625E-02	2.059207E-04
7.132360E+03	1.276267E-02	2.049792E-04
7.142157E+03	1.268861E-02	2.040306E-04
7.151955E+03	1.261425E-02	2.030783E-04
7.161752E+03	1.253922E-02	2.021158E-04
7.171549E+03	1.246343E-02	2.011419E-04
7.181346E+03	1.238710E-02	2.001601E-04
7.191143E+03	1.230987E-02	1.991644E-04
7.200941E+03	1.223198E-02	1.981588E-04
7.210738E+03	1.215282E-02	1.971334E-04
7.220535E+03	1.207324E-02	1.961019E-04
7.230332E+03	1.199242E-02	1.950508E-04
7.240129E+03	1.191096E-02	1.939899E-04
7.249927E+03	1.182867E-02	1.929160E-04
7.259724E+03	1.174565E-02	1.918308E-04
7.269521E+03	1.166233E-02	1.907412E-04
7.279318E+03	1.157861E-02	1.896454E-04
7.289115E+03	1.149498E-02	1.885515E-04
7.298913E+03	1.141113E-02	1.874545E-04
7.308710E+03	1.132790E-02	1.863681E-04
7.318507E+03	1.124558E-02	1.852969E-04
7.328304E+03	1.116423E-02	1.842424E-04
7.338101E+03	1.108421E-02	1.832102E-04
7.347899E+03	1.100590E-02	1.822069E-04
7.357696E+03	1.092995E-02	1.812433E-04
7.367493E+03	1.085649E-02	1.803216E-04
7.377290E+03	1.078591E-02	1.794488E-04
7.387087E+03	1.071889E-02	1.786360E-04
7.396884E+03	1.065552E-02	1.778855E-04
7.406682E+03	1.059644E-02	1.772080E-04
7.416479E+03	1.054145E-02	1.766004E-04
7.426276E+03	1.049135E-02	1.760768E-04
7.436073E+03	1.044634E-02	1.756408E-04
7.445870E+03	1.040603E-02	1.752865E-04
7.455668E+03	1.037099E-02	1.750233E-04
7.465465E+03	1.034116E-02	1.748509E-04
7.475262E+03	1.031607E-02	1.747616E-04
7.485059E+03	1.029625E-02	1.747648E-04
7.494856E+03	1.028159E-02	1.748590E-04
7.504654E+03	1.027140E-02	1.750328E-04
7.514451E+03	1.026593E-02	1.752910E-04
7.524248E+03	1.026490E-02	1.756291E-04
7.534045E+03	1.026745E-02	1.760328E-04
7.543842E+03	1.027377E-02	1.765054E-04
7.553640E+03	1.028321E-02	1.770364E-04
7.563437E+03	1.029568E-02	1.776243E-04
7.573234E+03	1.031054E-02	1.782584E-04
7.583031E+03	1.032742E-02	1.789324E-04
7.592828E+03	1.034623E-02	1.796448E-04
7.602626E+03	1.036609E-02	1.803806E-04
