#wls	flux	fluxerr
1.591042E+03	9.441017E-15	1.594907E-16
1.630818E+03	1.010767E-14	1.680753E-16
1.670595E+03	1.071343E-14	1.753479E-16
1.710371E+03	1.123676E-14	1.810238E-16
1.750147E+03	1.165408E-14	1.848074E-16
1.789923E+03	1.193231E-14	1.862782E-16
1.829699E+03	1.203691E-14	1.850226E-16
1.869475E+03	1.193723E-14	1.807138E-16
1.909251E+03	1.161574E-14	1.732409E-16
1.949027E+03	1.108263E-14	1.629051E-16
1.988803E+03	1.039465E-14	1.506606E-16
2.028579E+03	9.666796E-15	1.382348E-16
2.068355E+03	9.024051E-15	1.273995E-16
2.108131E+03	8.517039E-15	1.187942E-16
2.147907E+03	8.385741E-15	1.156397E-16
2.187683E+03	8.672989E-15	1.183369E-16
2.227459E+03	9.293542E-15	1.255604E-16
2.267235E+03	1.001551E-14	1.340914E-16
2.307012E+03	1.071442E-14	1.422572E-16
2.346788E+03	1.134869E-14	1.495310E-16
2.386564E+03	1.185865E-14	1.551606E-16
2.426340E+03	1.222250E-14	1.589002E-16
2.466116E+03	1.245280E-14	1.609479E-16
2.505892E+03	1.258707E-14	1.618111E-16
2.545668E+03	1.267789E-14	1.621741E-16
2.585444E+03	1.276735E-14	1.625685E-16
2.625220E+03	1.277942E-14	1.620171E-16
2.664996E+03	1.275709E-14	1.610621E-16
2.704772E+03	1.276058E-14	1.604528E-16
2.744548E+03	1.276655E-14	1.598808E-16
2.784324E+03	1.275230E-14	1.590511E-16
2.824100E+03	1.270478E-14	1.577946E-16
2.863876E+03	1.261897E-14	1.560449E-16
2.903652E+03	1.249524E-14	1.538054E-16
2.943428E+03	1.233705E-14	1.511184E-16
2.983205E+03	1.214958E-14	1.480488E-16
2.993149E+03	1.209881E-14	1.472301E-16
3.003093E+03	1.204664E-14	1.463927E-16
3.013037E+03	1.199319E-14	1.455385E-16
3.022981E+03	1.193887E-14	1.446723E-16
3.032925E+03	1.188486E-14	1.438084E-16
3.042869E+03	1.183226E-14	1.429602E-16
3.052813E+03	1.178095E-14	1.421259E-16
3.062757E+03	1.173058E-14	1.413014E-16
3.072701E+03	1.168085E-14	1.404831E-16
3.082645E+03	1.163155E-14	1.396683E-16
3.092589E+03	1.158243E-14	1.388542E-16
3.102533E+03	1.153332E-14	1.380385E-16
3.112477E+03	1.148408E-14	1.372197E-16
3.122421E+03	1.143457E-14	1.363961E-16
3.132365E+03	1.138470E-14	1.355667E-16
3.142309E+03	1.133441E-14	1.347309E-16
3.152253E+03	1.128359E-14	1.338874E-16
3.162197E+03	1.123223E-14	1.330362E-16
3.172141E+03	1.118032E-14	1.321771E-16
3.182085E+03	1.112787E-14	1.313104E-16
3.192029E+03	1.107484E-14	1.304358E-16
3.201973E+03	1.102134E-14	1.295546E-16
3.211917E+03	1.096732E-14	1.286664E-16
3.221861E+03	1.091292E-14	1.277728E-16
3.231805E+03	1.085817E-14	1.268743E-16
3.241749E+03	1.080318E-14	1.259723E-16
3.251693E+03	1.074804E-14	1.250680E-16
3.261637E+03	1.069291E-14	1.241632E-16
3.271581E+03	1.063788E-14	1.232592E-16
3.281525E+03	1.058313E-14	1.223580E-16
3.291469E+03	1.052877E-14	1.214610E-16
3.301413E+03	1.047505E-14	1.205710E-16
3.311357E+03	1.042210E-14	1.196897E-16
3.321301E+03	1.037007E-14	1.188189E-16
3.331245E+03	1.031905E-14	1.179595E-16
3.341189E+03	1.026901E-14	1.171112E-16
3.351133E+03	1.021958E-14	1.162699E-16
3.361077E+03	1.017025E-14	1.154297E-16
3.371021E+03	1.012018E-14	1.145813E-16
3.380965E+03	1.006845E-14	1.137144E-16
3.390909E+03	1.001422E-14	1.128199E-16
3.400853E+03	9.956638E-15	1.118884E-16
3.410797E+03	9.895205E-15	1.109148E-16
3.420741E+03	9.829516E-15	1.098950E-16
3.430685E+03	9.759440E-15	1.088280E-16
3.440629E+03	9.684849E-15	1.077129E-16
3.450573E+03	9.605747E-15	1.065503E-16
3.460517E+03	9.522143E-15	1.053407E-16
3.470461E+03	9.434224E-15	1.040869E-16
3.480405E+03	9.342544E-15	1.027953E-16
3.490349E+03	9.247917E-15	1.014755E-16
3.500293E+03	9.151592E-15	1.001414E-16
3.510237E+03	9.055244E-15	9.881168E-17
3.520181E+03	8.961010E-15	9.750969E-17
3.530125E+03	8.871433E-15	9.626298E-17
3.540069E+03	8.789487E-15	9.510341E-17
3.550013E+03	8.718770E-15	9.406920E-17
3.559957E+03	8.663601E-15	9.320579E-17
3.569901E+03	8.629056E-15	9.256626E-17
3.579845E+03	8.619533E-15	9.219571E-17
3.589789E+03	8.631687E-15	9.205618E-17
3.599734E+03	8.659508E-15	9.208174E-17
3.609678E+03	8.697752E-15	9.221533E-17
3.619622E+03	8.741816E-15	9.240732E-17
3.629566E+03	8.787666E-15	9.261469E-17
3.639510E+03	8.831713E-15	9.279956E-17
3.649454E+03	8.870783E-15	9.292888E-17
3.659398E+03	8.902056E-15	9.297371E-17
3.669342E+03	8.923017E-15	9.290862E-17
3.679286E+03	8.931606E-15	9.271327E-17
3.689230E+03	8.926154E-15	9.237163E-17
3.699174E+03	8.905607E-15	9.187420E-17
3.709118E+03	8.869679E-15	9.121956E-17
3.719062E+03	8.819024E-15	9.041595E-17
3.729006E+03	8.755103E-15	8.947980E-17
3.738950E+03	8.680238E-15	8.843610E-17
3.748894E+03	8.597154E-15	8.731364E-17
3.758838E+03	8.508921E-15	8.614438E-17
3.768782E+03	8.418531E-15	8.495910E-17
3.778726E+03	8.328557E-15	8.378394E-17
3.788670E+03	8.241208E-15	8.264110E-17
3.798614E+03	8.158263E-15	8.154818E-17
3.808558E+03	8.080948E-15	8.051707E-17
3.818502E+03	8.009941E-15	7.955402E-17
3.828446E+03	7.945502E-15	7.866109E-17
3.838390E+03	7.887208E-15	7.783355E-17
3.848334E+03	7.834325E-15	7.706370E-17
3.858278E+03	7.785800E-15	7.634077E-17
3.868222E+03	7.740550E-15	7.565385E-17
3.878166E+03	7.697510E-15	7.499237E-17
3.888110E+03	7.656003E-15	7.434963E-17
3.898054E+03	7.615612E-15	7.372153E-17
3.907998E+03	7.576430E-15	7.310898E-17
3.917942E+03	7.538961E-15	7.251682E-17
3.927886E+03	7.503886E-15	7.195151E-17
3.937830E+03	7.472211E-15	7.142257E-17
3.947774E+03	7.445066E-15	7.094055E-17
3.957718E+03	7.423543E-15	7.051554E-17
3.967662E+03	7.408643E-15	7.015664E-17
3.977606E+03	7.401134E-15	6.987065E-17
3.987550E+03	7.401248E-15	6.965924E-17
3.997494E+03	7.408718E-15	6.951939E-17
4.007438E+03	7.422581E-15	6.944163E-17
4.017382E+03	7.441109E-15	6.940949E-17
4.027326E+03	7.461949E-15	6.940086E-17
4.037270E+03	7.482493E-15	6.939155E-17
4.047214E+03	7.500211E-15	6.935840E-17
4.057158E+03	7.512900E-15	6.928149E-17
4.067102E+03	7.518798E-15	6.914521E-17
4.077046E+03	7.516717E-15	6.893936E-17
4.086990E+03	7.506201E-15	6.866053E-17
4.096934E+03	7.487338E-15	6.831030E-17
4.106878E+03	7.460576E-15	6.789350E-17
4.116822E+03	7.426740E-15	6.741829E-17
4.126766E+03	7.386794E-15	6.689401E-17
4.136710E+03	7.341834E-15	6.633104E-17
4.146654E+03	7.293037E-15	6.574043E-17
4.156598E+03	7.241583E-15	6.513310E-17
4.166542E+03	7.188769E-15	6.452091E-17
4.176486E+03	7.136186E-15	6.391827E-17
4.186430E+03	7.085834E-15	6.334309E-17
4.196374E+03	7.039884E-15	6.281468E-17
4.206318E+03	7.000685E-15	6.235382E-17
4.216262E+03	6.970442E-15	6.197985E-17
4.226206E+03	6.950474E-15	6.170419E-17
4.236150E+03	6.941243E-15	6.153060E-17
4.246094E+03	6.941786E-15	6.145029E-17
4.256039E+03	6.949358E-15	6.143879E-17
4.265983E+03	6.960239E-15	6.146320E-17
4.275927E+03	6.969993E-15	6.148448E-17
4.285871E+03	6.973655E-15	6.145911E-17
4.295815E+03	6.966921E-15	6.134950E-17
4.305759E+03	6.946485E-15	6.112684E-17
4.315703E+03	6.909856E-15	6.076932E-17
4.325647E+03	6.856746E-15	6.027432E-17
4.335591E+03	6.790713E-15	5.967297E-17
4.345535E+03	6.719430E-15	5.903242E-17
4.355479E+03	6.655394E-15	5.846206E-17
4.365423E+03	6.615247E-15	5.810768E-17
4.375367E+03	6.600591E-15	5.798304E-17
4.385311E+03	6.599324E-15	5.798163E-17
4.395255E+03	6.603974E-15	5.803762E-17
4.405199E+03	6.611507E-15	5.812422E-17
4.415143E+03	6.621847E-15	5.824059E-17
4.425087E+03	6.636173E-15	5.839696E-17
4.435031E+03	6.655022E-15	5.859796E-17
4.444975E+03	6.677840E-15	5.883861E-17
4.454919E+03	6.703394E-15	5.910796E-17
4.464863E+03	6.729625E-15	5.938774E-17
4.474807E+03	6.754353E-15	5.965856E-17
4.484751E+03	6.775808E-15	5.990459E-17
4.494695E+03	6.793011E-15	6.011691E-17
4.504639E+03	6.805696E-15	6.029290E-17
4.514583E+03	6.814307E-15	6.043618E-17
4.524527E+03	6.819633E-15	6.055346E-17
4.534471E+03	6.822502E-15	6.065183E-17
4.544415E+03	6.823837E-15	6.073923E-17
4.554359E+03	6.824422E-15	6.082243E-17
4.564303E+03	6.824792E-15	6.090599E-17
4.574247E+03	6.825204E-15	6.099203E-17
4.584191E+03	6.825275E-15	6.107694E-17
4.594135E+03	6.824303E-15	6.115426E-17
4.604079E+03	6.821212E-15	6.121412E-17
4.614023E+03	6.814652E-15	6.124415E-17
4.623967E+03	6.802926E-15	6.122878E-17
4.633911E+03	6.784378E-15	6.115269E-17
4.643855E+03	6.756999E-15	6.099735E-17
4.653799E+03	6.719282E-15	6.074859E-17
4.663743E+03	6.670577E-15	6.039997E-17
4.673687E+03	6.611442E-15	5.995593E-17
4.683631E+03	6.543573E-15	5.943132E-17
4.693575E+03	6.469735E-15	5.885077E-17
4.703519E+03	6.393415E-15	5.824569E-17
4.713463E+03	6.318500E-15	5.765130E-17
4.723407E+03	6.248179E-15	5.709671E-17
4.733351E+03	6.184995E-15	5.660528E-17
4.743295E+03	6.130381E-15	5.619036E-17
4.753239E+03	6.084679E-15	5.585535E-17
4.763183E+03	6.047157E-15	5.559381E-17
4.773127E+03	6.016345E-15	5.539246E-17
4.783071E+03	5.990176E-15	5.523244E-17
4.793015E+03	5.966527E-15	5.509428E-17
4.802959E+03	5.943263E-15	5.495826E-17
4.812903E+03	5.918684E-15	5.480860E-17
4.822847E+03	5.891532E-15	5.463352E-17
4.832791E+03	5.861077E-15	5.442609E-17
4.842735E+03	5.827475E-15	5.418760E-17
4.852679E+03	5.791469E-15	5.392482E-17
4.862623E+03	5.754288E-15	5.364906E-17
4.872567E+03	5.717085E-15	5.337103E-17
4.882511E+03	5.680997E-15	5.310135E-17
4.892455E+03	5.646651E-15	5.284589E-17
4.902399E+03	5.614132E-15	5.260549E-17
4.912344E+03	5.582961E-15	5.237573E-17
4.922288E+03	5.552406E-15	5.214975E-17
4.932232E+03	5.521541E-15	5.191887E-17
4.942176E+03	5.489769E-15	5.167746E-17
4.952120E+03	5.456707E-15	5.142187E-17
4.962064E+03	5.422352E-15	5.115206E-17
4.972008E+03	5.387053E-15	5.087128E-17
4.981952E+03	5.351346E-15	5.058460E-17
4.991896E+03	5.315940E-15	5.029873E-17
5.001840E+03	5.281545E-15	5.002041E-17
5.011784E+03	5.248878E-15	4.975651E-17
5.021728E+03	5.218412E-15	4.951158E-17
5.031672E+03	5.190444E-15	4.928851E-17
5.041616E+03	5.164993E-15	4.908757E-17
5.051560E+03	5.141895E-15	4.890732E-17
5.061504E+03	5.120821E-15	4.874466E-17
5.071448E+03	5.101279E-15	4.859500E-17
5.081392E+03	5.082671E-15	4.845271E-17
5.091336E+03	5.064530E-15	4.831337E-17
5.101280E+03	5.046317E-15	4.817188E-17
5.111224E+03	5.027762E-15	4.802570E-17
5.121168E+03	5.008676E-15	4.787305E-17
5.131112E+03	4.989063E-15	4.771399E-17
5.141056E+03	4.969056E-15	4.754983E-17
5.151000E+03	4.948763E-15	4.738165E-17
5.160944E+03	4.928354E-15	4.721109E-17
5.170888E+03	4.907795E-15	4.703790E-17
5.180832E+03	4.886977E-15	4.686107E-17
5.190776E+03	4.865640E-15	4.667813E-17
5.200720E+03	4.843497E-15	4.648640E-17
5.210664E+03	4.820195E-15	4.628252E-17
5.220608E+03	4.795571E-15	4.606496E-17
5.230552E+03	4.769756E-15	4.583501E-17
5.240496E+03	4.742975E-15	4.559489E-17
5.250440E+03	4.715928E-15	4.535137E-17
5.260384E+03	4.689192E-15	4.511007E-17
5.270328E+03	4.663693E-15	4.487994E-17
5.280272E+03	4.640146E-15	4.466794E-17
5.290216E+03	4.618982E-15	4.447830E-17
5.300160E+03	4.600741E-15	4.431631E-17
5.310104E+03	4.585377E-15	4.418160E-17
5.320048E+03	4.572879E-15	4.407413E-17
5.329992E+03	4.563048E-15	4.399208E-17
5.339936E+03	4.555397E-15	4.393083E-17
5.349880E+03	4.549003E-15	4.388154E-17
5.359824E+03	4.542712E-15	4.383316E-17
5.369768E+03	4.534676E-15	4.376790E-17
5.379712E+03	4.522977E-15	4.366729E-17
5.389656E+03	4.506106E-15	4.351676E-17
5.399600E+03	4.482724E-15	4.330337E-17
5.409544E+03	4.451867E-15	4.301768E-17
5.419488E+03	4.414613E-15	4.267004E-17
5.429432E+03	4.372588E-15	4.227607E-17
5.439376E+03	4.328332E-15	4.186024E-17
5.449320E+03	4.286201E-15	4.146465E-17
5.459264E+03	4.251432E-15	4.113997E-17
5.469208E+03	4.227105E-15	4.091603E-17
5.479152E+03	4.210413E-15	4.076572E-17
5.489096E+03	4.197939E-15	4.065596E-17
5.499040E+03	4.187170E-15	4.056244E-17
5.508984E+03	4.176718E-15	4.047166E-17
5.518928E+03	4.165801E-15	4.037606E-17
5.528872E+03	4.153856E-15	4.027011E-17
5.538816E+03	4.140597E-15	4.015104E-17
5.548760E+03	4.125721E-15	4.001587E-17
5.558704E+03	4.109023E-15	3.986258E-17
5.568649E+03	4.090337E-15	3.968954E-17
5.578593E+03	4.069679E-15	3.949687E-17
5.588537E+03	4.046916E-15	3.928326E-17
5.598481E+03	4.022213E-15	3.905029E-17
5.608425E+03	3.995740E-15	3.879960E-17
5.618369E+03	3.967716E-15	3.853330E-17
5.628313E+03	3.938658E-15	3.825641E-17
5.638257E+03	3.909059E-15	3.797369E-17
5.648201E+03	3.879729E-15	3.769304E-17
5.658145E+03	3.851554E-15	3.742306E-17
5.668089E+03	3.825462E-15	3.717278E-17
5.678033E+03	3.802318E-15	3.695061E-17
5.687977E+03	3.782833E-15	3.676348E-17
5.697921E+03	3.767475E-15	3.661596E-17
5.707865E+03	3.756263E-15	3.650823E-17
5.717809E+03	3.748966E-15	3.643806E-17
5.727753E+03	3.744862E-15	3.639845E-17
5.737697E+03	3.743022E-15	3.638038E-17
5.747641E+03	3.742247E-15	3.637219E-17
5.757585E+03	3.741303E-15	3.636190E-17
5.767529E+03	3.738950E-15	3.633748E-17
5.777473E+03	3.733983E-15	3.628724E-17
5.787417E+03	3.725415E-15	3.620158E-17
5.797361E+03	3.712660E-15	3.607487E-17
5.807305E+03	3.695487E-15	3.590486E-17
5.817249E+03	3.674156E-15	3.569413E-17
5.827193E+03	3.649346E-15	3.544931E-17
5.837137E+03	3.622188E-15	3.518143E-17
5.847081E+03	3.593989E-15	3.490322E-17
5.857025E+03	3.566060E-15	3.462745E-17
5.866969E+03	3.539378E-15	3.436362E-17
5.876913E+03	3.514809E-15	3.412018E-17
5.886857E+03	3.492796E-15	3.390145E-17
5.896801E+03	3.473428E-15	3.370831E-17
5.906745E+03	3.456509E-15	3.353889E-17
5.916689E+03	3.441619E-15	3.338915E-17
5.926633E+03	3.428370E-15	3.325532E-17
5.936577E+03	3.416272E-15	3.313271E-17
5.946521E+03	3.404864E-15	3.301686E-17
5.956465E+03	3.393858E-15	3.290504E-17
5.966409E+03	3.383135E-15	3.279610E-17
5.976353E+03	3.372585E-15	3.268903E-17
5.986297E+03	3.362213E-15	3.258393E-17
5.996241E+03	3.352059E-15	3.248121E-17
6.006185E+03	3.342203E-15	3.238171E-17
6.016129E+03	3.332520E-15	3.228425E-17
6.026073E+03	3.323037E-15	3.218913E-17
6.036017E+03	3.313569E-15	3.209460E-17
6.045961E+03	3.303812E-15	3.199779E-17
6.055905E+03	3.293514E-15	3.189629E-17
6.065849E+03	3.282385E-15	3.178733E-17
6.075793E+03	3.270224E-15	3.166903E-17
6.085737E+03	3.256802E-15	3.153921E-17
6.095681E+03	3.242151E-15	3.139822E-17
6.105625E+03	3.226330E-15	3.124670E-17
6.115569E+03	3.209558E-15	3.108681E-17
6.125513E+03	3.192132E-15	3.092144E-17
6.135457E+03	3.174447E-15	3.075449E-17
6.145401E+03	3.156859E-15	3.058943E-17
6.155345E+03	3.139612E-15	3.042868E-17
6.165289E+03	3.122789E-15	3.027308E-17
6.175233E+03	3.106310E-15	3.012191E-17
6.185177E+03	3.089943E-15	2.997295E-17
6.195121E+03	3.073334E-15	2.982282E-17
6.205065E+03	3.056309E-15	2.966985E-17
6.215009E+03	3.038869E-15	2.951411E-17
6.224954E+03	3.021366E-15	2.935902E-17
6.234898E+03	3.004511E-15	2.921155E-17
6.244842E+03	2.989124E-15	2.907970E-17
6.254786E+03	2.976034E-15	2.897162E-17
6.264730E+03	2.965635E-15	2.889122E-17
6.274674E+03	2.957909E-15	2.883844E-17
6.284618E+03	2.952140E-15	2.880638E-17
6.294562E+03	2.947161E-15	2.878374E-17
6.304506E+03	2.941685E-15	2.875802E-17
6.314450E+03	2.934668E-15	2.871902E-17
6.324394E+03	2.925565E-15	2.866141E-17
6.334338E+03	2.914338E-15	2.858478E-17
6.344282E+03	2.901665E-15	2.849571E-17
6.354226E+03	2.888269E-15	2.840120E-17
6.364170E+03	2.875083E-15	2.831030E-17
6.374114E+03	2.862566E-15	2.822749E-17
6.384058E+03	2.850690E-15	2.815243E-17
6.394002E+03	2.839190E-15	2.808243E-17
6.403946E+03	2.827393E-15	2.801078E-17
6.413890E+03	2.814596E-15	2.793041E-17
6.423834E+03	2.800452E-15	2.783773E-17
6.433778E+03	2.784847E-15	2.773145E-17
6.443722E+03	2.768209E-15	2.761571E-17
6.453666E+03	2.751322E-15	2.749817E-17
6.463610E+03	2.735425E-15	2.739117E-17
6.473554E+03	2.722237E-15	2.731192E-17
6.483498E+03	2.713891E-15	2.728195E-17
6.493442E+03	2.713126E-15	2.732908E-17
6.503386E+03	2.720418E-15	2.745850E-17
6.513330E+03	2.732911E-15	2.764180E-17
6.523274E+03	2.747993E-15	2.785275E-17
6.533218E+03	2.763411E-15	2.806863E-17
6.543162E+03	2.777473E-15	2.827218E-17
6.553106E+03	2.788843E-15	2.844964E-17
6.563050E+03	2.796831E-15	2.859374E-17
6.572994E+03	2.801095E-15	2.870069E-17
6.582938E+03	2.801647E-15	2.877033E-17
6.592882E+03	2.798974E-15	2.880735E-17
6.602826E+03	2.793672E-15	2.881763E-17
6.612770E+03	2.786421E-15	2.880797E-17
6.622714E+03	2.777725E-15	2.878339E-17
6.632658E+03	2.768146E-15	2.874958E-17
6.642602E+03	2.758072E-15	2.871049E-17
6.652546E+03	2.747731E-15	2.866837E-17
6.662490E+03	2.737352E-15	2.862559E-17
6.672434E+03	2.727039E-15	2.858318E-17
6.682378E+03	2.716852E-15	2.854172E-17
6.692322E+03	2.706773E-15	2.850100E-17
6.702266E+03	2.696816E-15	2.846114E-17
6.712210E+03	2.687049E-15	2.842283E-17
6.722154E+03	2.677451E-15	2.838581E-17
6.732098E+03	2.668061E-15	2.835048E-17
6.742042E+03	2.658925E-15	2.831731E-17
6.751986E+03	2.650140E-15	2.828733E-17
6.761930E+03	2.641696E-15	2.826042E-17
6.771874E+03	2.633561E-15	2.823623E-17
6.781818E+03	2.625824E-15	2.821573E-17
6.791762E+03	2.618338E-15	2.819733E-17
6.801706E+03	2.611134E-15	2.818134E-17
6.811650E+03	2.604017E-15	2.816566E-17
6.821594E+03	2.596945E-15	2.814983E-17
6.831538E+03	2.589781E-15	2.813234E-17
6.841482E+03	2.582508E-15	2.811297E-17
6.851426E+03	2.575082E-15	2.809122E-17
6.861370E+03	2.567389E-15	2.806582E-17
6.871314E+03	2.559595E-15	2.803856E-17
6.881259E+03	2.551583E-15	2.800812E-17
6.891203E+03	2.543508E-15	2.797618E-17
6.901147E+03	2.535373E-15	2.794279E-17
6.911091E+03	2.527237E-15	2.790854E-17
6.921035E+03	2.519148E-15	2.787399E-17
6.930979E+03	2.511204E-15	2.784020E-17
6.940923E+03	2.503345E-15	2.780652E-17
6.950867E+03	2.495662E-15	2.777397E-17
6.960811E+03	2.488142E-15	2.774240E-17
6.970755E+03	2.480879E-15	2.771287E-17
6.980699E+03	2.473912E-15	2.768584E-17
6.990643E+03	2.467284E-15	2.766179E-17
7.000587E+03	2.460982E-15	2.764061E-17
7.010531E+03	2.455038E-15	2.762269E-17
7.020475E+03	2.449532E-15	2.760894E-17
7.030419E+03	2.444426E-15	2.759897E-17
7.040363E+03	2.439762E-15	2.759327E-17
7.050307E+03	2.435395E-15	2.759024E-17
7.060251E+03	2.431293E-15	2.758952E-17
7.070195E+03	2.427385E-15	2.759036E-17
7.080139E+03	2.423422E-15	2.758990E-17
7.090083E+03	2.419351E-15	2.758757E-17
7.100027E+03	2.414920E-15	2.758049E-17
7.109971E+03	2.410060E-15	2.756786E-17
7.119915E+03	2.404654E-15	2.754832E-17
7.129859E+03	2.398734E-15	2.752224E-17
7.139803E+03	2.392320E-15	2.748982E-17
7.149747E+03	2.385418E-15	2.745111E-17
7.159691E+03	2.378104E-15	2.740700E-17
7.169635E+03	2.370517E-15	2.735908E-17
7.179579E+03	2.362688E-15	2.730773E-17
7.189523E+03	2.354691E-15	2.725379E-17
7.199467E+03	2.346641E-15	2.719862E-17
7.209411E+03	2.338480E-15	2.714154E-17
7.219355E+03	2.330288E-15	2.708353E-17
7.229299E+03	2.322075E-15	2.702471E-17
7.239243E+03	2.313837E-15	2.696505E-17
7.249187E+03	2.305558E-15	2.690440E-17
7.259131E+03	2.297166E-15	2.684193E-17
7.269075E+03	2.288698E-15	2.677811E-17
7.279019E+03	2.280100E-15	2.671230E-17
7.288963E+03	2.271390E-15	2.664476E-17
7.298907E+03	2.262666E-15	2.657664E-17
7.308851E+03	2.253948E-15	2.650821E-17
7.318795E+03	2.245328E-15	2.644059E-17
7.328739E+03	2.236860E-15	2.637444E-17
7.338683E+03	2.228703E-15	2.631168E-17
7.348627E+03	2.220953E-15	2.625347E-17
7.358571E+03	2.213630E-15	2.620012E-17
7.368515E+03	2.206733E-15	2.615164E-17
7.378459E+03	2.200381E-15	2.610952E-17
7.388403E+03	2.194465E-15	2.607250E-17
7.398347E+03	2.188955E-15	2.604028E-17
7.408291E+03	2.183851E-15	2.601291E-17
7.418235E+03	2.179037E-15	2.598905E-17
7.428179E+03	2.174434E-15	2.596782E-17
7.438123E+03	2.169956E-15	2.594822E-17
7.448067E+03	2.165620E-15	2.593050E-17
7.458011E+03	2.161237E-15	2.591243E-17
7.467955E+03	2.156785E-15	2.589378E-17
7.477899E+03	2.152307E-15	2.587510E-17
7.487843E+03	2.147656E-15	2.585465E-17
7.497787E+03	2.142857E-15	2.583277E-17
7.507731E+03	2.137897E-15	2.580933E-17
7.517675E+03	2.132768E-15	2.578424E-17
7.527620E+03	2.127561E-15	2.575864E-17
7.537564E+03	2.122085E-15	2.573025E-17
7.547508E+03	2.116438E-15	2.570029E-17
7.557452E+03	2.110411E-15	2.566622E-17
7.567396E+03	2.103968E-15	2.562764E-17
7.577340E+03	2.096823E-15	2.558106E-17
7.587284E+03	2.088886E-15	2.552538E-17
7.597228E+03	2.079913E-15	2.545758E-17
7.607172E+03	2.069745E-15	2.537571E-17
7.617116E+03	2.058341E-15	2.527919E-17
7.627060E+03	2.045630E-15	2.516712E-17
7.637004E+03	2.031681E-15	2.504028E-17
7.646948E+03	2.016691E-15	2.490103E-17
7.656892E+03	2.000801E-15	2.475108E-17
7.666836E+03	1.984345E-15	2.459451E-17
7.676780E+03	1.967392E-15	2.443218E-17
7.686724E+03	1.950315E-15	2.426866E-17
7.696668E+03	1.933182E-15	2.410484E-17
7.706612E+03	1.916179E-15	2.394302E-17
7.716556E+03	1.899387E-15	2.378424E-17
