#wls	flux	fluxerr
1.591042E+03	2.793923E-18	3.676720E-19
1.630818E+03	2.966961E-18	3.878720E-19
1.670595E+03	3.134531E-18	4.069971E-19
1.710371E+03	3.291693E-18	4.244138E-19
1.750147E+03	3.435111E-18	4.397121E-19
1.789923E+03	3.556763E-18	4.519006E-19
1.829699E+03	3.646405E-18	4.597409E-19
1.869475E+03	3.692269E-18	4.618473E-19
1.909251E+03	3.682917E-18	4.569271E-19
1.949027E+03	3.612341E-18	4.444092E-19
1.988803E+03	3.483234E-18	4.248172E-19
2.028579E+03	3.321572E-18	4.014857E-19
2.068355E+03	3.173126E-18	3.800131E-19
2.108131E+03	3.097775E-18	3.674680E-19
2.147907E+03	3.148365E-18	3.698130E-19
2.187683E+03	3.353084E-18	3.898826E-19
2.227459E+03	3.707260E-18	4.265741E-19
2.267235E+03	4.181691E-18	4.759927E-19
2.307012E+03	4.734577E-18	5.329494E-19
2.346788E+03	5.323989E-18	5.924375E-19
2.386564E+03	5.916735E-18	6.506188E-19
2.426340E+03	6.487094E-18	7.046382E-19
2.466116E+03	7.018988E-18	7.528149E-19
2.505892E+03	7.504291E-18	7.944028E-19
2.545668E+03	7.936590E-18	8.288867E-19
2.585444E+03	8.313931E-18	8.562554E-19
2.625220E+03	8.636651E-18	8.767505E-19
2.664996E+03	8.908496E-18	8.909612E-19
2.704772E+03	9.133149E-18	8.994570E-19
2.744548E+03	9.313980E-18	9.027627E-19
2.784324E+03	9.460308E-18	9.019566E-19
2.824100E+03	9.577639E-18	8.977075E-19
2.863876E+03	9.675495E-18	8.910239E-19
2.903652E+03	9.762514E-18	8.827759E-19
2.943428E+03	9.850995E-18	8.741039E-19
2.983205E+03	9.950665E-18	8.658421E-19
2.993149E+03	9.979374E-18	8.640104E-19
3.003093E+03	1.000903E-17	8.622190E-19
3.013037E+03	1.003981E-17	8.604817E-19
3.022981E+03	1.007365E-17	8.589617E-19
3.032925E+03	1.011169E-17	8.577529E-19
3.042869E+03	1.015353E-17	8.568138E-19
3.052813E+03	1.020067E-17	8.562673E-19
3.062757E+03	1.025155E-17	8.559736E-19
3.072701E+03	1.030755E-17	8.560447E-19
3.082645E+03	1.036865E-17	8.564700E-19
3.092589E+03	1.043336E-17	8.571205E-19
3.102533E+03	1.050318E-17	8.581137E-19
3.112477E+03	1.057816E-17	8.594469E-19
3.122421E+03	1.065837E-17	8.611187E-19
3.132365E+03	1.074245E-17	8.630115E-19
3.142309E+03	1.083200E-17	8.652479E-19
3.152253E+03	1.092718E-17	8.678327E-19
3.162197E+03	1.102817E-17	8.707717E-19
3.172141E+03	1.113516E-17	8.740726E-19
3.182085E+03	1.124838E-17	8.777441E-19
3.192029E+03	1.136809E-17	8.817966E-19
3.201973E+03	1.149455E-17	8.862412E-19
3.211917E+03	1.162653E-17	8.909741E-19
3.221861E+03	1.176890E-17	8.963584E-19
3.231805E+03	1.191745E-17	9.020590E-19
3.241749E+03	1.207405E-17	9.082079E-19
3.251693E+03	1.224063E-17	9.149377E-19
3.261637E+03	1.241605E-17	9.221493E-19
3.271581E+03	1.260074E-17	9.298608E-19
3.281525E+03	1.279673E-17	9.382069E-19
3.291469E+03	1.300291E-17	9.470907E-19
3.301413E+03	1.321977E-17	9.565320E-19
3.311357E+03	1.344944E-17	9.666677E-19
3.321301E+03	1.369084E-17	9.774018E-19
3.331245E+03	1.394784E-17	9.889903E-19
3.341189E+03	1.421605E-17	1.001101E-18
3.351133E+03	1.450108E-17	1.014110E-18
3.361077E+03	1.480020E-17	1.027802E-18
3.371021E+03	1.511576E-17	1.042317E-18
3.380965E+03	1.544665E-17	1.057554E-18
3.390909E+03	1.579707E-17	1.073775E-18
3.400853E+03	1.616597E-17	1.090881E-18
3.410797E+03	1.655224E-17	1.108767E-18
3.420741E+03	1.696023E-17	1.127697E-18
3.430685E+03	1.738887E-17	1.147566E-18
3.440629E+03	1.783889E-17	1.168393E-18
3.450573E+03	1.831107E-17	1.190193E-18
3.460517E+03	1.880818E-17	1.213111E-18
3.470461E+03	1.932711E-17	1.236910E-18
3.480405E+03	1.987481E-17	1.261997E-18
3.490349E+03	2.044827E-17	1.288139E-18
3.500293E+03	2.104856E-17	1.315363E-18
3.510237E+03	2.167906E-17	1.343837E-18
3.520181E+03	2.233905E-17	1.373469E-18
3.530125E+03	2.303465E-17	1.404588E-18
3.540069E+03	2.376335E-17	1.436986E-18
3.550013E+03	2.452961E-17	1.470880E-18
3.559957E+03	2.533587E-17	1.506356E-18
3.569901E+03	2.618461E-17	1.543500E-18
3.579845E+03	2.707797E-17	1.582371E-18
3.589789E+03	2.801735E-17	1.622980E-18
3.599734E+03	2.900603E-17	1.665446E-18
3.609678E+03	3.003915E-17	1.709415E-18
3.619622E+03	3.112217E-17	1.755127E-18
3.629566E+03	3.225536E-17	1.802520E-18
3.639510E+03	3.343616E-17	1.851376E-18
3.649454E+03	3.466755E-17	1.901784E-18
3.659398E+03	3.594688E-17	1.953523E-18
3.669342E+03	3.727724E-17	2.006686E-18
3.679286E+03	3.865878E-17	2.061204E-18
3.689230E+03	4.009151E-17	2.116998E-18
3.699174E+03	4.157522E-17	2.173980E-18
3.709118E+03	4.310936E-17	2.232045E-18
3.719062E+03	4.469287E-17	2.291060E-18
3.729006E+03	4.632773E-17	2.351053E-18
3.738950E+03	4.800465E-17	2.411477E-18
3.748894E+03	4.972734E-17	2.472456E-18
3.758838E+03	5.149139E-17	2.533704E-18
3.768782E+03	5.328679E-17	2.594672E-18
3.778726E+03	5.510909E-17	2.655101E-18
3.788670E+03	5.694381E-17	2.714262E-18
3.798614E+03	5.878585E-17	2.771901E-18
3.808558E+03	6.061189E-17	2.826921E-18
3.818502E+03	6.241282E-17	2.878935E-18
3.828446E+03	6.416196E-17	2.926766E-18
3.838390E+03	6.584925E-17	2.970049E-18
3.848334E+03	6.744913E-17	3.007744E-18
3.858278E+03	6.895987E-17	3.039917E-18
3.868222E+03	7.035784E-17	3.065680E-18
3.878166E+03	7.164524E-17	3.085310E-18
3.888110E+03	7.282053E-17	3.098918E-18
3.898054E+03	7.388679E-17	3.106812E-18
3.907998E+03	7.484676E-17	3.109282E-18
3.917942E+03	7.571527E-17	3.107106E-18
3.927886E+03	7.650529E-17	3.100958E-18
3.937830E+03	7.723147E-17	3.091554E-18
3.947774E+03	7.790966E-17	3.079627E-18
3.957718E+03	7.855631E-17	3.065900E-18
3.967662E+03	7.919248E-17	3.051247E-18
3.977606E+03	7.982693E-17	3.036025E-18
3.987550E+03	8.048883E-17	3.021347E-18
3.997494E+03	8.118164E-17	3.007313E-18
4.007438E+03	8.192724E-17	2.994692E-18
4.017382E+03	8.273606E-17	2.983799E-18
4.027326E+03	8.361362E-17	2.974756E-18
4.037270E+03	8.455536E-17	2.967321E-18
4.047214E+03	8.555739E-17	2.961287E-18
4.057158E+03	8.660431E-17	2.956064E-18
4.067102E+03	8.766939E-17	2.950714E-18
4.077046E+03	8.873157E-17	2.944538E-18
4.086990E+03	8.975041E-17	2.936246E-18
4.096934E+03	9.070011E-17	2.925096E-18
4.106878E+03	9.154235E-17	2.909998E-18
4.116822E+03	9.226041E-17	2.890607E-18
4.126766E+03	9.283576E-17	2.866555E-18
4.136710E+03	9.326173E-17	2.837864E-18
4.146654E+03	9.355546E-17	2.805280E-18
4.156598E+03	9.373523E-17	2.769552E-18
4.166542E+03	9.383774E-17	2.731927E-18
4.176486E+03	9.389801E-17	2.693544E-18
4.186430E+03	9.396869E-17	2.655977E-18
4.196374E+03	9.410701E-17	2.620840E-18
4.206318E+03	9.436261E-17	2.589449E-18
4.216262E+03	9.479952E-17	2.563433E-18
4.226206E+03	9.547049E-17	2.544026E-18
4.236150E+03	9.642524E-17	2.532313E-18
4.246094E+03	9.771722E-17	2.529416E-18
4.256039E+03	9.937841E-17	2.535845E-18
4.265983E+03	1.014381E-16	2.552022E-18
4.275927E+03	1.039060E-16	2.577867E-18
4.285871E+03	1.067677E-16	2.612723E-18
4.295815E+03	1.099889E-16	2.655508E-18
4.305759E+03	1.134977E-16	2.704319E-18
4.315703E+03	1.171935E-16	2.756700E-18
4.325647E+03	1.209326E-16	2.809336E-18
4.335591E+03	1.245410E-16	2.858401E-18
4.345535E+03	1.278189E-16	2.899687E-18
4.355479E+03	1.305811E-16	2.929501E-18
4.365423E+03	1.326779E-16	2.945103E-18
4.375367E+03	1.340729E-16	2.946326E-18
4.385311E+03	1.348482E-16	2.935558E-18
4.395255E+03	1.351538E-16	2.916526E-18
4.405199E+03	1.351750E-16	2.893543E-18
4.415143E+03	1.351132E-16	2.871099E-18
4.425087E+03	1.351597E-16	2.853331E-18
4.435031E+03	1.354869E-16	2.843864E-18
4.444975E+03	1.362495E-16	2.845892E-18
4.454919E+03	1.375785E-16	2.862091E-18
4.464863E+03	1.395813E-16	2.894595E-18
4.474807E+03	1.423337E-16	2.944893E-18
4.484751E+03	1.458983E-16	3.014253E-18
4.494695E+03	1.502950E-16	3.103125E-18
4.504639E+03	1.555219E-16	3.211576E-18
4.514583E+03	1.615173E-16	3.338507E-18
4.524527E+03	1.681825E-16	3.482105E-18
4.534471E+03	1.753590E-16	3.639345E-18
4.544415E+03	1.828264E-16	3.805916E-18
4.554359E+03	1.903190E-16	3.976513E-18
4.564303E+03	1.975204E-16	4.144670E-18
4.574247E+03	2.041082E-16	4.303652E-18
4.584191E+03	2.097616E-16	4.446566E-18
4.594135E+03	2.141967E-16	4.567098E-18
4.604079E+03	2.172046E-16	4.660311E-18
4.614023E+03	2.186357E-16	4.722350E-18
4.623967E+03	2.184509E-16	4.751586E-18
4.633911E+03	2.166879E-16	4.747971E-18
4.643855E+03	2.134621E-16	4.713122E-18
4.653799E+03	2.089721E-16	4.650529E-18
4.663743E+03	2.034550E-16	4.564634E-18
4.673687E+03	1.971808E-16	4.460780E-18
4.683631E+03	1.904400E-16	4.344952E-18
4.693575E+03	1.835244E-16	4.223401E-18
4.703519E+03	1.767149E-16	4.102359E-18
4.713463E+03	1.702675E-16	3.987718E-18
4.723407E+03	1.644111E-16	3.884961E-18
4.733351E+03	1.593384E-16	3.798930E-18
4.743295E+03	1.552029E-16	3.733711E-18
4.753239E+03	1.521134E-16	3.692455E-18
4.763183E+03	1.501488E-16	3.677707E-18
4.773127E+03	1.493424E-16	3.690972E-18
4.783071E+03	1.496904E-16	3.732870E-18
4.793015E+03	1.511581E-16	3.803259E-18
4.802959E+03	1.536719E-16	3.900982E-18
4.812903E+03	1.571285E-16	4.024069E-18
4.822847E+03	1.613953E-16	4.169697E-18
4.832791E+03	1.663117E-16	4.334196E-18
4.842735E+03	1.717017E-16	4.513349E-18
4.852679E+03	1.773712E-16	4.702295E-18
4.862623E+03	1.831260E-16	4.895993E-18
4.872567E+03	1.887699E-16	5.089179E-18
4.882511E+03	1.941214E-16	5.276807E-18
4.892455E+03	1.990157E-16	5.454125E-18
4.902399E+03	2.033216E-16	5.617168E-18
4.912344E+03	2.069288E-16	5.762442E-18
4.922288E+03	2.097591E-16	5.887257E-18
4.932232E+03	2.117728E-16	5.989953E-18
4.942176E+03	2.129591E-16	6.069664E-18
4.952120E+03	2.133328E-16	6.126261E-18
4.962064E+03	2.129394E-16	6.160527E-18
4.972008E+03	2.118422E-16	6.173800E-18
4.981952E+03	2.101209E-16	6.167974E-18
4.991896E+03	2.078691E-16	6.145423E-18
5.001840E+03	2.051888E-16	6.108857E-18
5.011784E+03	2.021993E-16	6.061595E-18
5.021728E+03	1.990171E-16	6.006978E-18
5.031672E+03	1.957619E-16	5.948543E-18
5.041616E+03	1.925624E-16	5.890195E-18
5.051560E+03	1.895261E-16	5.835297E-18
5.061504E+03	1.867630E-16	5.787380E-18
5.071448E+03	1.843642E-16	5.749463E-18
5.081392E+03	1.824036E-16	5.724098E-18
5.091336E+03	1.809327E-16	5.713186E-18
5.101280E+03	1.799884E-16	5.718204E-18
5.111224E+03	1.795785E-16	5.739720E-18
5.121168E+03	1.796935E-16	5.777751E-18
5.131112E+03	1.802992E-16	5.831501E-18
5.141056E+03	1.813482E-16	5.899722E-18
5.151000E+03	1.827793E-16	5.980676E-18
5.160944E+03	1.845149E-16	6.072036E-18
5.170888E+03	1.864840E-16	6.171633E-18
5.180832E+03	1.886032E-16	6.276841E-18
5.190776E+03	1.907991E-16	6.385295E-18
5.200720E+03	1.930012E-16	6.494685E-18
5.210664E+03	1.951483E-16	6.602964E-18
5.220608E+03	1.971846E-16	6.708219E-18
5.230552E+03	1.990591E-16	6.808670E-18
5.240496E+03	2.007353E-16	6.902989E-18
5.250440E+03	2.021758E-16	6.989800E-18
5.260384E+03	2.033514E-16	7.067984E-18
5.270328E+03	2.042437E-16	7.136779E-18
5.280272E+03	2.048304E-16	7.195272E-18
5.290216E+03	2.051056E-16	7.243106E-18
5.300160E+03	2.050631E-16	7.279923E-18
5.310104E+03	2.047124E-16	7.305905E-18
5.320048E+03	2.040624E-16	7.321227E-18
5.329992E+03	2.031386E-16	7.326667E-18
5.339936E+03	2.019758E-16	7.323350E-18
5.349880E+03	2.006117E-16	7.312545E-18
5.359824E+03	1.990952E-16	7.295943E-18
5.369768E+03	1.974765E-16	7.275327E-18
5.379712E+03	1.958078E-16	7.252591E-18
5.389656E+03	1.941443E-16	7.229777E-18
5.399600E+03	1.925375E-16	7.208835E-18
5.409544E+03	1.910433E-16	7.191916E-18
5.419488E+03	1.897232E-16	7.181442E-18
5.429432E+03	1.886419E-16	7.179994E-18
5.439376E+03	1.878710E-16	7.190478E-18
5.449320E+03	1.874753E-16	7.215609E-18
5.459264E+03	1.875111E-16	7.257830E-18
5.469208E+03	1.879917E-16	7.317935E-18
5.479152E+03	1.888670E-16	7.394253E-18
5.489096E+03	1.900494E-16	7.483586E-18
5.499040E+03	1.914369E-16	7.582096E-18
5.508984E+03	1.929184E-16	7.685500E-18
5.518928E+03	1.943867E-16	7.789558E-18
5.528872E+03	1.957338E-16	7.889901E-18
5.538816E+03	1.968508E-16	7.982023E-18
5.548760E+03	1.976456E-16	8.061988E-18
5.558704E+03	1.980237E-16	8.125682E-18
5.568649E+03	1.979071E-16	8.169555E-18
5.578593E+03	1.972319E-16	8.190579E-18
5.588537E+03	1.959527E-16	8.186415E-18
5.598481E+03	1.940373E-16	8.155239E-18
5.608425E+03	1.914717E-16	8.095947E-18
5.618369E+03	1.882662E-16	8.008454E-18
5.628313E+03	1.844438E-16	7.893224E-18
5.638257E+03	1.800472E-16	7.751584E-18
5.648201E+03	1.751415E-16	7.585876E-18
5.658145E+03	1.698143E-16	7.399487E-18
5.668089E+03	1.641697E-16	7.196612E-18
5.678033E+03	1.583313E-16	6.982418E-18
5.687977E+03	1.524350E-16	6.762749E-18
5.697921E+03	1.466281E-16	6.544106E-18
5.707865E+03	1.410571E-16	6.333100E-18
5.717809E+03	1.358649E-16	6.136356E-18
5.727753E+03	1.311841E-16	5.960175E-18
5.737697E+03	1.271301E-16	5.810228E-18
5.747641E+03	1.238019E-16	5.691543E-18
5.757585E+03	1.212767E-16	5.608274E-18
5.767529E+03	1.196160E-16	5.563920E-18
5.777473E+03	1.188561E-16	5.560866E-18
5.787417E+03	1.190195E-16	5.600902E-18
5.797361E+03	1.201098E-16	5.684944E-18
5.807305E+03	1.221109E-16	5.812974E-18
5.817249E+03	1.249868E-16	5.984013E-18
5.827193E+03	1.286836E-16	6.196176E-18
5.837137E+03	1.331176E-16	6.446081E-18
5.847081E+03	1.381852E-16	6.729279E-18
5.857025E+03	1.437556E-16	7.039883E-18
5.866969E+03	1.496775E-16	7.370839E-18
5.876913E+03	1.557824E-16	7.714097E-18
5.886857E+03	1.618914E-16	8.060885E-18
5.896801E+03	1.678290E-16	8.402407E-18
5.906745E+03	1.734238E-16	8.729892E-18
5.916689E+03	1.785336E-16	9.035851E-18
5.926633E+03	1.830407E-16	9.313887E-18
5.936577E+03	1.868645E-16	9.559372E-18
5.946521E+03	1.899595E-16	9.769392E-18
5.956465E+03	1.923238E-16	9.943258E-18
5.966409E+03	1.939898E-16	1.008204E-17
5.976353E+03	1.950203E-16	1.018843E-17
5.986297E+03	1.954982E-16	1.026629E-17
5.996241E+03	1.955272E-16	1.032061E-17
6.006185E+03	1.952237E-16	1.035721E-17
6.016129E+03	1.946976E-16	1.038167E-17
6.026073E+03	1.940629E-16	1.039993E-17
6.036017E+03	1.934239E-16	1.041750E-17
6.045961E+03	1.928719E-16	1.043932E-17
6.055905E+03	1.924882E-16	1.046988E-17
6.065849E+03	1.923346E-16	1.051270E-17
6.075793E+03	1.924650E-16	1.057091E-17
6.085737E+03	1.929120E-16	1.064653E-17
6.095681E+03	1.936999E-16	1.074116E-17
6.105625E+03	1.948388E-16	1.085564E-17
6.115569E+03	1.963284E-16	1.099020E-17
6.125513E+03	1.981553E-16	1.114438E-17
6.135457E+03	2.003080E-16	1.131778E-17
6.145401E+03	2.027603E-16	1.150917E-17
6.155345E+03	2.054856E-16	1.171725E-17
6.165289E+03	2.084565E-16	1.194067E-17
6.175233E+03	2.116421E-16	1.217782E-17
6.185177E+03	2.150088E-16	1.242693E-17
6.195121E+03	2.185289E-16	1.268652E-17
6.205065E+03	2.221677E-16	1.295467E-17
6.215009E+03	2.259012E-16	1.323007E-17
6.224954E+03	2.297030E-16	1.351122E-17
6.234898E+03	2.335551E-16	1.379710E-17
6.244842E+03	2.374531E-16	1.408749E-17
6.254786E+03	2.413953E-16	1.438232E-17
6.264730E+03	2.454037E-16	1.468292E-17
6.274674E+03	2.495099E-16	1.499124E-17
6.284618E+03	2.537707E-16	1.531077E-17
6.294562E+03	2.582518E-16	1.564560E-17
6.304506E+03	2.630467E-16	1.600157E-17
6.314450E+03	2.682586E-16	1.638523E-17
6.324394E+03	2.740142E-16	1.680463E-17
6.334338E+03	2.804492E-16	1.726854E-17
6.344282E+03	2.877109E-16	1.778654E-17
6.354226E+03	2.959653E-16	1.836956E-17
6.364170E+03	3.053934E-16	1.902958E-17
6.374114E+03	3.161893E-16	1.977961E-17
6.384058E+03	3.285644E-16	2.063389E-17
6.394002E+03	3.427511E-16	2.160823E-17
6.403946E+03	3.589970E-16	2.271961E-17
6.413890E+03	3.775680E-16	2.398639E-17
6.423834E+03	3.987512E-16	2.542855E-17
6.433778E+03	4.228530E-16	2.706757E-17
6.443722E+03	4.501888E-16	2.892582E-17
6.453666E+03	4.811194E-16	3.102886E-17
6.463610E+03	5.160104E-16	3.340292E-17
6.473554E+03	5.552321E-16	3.607489E-17
6.483498E+03	5.990874E-16	3.906760E-17
6.493442E+03	6.475466E-16	4.238238E-17
6.503386E+03	6.998726E-16	4.597410E-17
6.513330E+03	7.543076E-16	4.972959E-17
6.523274E+03	8.082233E-16	5.347642E-17
6.533218E+03	8.584625E-16	5.700457E-17
6.543162E+03	9.016968E-16	6.008956E-17
6.553106E+03	9.348821E-16	6.252280E-17
6.563050E+03	9.556424E-16	6.413761E-17
6.572994E+03	9.625429E-16	6.482850E-17
6.582938E+03	9.553183E-16	6.456767E-17
6.592882E+03	9.347472E-16	6.339789E-17
6.602826E+03	9.025057E-16	6.142379E-17
6.612770E+03	8.609049E-16	5.879498E-17
6.622714E+03	8.125260E-16	5.568178E-17
6.632658E+03	7.599387E-16	5.225615E-17
6.642602E+03	7.055126E-16	4.867868E-17
6.652546E+03	6.512201E-16	4.508470E-17
6.662490E+03	5.986333E-16	4.158356E-17
6.672434E+03	5.488732E-16	3.825465E-17
6.682378E+03	5.026763E-16	3.515151E-17
6.692322E+03	4.604575E-16	3.230580E-17
6.702266E+03	4.223677E-16	2.973096E-17
6.712210E+03	3.883677E-16	2.742713E-17
6.722154E+03	3.582829E-16	2.538483E-17
6.732098E+03	3.318676E-16	2.358934E-17
6.742042E+03	3.088176E-16	2.202153E-17
6.751986E+03	2.888149E-16	2.066100E-17
6.761930E+03	2.715425E-16	1.948711E-17
6.771874E+03	2.566974E-16	1.847995E-17
6.781818E+03	2.440014E-16	1.762110E-17
6.791762E+03	2.331967E-16	1.689336E-17
6.801706E+03	2.240582E-16	1.628168E-17
6.811650E+03	2.163824E-16	1.577236E-17
6.821594E+03	2.099937E-16	1.535356E-17
6.831538E+03	2.047416E-16	1.501511E-17
6.841482E+03	2.004932E-16	1.474801E-17
6.851426E+03	1.971308E-16	1.454425E-17
6.861370E+03	1.945565E-16	1.439718E-17
6.871314E+03	1.926808E-16	1.430067E-17
6.881259E+03	1.914271E-16	1.424950E-17
6.891203E+03	1.907308E-16	1.423924E-17
6.901147E+03	1.905327E-16	1.426583E-17
6.911091E+03	1.907787E-16	1.432553E-17
6.921035E+03	1.914227E-16	1.441515E-17
6.930979E+03	1.924258E-16	1.453202E-17
6.940923E+03	1.937495E-16	1.467345E-17
6.950867E+03	1.953637E-16	1.483734E-17
6.960811E+03	1.972351E-16	1.502134E-17
6.970755E+03	1.993451E-16	1.522420E-17
6.980699E+03	2.016645E-16	1.544383E-17
6.990643E+03	2.041769E-16	1.567907E-17
7.000587E+03	2.068691E-16	1.592905E-17
7.010531E+03	2.097265E-16	1.619272E-17
7.020475E+03	2.127377E-16	1.646932E-17
7.030419E+03	2.159022E-16	1.675889E-17
7.040363E+03	2.192156E-16	1.706116E-17
7.050307E+03	2.226760E-16	1.737608E-17
7.060251E+03	2.262897E-16	1.770422E-17
7.070195E+03	2.300628E-16	1.804615E-17
7.080139E+03	2.340026E-16	1.840251E-17
7.090083E+03	2.381169E-16	1.877404E-17
7.100027E+03	2.424104E-16	1.916118E-17
7.109971E+03	2.468881E-16	1.956444E-17
7.119915E+03	2.515550E-16	1.998430E-17
7.129859E+03	2.564050E-16	2.042040E-17
7.139803E+03	2.614320E-16	2.087233E-17
7.149747E+03	2.666153E-16	2.133853E-17
7.159691E+03	2.719278E-16	2.181692E-17
7.169635E+03	2.773313E-16	2.230447E-17
7.179579E+03	2.827790E-16	2.279747E-17
7.189523E+03	2.882001E-16	2.329021E-17
7.199467E+03	2.935207E-16	2.377666E-17
7.209411E+03	2.986535E-16	2.424967E-17
7.219355E+03	3.034872E-16	2.470008E-17
7.229299E+03	3.079111E-16	2.511866E-17
7.239243E+03	3.117993E-16	2.549489E-17
7.249187E+03	3.150346E-16	2.581884E-17
7.259131E+03	3.174862E-16	2.607940E-17
7.269075E+03	3.190403E-16	2.626674E-17
7.279019E+03	3.196024E-16	2.637258E-17
7.288963E+03	3.190964E-16	2.639007E-17
7.298907E+03	3.174697E-16	2.631426E-17
7.308851E+03	3.147097E-16	2.614348E-17
7.318795E+03	3.108294E-16	2.587819E-17
7.328739E+03	3.058792E-16	2.552201E-17
7.338683E+03	2.999411E-16	2.508122E-17
7.348627E+03	2.931276E-16	2.456470E-17
7.358571E+03	2.855683E-16	2.398289E-17
7.368515E+03	2.774006E-16	2.334698E-17
7.378459E+03	2.687850E-16	2.267018E-17
7.388403E+03	2.598699E-16	2.196481E-17
7.398347E+03	2.508144E-16	2.124421E-17
7.408291E+03	2.417630E-16	2.052059E-17
7.418235E+03	2.328433E-16	1.980483E-17
7.428179E+03	2.241824E-16	1.910783E-17
7.438123E+03	2.158807E-16	1.843834E-17
7.448067E+03	2.080353E-16	1.780488E-17
7.458011E+03	2.007197E-16	1.721399E-17
7.467955E+03	1.939958E-16	1.667130E-17
7.477899E+03	1.879148E-16	1.618153E-17
7.487843E+03	1.825081E-16	1.574774E-17
7.497787E+03	1.778070E-16	1.537301E-17
7.507731E+03	1.738263E-16	1.505898E-17
7.517675E+03	1.705759E-16	1.480690E-17
7.527620E+03	1.680593E-16	1.461747E-17
7.537564E+03	1.662773E-16	1.449113E-17
7.547508E+03	1.652205E-16	1.442746E-17
7.557452E+03	1.648769E-16	1.442579E-17
7.567396E+03	1.652287E-16	1.448490E-17
7.577340E+03	1.662535E-16	1.460323E-17
7.587284E+03	1.679192E-16	1.477826E-17
7.597228E+03	1.701798E-16	1.500629E-17
7.607172E+03	1.729883E-16	1.528347E-17
7.617116E+03	1.762828E-16	1.560460E-17
7.627060E+03	1.799874E-16	1.596322E-17
7.637004E+03	1.840215E-16	1.635235E-17
7.646948E+03	1.882901E-16	1.676372E-17
7.656892E+03	1.926969E-16	1.718887E-17
7.666836E+03	1.971371E-16	1.761849E-17
7.676780E+03	2.015110E-16	1.804368E-17
7.686724E+03	2.057202E-16	1.845560E-17
7.696668E+03	2.096708E-16	1.884571E-17
7.706612E+03	2.132855E-16	1.920693E-17
7.716556E+03	2.164979E-16	1.953312E-17
