#wls	flux	fluxerr
1.591042E+03	1.223017E-18	2.567374E-19
1.630818E+03	1.290191E-18	2.689736E-19
1.670595E+03	1.352407E-18	2.799463E-19
1.710371E+03	1.409515E-18	2.896395E-19
1.750147E+03	1.458555E-18	2.974667E-19
1.789923E+03	1.497103E-18	3.029691E-19
1.829699E+03	1.521148E-18	3.053865E-19
1.869475E+03	1.525805E-18	3.038130E-19
1.909251E+03	1.507391E-18	2.976162E-19
1.949027E+03	1.463823E-18	2.865056E-19
1.988803E+03	1.397397E-18	2.710600E-19
2.028579E+03	1.318897E-18	2.534782E-19
2.068355E+03	1.247460E-18	2.374766E-19
2.108131E+03	1.205628E-18	2.272725E-19
2.147907E+03	1.213310E-18	2.264209E-19
2.187683E+03	1.279659E-18	2.363291E-19
2.227459E+03	1.402026E-18	2.561649E-19
2.267235E+03	1.567616E-18	2.832710E-19
2.307012E+03	1.761334E-18	3.146701E-19
2.346788E+03	1.966581E-18	3.472361E-19
2.386564E+03	2.172558E-18	3.789887E-19
2.426340E+03	2.370321E-18	4.083575E-19
2.466116E+03	2.555625E-18	4.346506E-19
2.505892E+03	2.726171E-18	4.575416E-19
2.545668E+03	2.881194E-18	4.769832E-19
2.585444E+03	3.021486E-18	4.931921E-19
2.625220E+03	3.147240E-18	5.062850E-19
2.664996E+03	3.260215E-18	5.166287E-19
2.704772E+03	3.361831E-18	5.245239E-19
2.744548E+03	3.453709E-18	5.302905E-19
2.784324E+03	3.538274E-18	5.343571E-19
2.824100E+03	3.616856E-18	5.369674E-19
2.863876E+03	3.692227E-18	5.385632E-19
2.903652E+03	3.766701E-18	5.394938E-19
2.943428E+03	3.843422E-18	5.402013E-19
2.983205E+03	3.924511E-18	5.409532E-19
2.993149E+03	3.946423E-18	5.412745E-19
3.003093E+03	3.968022E-18	5.415139E-19
3.013037E+03	3.991243E-18	5.419348E-19
3.022981E+03	4.014363E-18	5.423011E-19
3.032925E+03	4.039088E-18	5.428419E-19
3.042869E+03	4.065200E-18	5.435246E-19
3.052813E+03	4.093334E-18	5.444310E-19
3.062757E+03	4.122813E-18	5.454669E-19
3.072701E+03	4.154221E-18	5.467061E-19
3.082645E+03	4.186903E-18	5.480588E-19
3.092589E+03	4.220841E-18	5.495199E-19
3.102533E+03	4.256664E-18	5.511678E-19
3.112477E+03	4.293743E-18	5.529174E-19
3.122421E+03	4.332730E-18	5.548496E-19
3.132365E+03	4.373019E-18	5.568826E-19
3.142309E+03	4.415285E-18	5.590989E-19
3.152253E+03	4.458932E-18	5.614194E-19
3.162197E+03	4.504667E-18	5.639291E-19
3.172141E+03	4.551909E-18	5.665511E-19
3.182085E+03	4.601384E-18	5.693719E-19
3.192029E+03	4.652535E-18	5.723176E-19
3.201973E+03	4.705456E-18	5.753960E-19
3.211917E+03	4.760913E-18	5.786960E-19
3.221861E+03	4.819032E-18	5.822273E-19
3.231805E+03	4.879291E-18	5.859209E-19
3.241749E+03	4.942500E-18	5.898685E-19
3.251693E+03	5.008153E-18	5.940036E-19
3.261637E+03	5.077102E-18	5.984207E-19
3.271581E+03	5.148857E-18	6.030549E-19
3.281525E+03	5.224312E-18	6.080037E-19
3.291469E+03	5.303009E-18	6.132056E-19
3.301413E+03	5.385885E-18	6.187609E-19
3.311357E+03	5.473221E-18	6.246917E-19
3.321301E+03	5.564599E-18	6.309406E-19
3.331245E+03	5.661057E-18	6.376149E-19
3.341189E+03	5.762215E-18	6.446604E-19
3.351133E+03	5.869179E-18	6.521889E-19
3.361077E+03	5.981626E-18	6.601515E-19
3.371021E+03	6.101501E-18	6.687485E-19
3.380965E+03	6.227035E-18	6.777699E-19
3.390909E+03	6.361047E-18	6.875074E-19
3.400853E+03	6.502586E-18	6.978392E-19
3.410797E+03	6.652270E-18	7.088133E-19
3.420741E+03	6.812406E-18	7.206548E-19
3.430685E+03	6.981314E-18	7.331629E-19
3.440629E+03	7.162297E-18	7.466614E-19
3.450573E+03	7.354597E-18	7.610434E-19
3.460517E+03	7.560054E-18	7.764715E-19
3.470461E+03	7.779769E-18	7.930272E-19
3.480405E+03	8.014019E-18	8.107049E-19
3.490349E+03	8.264990E-18	8.296899E-19
3.500293E+03	8.534098E-18	8.500841E-19
3.510237E+03	8.821889E-18	8.718988E-19
3.520181E+03	9.130964E-18	8.953451E-19
3.530125E+03	9.463109E-18	9.205469E-19
3.540069E+03	9.819163E-18	9.475307E-19
3.550013E+03	1.020218E-17	9.765332E-19
3.559957E+03	1.061432E-17	1.007694E-18
3.569901E+03	1.105776E-17	1.041154E-18
3.579845E+03	1.153472E-17	1.077042E-18
3.589789E+03	1.204600E-17	1.115356E-18
3.599734E+03	1.259474E-17	1.156304E-18
3.609678E+03	1.318141E-17	1.199840E-18
3.619622E+03	1.381050E-17	1.246279E-18
3.629566E+03	1.448086E-17	1.295422E-18
3.639510E+03	1.519546E-17	1.347433E-18
3.649454E+03	1.595573E-17	1.402336E-18
3.659398E+03	1.676295E-17	1.460135E-18
3.669342E+03	1.761644E-17	1.520663E-18
3.679286E+03	1.851866E-17	1.584021E-18
3.689230E+03	1.947014E-17	1.650144E-18
3.699174E+03	2.047112E-17	1.718937E-18
3.709118E+03	2.152144E-17	1.790274E-18
3.719062E+03	2.261837E-17	1.863815E-18
3.729006E+03	2.376508E-17	1.939715E-18
3.738950E+03	2.495557E-17	2.017375E-18
3.748894E+03	2.618981E-17	2.096696E-18
3.758838E+03	2.746250E-17	2.177158E-18
3.768782E+03	2.877526E-17	2.258805E-18
3.778726E+03	3.012164E-17	2.341048E-18
3.788670E+03	3.149418E-17	2.423241E-18
3.798614E+03	3.289034E-17	2.505136E-18
3.808558E+03	3.430442E-17	2.586258E-18
3.818502E+03	3.573031E-17	2.666118E-18
3.828446E+03	3.716165E-17	2.744227E-18
3.838390E+03	3.859209E-17	2.820121E-18
3.848334E+03	4.001198E-17	2.893114E-18
3.858278E+03	4.142257E-17	2.963332E-18
3.868222E+03	4.281224E-17	3.029986E-18
3.878166E+03	4.418087E-17	3.093130E-18
3.888110E+03	4.552595E-17	3.152651E-18
3.898054E+03	4.684619E-17	3.208530E-18
3.907998E+03	4.814121E-17	3.260814E-18
3.917942E+03	4.940738E-17	3.309333E-18
3.927886E+03	5.065332E-17	3.354741E-18
3.937830E+03	5.187189E-17	3.396632E-18
3.947774E+03	5.307243E-17	3.435693E-18
3.957718E+03	5.424766E-17	3.471518E-18
3.967662E+03	5.540304E-17	3.504530E-18
3.977606E+03	5.654042E-17	3.534909E-18
3.987550E+03	5.766272E-17	3.562899E-18
3.997494E+03	5.877337E-17	3.588766E-18
4.007438E+03	5.987200E-17	3.612539E-18
4.017382E+03	6.097200E-17	3.635069E-18
4.027326E+03	6.206811E-17	3.656071E-18
4.037270E+03	6.317119E-17	3.676214E-18
4.047214E+03	6.427008E-17	3.694873E-18
4.057158E+03	6.536375E-17	3.712033E-18
4.067102E+03	6.644221E-17	3.727178E-18
4.077046E+03	6.749047E-17	3.739544E-18
4.086990E+03	6.848504E-17	3.747947E-18
4.096934E+03	6.941609E-17	3.752003E-18
4.106878E+03	7.025521E-17	3.750364E-18
4.116822E+03	7.099152E-17	3.742681E-18
4.126766E+03	7.161541E-17	3.728696E-18
4.136710E+03	7.212667E-17	3.708658E-18
4.146654E+03	7.253319E-17	3.683222E-18
4.156598E+03	7.285000E-17	3.653382E-18
4.166542E+03	7.309460E-17	3.620208E-18
4.176486E+03	7.330385E-17	3.585675E-18
4.186430E+03	7.349753E-17	3.550839E-18
4.196374E+03	7.371062E-17	3.517434E-18
4.206318E+03	7.396826E-17	3.486650E-18
4.216262E+03	7.430777E-17	3.460188E-18
4.226206E+03	7.474404E-17	3.438640E-18
4.236150E+03	7.530293E-17	3.423069E-18
4.246094E+03	7.600124E-17	3.414085E-18
4.256039E+03	7.685033E-17	3.412035E-18
4.265983E+03	7.785123E-17	3.416799E-18
4.275927E+03	7.900762E-17	3.428386E-18
4.285871E+03	8.030942E-17	3.446226E-18
4.295815E+03	8.173821E-17	3.469427E-18
4.305759E+03	8.326180E-17	3.496569E-18
4.315703E+03	8.484792E-17	3.526302E-18
4.325647E+03	8.645294E-17	3.556876E-18
4.335591E+03	8.803122E-17	3.586535E-18
4.345535E+03	8.953404E-17	3.613477E-18
4.355479E+03	9.093089E-17	3.636701E-18
4.365423E+03	9.219450E-17	3.655368E-18
4.375367E+03	9.332590E-17	3.669779E-18
4.385311E+03	9.434031E-17	3.680771E-18
4.395255E+03	9.526478E-17	3.689610E-18
4.405199E+03	9.614889E-17	3.698383E-18
4.415143E+03	9.704628E-17	3.709273E-18
4.425087E+03	9.801224E-17	3.724472E-18
4.435031E+03	9.911745E-17	3.746709E-18
4.444975E+03	1.004217E-16	3.778262E-18
4.454919E+03	1.019867E-16	3.821444E-18
4.464863E+03	1.038469E-16	3.877490E-18
4.474807E+03	1.060331E-16	3.947502E-18
4.484751E+03	1.085574E-16	4.031905E-18
4.494695E+03	1.114105E-16	4.130355E-18
4.504639E+03	1.145727E-16	4.242169E-18
4.514583E+03	1.180129E-16	4.366263E-18
4.524527E+03	1.216665E-16	4.500343E-18
4.534471E+03	1.254586E-16	4.641754E-18
4.544415E+03	1.292794E-16	4.786545E-18
4.554359E+03	1.330007E-16	4.930077E-18
4.564303E+03	1.364842E-16	5.067283E-18
4.574247E+03	1.395750E-16	5.192429E-18
4.584191E+03	1.421426E-16	5.300591E-18
4.594135E+03	1.440620E-16	5.386965E-18
4.604079E+03	1.452483E-16	5.448139E-18
4.614023E+03	1.456695E-16	5.482591E-18
4.623967E+03	1.453151E-16	5.489548E-18
4.633911E+03	1.442448E-16	5.470826E-18
4.643855E+03	1.425095E-16	5.427916E-18
4.653799E+03	1.402122E-16	5.364290E-18
4.663743E+03	1.374733E-16	5.284124E-18
4.673687E+03	1.344124E-16	5.191644E-18
4.683631E+03	1.311604E-16	5.091597E-18
4.693575E+03	1.278525E-16	4.988990E-18
4.703519E+03	1.246011E-16	4.888056E-18
4.713463E+03	1.215329E-16	4.793704E-18
4.723407E+03	1.187422E-16	4.709663E-18
4.733351E+03	1.163336E-16	4.640192E-18
4.743295E+03	1.143834E-16	4.588512E-18
4.753239E+03	1.129560E-16	4.557453E-18
4.763183E+03	1.120953E-16	4.549099E-18
4.773127E+03	1.118280E-16	4.564875E-18
4.783071E+03	1.121596E-16	4.605388E-18
4.793015E+03	1.130642E-16	4.669948E-18
4.802959E+03	1.145081E-16	4.757547E-18
4.812903E+03	1.164251E-16	4.865769E-18
4.822847E+03	1.187323E-16	4.991442E-18
4.832791E+03	1.213296E-16	5.130598E-18
4.842735E+03	1.241040E-16	5.278606E-18
4.852679E+03	1.269557E-16	5.431297E-18
4.862623E+03	1.297662E-16	5.583590E-18
4.872567E+03	1.324422E-16	5.731388E-18
4.882511E+03	1.349048E-16	5.871119E-18
4.892455E+03	1.370924E-16	5.999895E-18
4.902399E+03	1.389571E-16	6.115368E-18
4.912344E+03	1.404599E-16	6.215548E-18
4.922288E+03	1.415867E-16	6.299513E-18
4.932232E+03	1.423325E-16	6.366740E-18
4.942176E+03	1.427082E-16	6.417418E-18
4.952120E+03	1.427296E-16	6.451981E-18
4.962064E+03	1.424267E-16	6.471524E-18
4.972008E+03	1.418164E-16	6.476579E-18
4.981952E+03	1.409317E-16	6.468437E-18
4.991896E+03	1.397878E-16	6.447604E-18
5.001840E+03	1.384165E-16	6.415383E-18
5.011784E+03	1.368632E-16	6.373729E-18
5.021728E+03	1.351817E-16	6.325043E-18
5.031672E+03	1.334430E-16	6.272593E-18
5.041616E+03	1.317232E-16	6.219944E-18
5.051560E+03	1.301044E-16	6.171007E-18
5.061504E+03	1.286697E-16	6.129820E-18
5.071448E+03	1.274852E-16	6.099678E-18
5.081392E+03	1.266122E-16	6.083681E-18
5.091336E+03	1.260875E-16	6.083815E-18
5.101280E+03	1.259264E-16	6.101033E-18
5.111224E+03	1.261288E-16	6.135550E-18
5.121168E+03	1.266747E-16	6.186616E-18
5.131112E+03	1.275167E-16	6.252100E-18
5.141056E+03	1.286023E-16	6.329594E-18
5.151000E+03	1.298572E-16	6.415565E-18
5.160944E+03	1.312093E-16	6.506535E-18
5.170888E+03	1.325821E-16	6.598754E-18
5.180832E+03	1.339163E-16	6.689272E-18
5.190776E+03	1.351645E-16	6.775693E-18
5.200720E+03	1.362956E-16	6.856420E-18
5.210664E+03	1.372834E-16	6.930074E-18
5.220608E+03	1.381212E-16	6.996253E-18
5.230552E+03	1.387990E-16	7.054377E-18
5.240496E+03	1.393150E-16	7.104298E-18
5.250440E+03	1.396702E-16	7.145995E-18
5.260384E+03	1.398715E-16	7.179757E-18
5.270328E+03	1.399123E-16	7.205184E-18
5.280272E+03	1.398045E-16	7.222838E-18
5.290216E+03	1.395512E-16	7.232817E-18
5.300160E+03	1.391462E-16	7.234760E-18
5.310104E+03	1.386032E-16	7.229321E-18
5.320048E+03	1.379227E-16	7.216483E-18
5.329992E+03	1.371296E-16	7.197510E-18
5.339936E+03	1.362459E-16	7.173521E-18
5.349880E+03	1.352899E-16	7.145472E-18
5.359824E+03	1.342988E-16	7.115309E-18
5.369768E+03	1.333113E-16	7.085100E-18
5.379712E+03	1.323515E-16	7.056149E-18
5.389656E+03	1.314556E-16	7.030434E-18
5.399600E+03	1.306432E-16	7.009051E-18
5.409544E+03	1.299347E-16	6.993164E-18
5.419488E+03	1.293472E-16	6.983772E-18
5.429432E+03	1.288946E-16	6.981701E-18
5.439376E+03	1.285874E-16	6.987627E-18
5.449320E+03	1.284324E-16	7.002009E-18
5.459264E+03	1.284287E-16	7.024905E-18
5.469208E+03	1.285647E-16	7.055767E-18
5.479152E+03	1.288160E-16	7.093331E-18
5.489096E+03	1.291468E-16	7.135656E-18
5.499040E+03	1.295107E-16	7.180205E-18
5.508984E+03	1.298537E-16	7.223982E-18
5.518928E+03	1.301179E-16	7.263719E-18
5.528872E+03	1.302465E-16	7.296177E-18
5.538816E+03	1.301889E-16	7.318420E-18
5.548760E+03	1.299011E-16	7.327835E-18
5.558704E+03	1.293472E-16	7.322240E-18
5.568649E+03	1.285016E-16	7.300001E-18
5.578593E+03	1.273452E-16	7.259829E-18
5.588537E+03	1.258802E-16	7.201651E-18
5.598481E+03	1.241051E-16	7.125180E-18
5.608425E+03	1.220388E-16	7.031285E-18
5.618369E+03	1.197016E-16	6.920958E-18
5.628313E+03	1.171184E-16	6.795447E-18
5.638257E+03	1.143172E-16	6.656224E-18
5.648201E+03	1.113291E-16	6.504959E-18
5.658145E+03	1.081849E-16	6.343322E-18
5.668089E+03	1.049283E-16	6.173789E-18
5.678033E+03	1.015972E-16	5.998509E-18
5.687977E+03	9.824678E-17	5.820696E-18
5.697921E+03	9.493488E-17	5.643776E-18
5.707865E+03	9.172392E-17	5.471487E-18
5.717809E+03	8.869198E-17	5.308562E-18
5.727753E+03	8.590880E-17	5.159294E-18
5.737697E+03	8.344944E-17	5.028354E-18
5.747641E+03	8.138370E-17	4.920156E-18
5.757585E+03	7.977346E-17	4.838688E-18
5.767529E+03	7.867499E-17	4.787645E-18
5.777473E+03	7.812994E-17	4.769871E-18
5.787417E+03	7.817043E-17	4.787656E-18
5.797361E+03	7.881492E-17	4.842474E-18
5.807305E+03	8.006022E-17	4.934473E-18
5.817249E+03	8.189166E-17	5.063086E-18
5.827193E+03	8.427455E-17	5.226486E-18
5.837137E+03	8.715906E-17	5.421874E-18
5.847081E+03	9.046539E-17	5.644541E-18
5.857025E+03	9.410408E-17	5.889105E-18
5.866969E+03	9.796596E-17	6.148880E-18
5.876913E+03	1.019341E-16	6.416606E-18
5.886857E+03	1.058858E-16	6.684573E-18
5.896801E+03	1.097061E-16	6.945475E-18
5.906745E+03	1.132880E-16	7.192418E-18
5.916689E+03	1.165461E-16	7.419827E-18
5.926633E+03	1.194173E-16	7.623472E-18
5.936577E+03	1.218591E-16	7.800415E-18
5.946521E+03	1.238578E-16	7.949545E-18
5.956465E+03	1.254206E-16	8.071085E-18
5.966409E+03	1.265716E-16	8.166358E-18
5.976353E+03	1.273587E-16	8.238249E-18
5.986297E+03	1.278413E-16	8.290426E-18
5.996241E+03	1.280860E-16	8.327069E-18
6.006185E+03	1.281721E-16	8.353221E-18
6.016129E+03	1.281777E-16	8.373916E-18
6.026073E+03	1.281758E-16	8.393905E-18
6.036017E+03	1.282395E-16	8.417972E-18
6.045961E+03	1.284269E-16	8.449977E-18
6.055905E+03	1.287821E-16	8.492893E-18
6.065849E+03	1.293457E-16	8.549482E-18
6.075793E+03	1.301427E-16	8.621487E-18
6.085737E+03	1.311854E-16	8.709834E-18
6.095681E+03	1.324862E-16	8.815462E-18
6.105625E+03	1.340448E-16	8.938453E-18
6.115569E+03	1.358667E-16	9.079298E-18
6.125513E+03	1.379379E-16	9.237155E-18
6.135457E+03	1.402643E-16	9.412537E-18
6.145401E+03	1.428339E-16	9.604734E-18
6.155345E+03	1.456475E-16	9.813899E-18
6.165289E+03	1.487053E-16	1.004015E-17
6.175233E+03	1.520062E-16	1.028351E-17
6.185177E+03	1.555571E-16	1.054455E-17
6.195121E+03	1.593602E-16	1.082350E-17
6.205065E+03	1.634110E-16	1.112017E-17
6.215009E+03	1.677087E-16	1.143460E-17
6.224954E+03	1.722411E-16	1.176606E-17
6.234898E+03	1.769861E-16	1.211313E-17
6.244842E+03	1.819308E-16	1.247502E-17
6.254786E+03	1.870611E-16	1.285083E-17
6.264730E+03	1.923702E-16	1.324018E-17
6.274674E+03	1.978616E-16	1.364340E-17
6.284618E+03	2.035727E-16	1.406314E-17
6.294562E+03	2.095582E-16	1.450330E-17
6.304506E+03	2.158878E-16	1.496882E-17
6.314450E+03	2.226701E-16	1.546740E-17
6.324394E+03	2.300103E-16	1.600657E-17
6.334338E+03	2.380386E-16	1.659564E-17
6.344282E+03	2.469096E-16	1.724569E-17
6.354226E+03	2.567635E-16	1.796691E-17
6.364170E+03	2.677669E-16	1.877138E-17
6.374114E+03	2.800838E-16	1.967112E-17
6.384058E+03	2.938862E-16	2.067881E-17
6.394002E+03	3.093614E-16	2.180828E-17
6.403946E+03	3.267061E-16	2.307416E-17
6.413890E+03	3.461516E-16	2.449366E-17
6.423834E+03	3.679372E-16	2.608469E-17
6.433778E+03	3.923092E-16	2.786579E-17
6.443722E+03	4.194962E-16	2.985445E-17
6.453666E+03	4.496429E-16	3.206231E-17
6.463610E+03	4.827839E-16	3.449327E-17
6.473554E+03	5.187003E-16	3.713314E-17
6.483498E+03	5.569260E-16	3.994994E-17
6.493442E+03	5.965964E-16	4.288279E-17
6.503386E+03	6.364018E-16	4.583832E-17
6.513330E+03	6.745301E-16	4.868613E-17
6.523274E+03	7.089603E-16	5.127960E-17
6.533218E+03	7.374560E-16	5.345527E-17
6.543162E+03	7.579539E-16	5.506069E-17
6.553106E+03	7.689020E-16	5.597917E-17
6.563050E+03	7.694082E-16	5.614101E-17
6.572994E+03	7.593246E-16	5.553024E-17
6.582938E+03	7.393818E-16	5.419505E-17
6.592882E+03	7.108952E-16	5.222694E-17
6.602826E+03	6.756060E-16	4.974957E-17
6.612770E+03	6.354436E-16	4.690162E-17
6.622714E+03	5.923825E-16	4.382637E-17
6.632658E+03	5.481665E-16	4.065135E-17
6.642602E+03	5.042798E-16	3.748603E-17
6.652546E+03	4.618913E-16	3.441744E-17
6.662490E+03	4.218452E-16	3.150923E-17
6.672434E+03	3.846852E-16	2.880318E-17
6.682378E+03	3.507197E-16	2.632384E-17
6.692322E+03	3.200353E-16	2.407931E-17
6.702266E+03	2.926071E-16	2.206942E-17
6.712210E+03	2.682860E-16	2.028457E-17
6.722154E+03	2.468629E-16	1.871058E-17
6.732098E+03	2.281106E-16	1.733171E-17
6.742042E+03	2.117738E-16	1.612995E-17
6.751986E+03	1.975894E-16	1.508654E-17
6.761930E+03	1.853257E-16	1.418490E-17
6.771874E+03	1.747473E-16	1.340802E-17
6.781818E+03	1.656649E-16	1.274227E-17
6.791762E+03	1.578822E-16	1.217334E-17
6.801706E+03	1.512437E-16	1.168993E-17
6.811650E+03	1.456147E-16	1.128225E-17
6.821594E+03	1.408725E-16	1.094130E-17
6.831538E+03	1.369161E-16	1.065973E-17
6.841482E+03	1.336634E-16	1.043156E-17
6.851426E+03	1.310382E-16	1.025123E-17
6.861370E+03	1.289794E-16	1.011428E-17
6.871314E+03	1.274339E-16	1.001685E-17
6.881259E+03	1.263586E-16	9.955834E-18
6.891203E+03	1.257093E-16	9.927990E-18
6.901147E+03	1.254530E-16	9.930937E-18
6.911091E+03	1.255537E-16	9.962038E-18
6.921035E+03	1.259821E-16	1.001914E-17
6.930979E+03	1.267115E-16	1.010031E-17
6.940923E+03	1.277210E-16	1.020401E-17
6.950867E+03	1.289878E-16	1.032858E-17
6.960811E+03	1.304833E-16	1.047184E-17
6.970755E+03	1.321974E-16	1.063309E-17
6.980699E+03	1.340990E-16	1.080994E-17
6.990643E+03	1.361765E-16	1.100154E-17
7.000587E+03	1.384123E-16	1.120655E-17
7.010531E+03	1.407828E-16	1.142312E-17
7.020475E+03	1.432860E-16	1.165115E-17
7.030419E+03	1.459040E-16	1.188924E-17
7.040363E+03	1.486297E-16	1.213685E-17
7.050307E+03	1.514640E-16	1.239410E-17
7.060251E+03	1.544042E-16	1.266081E-17
7.070195E+03	1.574598E-16	1.293781E-17
7.080139E+03	1.606340E-16	1.322539E-17
7.090083E+03	1.639410E-16	1.352477E-17
7.100027E+03	1.673864E-16	1.383648E-17
7.109971E+03	1.709840E-16	1.416170E-17
7.119915E+03	1.747353E-16	1.450061E-17
7.129859E+03	1.786481E-16	1.485393E-17
7.139803E+03	1.827166E-16	1.522123E-17
7.149747E+03	1.869396E-16	1.560248E-17
7.159691E+03	1.913055E-16	1.599674E-17
7.169635E+03	1.957888E-16	1.640195E-17
7.179579E+03	2.003648E-16	1.681607E-17
7.189523E+03	2.049869E-16	1.723521E-17
7.199467E+03	2.096073E-16	1.765533E-17
7.209411E+03	2.141514E-16	1.807013E-17
7.219355E+03	2.185421E-16	1.847306E-17
7.229299E+03	2.226828E-16	1.885583E-17
7.239243E+03	2.264557E-16	1.920835E-17
7.249187E+03	2.297469E-16	1.952077E-17
7.259131E+03	2.324344E-16	1.978248E-17
7.269075E+03	2.343950E-16	1.998271E-17
7.279019E+03	2.355305E-16	2.011279E-17
7.288963E+03	2.357514E-16	2.016469E-17
7.298907E+03	2.350127E-16	2.013420E-17
7.308851E+03	2.332941E-16	2.001916E-17
7.318795E+03	2.306005E-16	1.981964E-17
7.328739E+03	2.269919E-16	1.954038E-17
7.338683E+03	2.225225E-16	1.918572E-17
7.348627E+03	2.173087E-16	1.876538E-17
7.358571E+03	2.114520E-16	1.828787E-17
7.368515E+03	2.050846E-16	1.776440E-17
7.378459E+03	1.983298E-16	1.720548E-17
7.388403E+03	1.913228E-16	1.662275E-17
7.398347E+03	1.841873E-16	1.602688E-17
7.408291E+03	1.770379E-16	1.542784E-17
7.418235E+03	1.699728E-16	1.483421E-17
7.428179E+03	1.630884E-16	1.425447E-17
7.438123E+03	1.564636E-16	1.369562E-17
7.448067E+03	1.501604E-16	1.316321E-17
7.458011E+03	1.442387E-16	1.266264E-17
7.467955E+03	1.387425E-16	1.219794E-17
7.477899E+03	1.337050E-16	1.177219E-17
7.487843E+03	1.291467E-16	1.138742E-17
7.497787E+03	1.250875E-16	1.104555E-17
7.507731E+03	1.215360E-16	1.074757E-17
7.517675E+03	1.184914E-16	1.049359E-17
7.527620E+03	1.159595E-16	1.028433E-17
7.537564E+03	1.139278E-16	1.011890E-17
7.547508E+03	1.123883E-16	9.996784E-18
7.557452E+03	1.113374E-16	9.917851E-18
7.567396E+03	1.107539E-16	9.880422E-18
7.577340E+03	1.106244E-16	9.883487E-18
7.587284E+03	1.109274E-16	9.925320E-18
7.597228E+03	1.116355E-16	1.000364E-17
7.607172E+03	1.127116E-16	1.011530E-17
7.617116E+03	1.141188E-16	1.025715E-17
7.627060E+03	1.158085E-16	1.042496E-17
7.637004E+03	1.177243E-16	1.061379E-17
7.646948E+03	1.198017E-16	1.081793E-17
7.656892E+03	1.219835E-16	1.103230E-17
7.666836E+03	1.241960E-16	1.125028E-17
7.676780E+03	1.263778E-16	1.146635E-17
7.686724E+03	1.284651E-16	1.167472E-17
7.696668E+03	1.304114E-16	1.187115E-17
7.706612E+03	1.321602E-16	1.205045E-17
7.716556E+03	1.336755E-16	1.220927E-17
