#wls	flux	fluxerr
1.591042E+03	2.057192E-18	2.119278E-19
1.630818E+03	2.145332E-18	2.200723E-19
1.670595E+03	2.222607E-18	2.270051E-19
1.710371E+03	2.288522E-18	2.326872E-19
1.750147E+03	2.339932E-18	2.368133E-19
1.789923E+03	2.372173E-18	2.389319E-19
1.829699E+03	2.379642E-18	2.385072E-19
1.869475E+03	2.356407E-18	2.349838E-19
1.909251E+03	2.297452E-18	2.279111E-19
1.949027E+03	2.201811E-18	2.172511E-19
1.988803E+03	2.074360E-18	2.035442E-19
2.028579E+03	1.931750E-18	1.884716E-19
2.068355E+03	1.802003E-18	1.747818E-19
2.108131E+03	1.718334E-18	1.656599E-19
2.147907E+03	1.706056E-18	1.634531E-19
2.187683E+03	1.775599E-18	1.690260E-19
2.227459E+03	1.919272E-18	1.814973E-19
2.267235E+03	2.118343E-18	1.989614E-19
2.307012E+03	2.348673E-18	2.190510E-19
2.346788E+03	2.589413E-18	2.397634E-19
2.386564E+03	2.824750E-18	2.596129E-19
2.426340E+03	3.044043E-18	2.776293E-19
2.466116E+03	3.243622E-18	2.935035E-19
2.505892E+03	3.420063E-18	3.069612E-19
2.545668E+03	3.575057E-18	3.181949E-19
2.585444E+03	3.708183E-18	3.272080E-19
2.625220E+03	3.822966E-18	3.343522E-19
2.664996E+03	3.920720E-18	3.397788E-19
2.704772E+03	4.004652E-18	3.437985E-19
2.744548E+03	4.075439E-18	3.464986E-19
2.784324E+03	4.138224E-18	3.483411E-19
2.824100E+03	4.192959E-18	3.493392E-19
2.863876E+03	4.244939E-18	3.499478E-19
2.903652E+03	4.295214E-18	3.502575E-19
2.943428E+03	4.347608E-18	3.505793E-19
2.983205E+03	4.406135E-18	3.512255E-19
2.993149E+03	4.421805E-18	3.514419E-19
3.003093E+03	4.437917E-18	3.516816E-19
3.013037E+03	4.454537E-18	3.519496E-19
3.022981E+03	4.472682E-18	3.523257E-19
3.032925E+03	4.492010E-18	3.527818E-19
3.042869E+03	4.512981E-18	3.533530E-19
3.052813E+03	4.535596E-18	3.540383E-19
3.062757E+03	4.559793E-18	3.548314E-19
3.072701E+03	4.586376E-18	3.557939E-19
3.082645E+03	4.614467E-18	3.568557E-19
3.092589E+03	4.644048E-18	3.580145E-19
3.102533E+03	4.675116E-18	3.592689E-19
3.112477E+03	4.707681E-18	3.606184E-19
3.122421E+03	4.742616E-18	3.621286E-19
3.132365E+03	4.779104E-18	3.637356E-19
3.142309E+03	4.817193E-18	3.654416E-19
3.152253E+03	4.856940E-18	3.672498E-19
3.162197E+03	4.899275E-18	3.692289E-19
3.172141E+03	4.943419E-18	3.713184E-19
3.182085E+03	4.989464E-18	3.735238E-19
3.192029E+03	5.037514E-18	3.758513E-19
3.201973E+03	5.087687E-18	3.783081E-19
3.211917E+03	5.140987E-18	3.809669E-19
3.221861E+03	5.196685E-18	3.837713E-19
3.231805E+03	5.254928E-18	3.867303E-19
3.241749E+03	5.315885E-18	3.898543E-19
3.251693E+03	5.380640E-18	3.932201E-19
3.261637E+03	5.447582E-18	3.967076E-19
3.271581E+03	5.518739E-18	4.004621E-19
3.281525E+03	5.594355E-18	4.044978E-19
3.291469E+03	5.672833E-18	4.086960E-19
3.301413E+03	5.756292E-18	4.132067E-19
3.311357E+03	5.844087E-18	4.179796E-19
3.321301E+03	5.936523E-18	4.230328E-19
3.331245E+03	6.034895E-18	4.284547E-19
3.341189E+03	6.137611E-18	4.341276E-19
3.351133E+03	6.247002E-18	4.402124E-19
3.361077E+03	6.362499E-18	4.466636E-19
3.371021E+03	6.485547E-18	4.535774E-19
3.380965E+03	6.615612E-18	4.609103E-19
3.390909E+03	6.753180E-18	4.686903E-19
3.400853E+03	6.898782E-18	4.769479E-19
3.410797E+03	7.052972E-18	4.857148E-19
3.420741E+03	7.217463E-18	4.951012E-19
3.430685E+03	7.391821E-18	5.050691E-19
3.440629E+03	7.576728E-18	5.156568E-19
3.450573E+03	7.774084E-18	5.269843E-19
3.460517E+03	7.982337E-18	5.389366E-19
3.470461E+03	8.204679E-18	5.517194E-19
3.480405E+03	8.442062E-18	5.653846E-19
3.490349E+03	8.692913E-18	5.798151E-19
3.500293E+03	8.960747E-18	5.952330E-19
3.510237E+03	9.245321E-18	6.116082E-19
3.520181E+03	9.547690E-18	6.289965E-19
3.530125E+03	9.870385E-18	6.475490E-19
3.540069E+03	1.021320E-17	6.672354E-19
3.550013E+03	1.057729E-17	6.881147E-19
3.559957E+03	1.096544E-17	7.103489E-19
3.569901E+03	1.137576E-17	7.337971E-19
3.579845E+03	1.181268E-17	7.587243E-19
3.589789E+03	1.227584E-17	7.850866E-19
3.599734E+03	1.276824E-17	8.130527E-19
3.609678E+03	1.328940E-17	8.425685E-19
3.619622E+03	1.384047E-17	8.736827E-19
3.629566E+03	1.442255E-17	9.064398E-19
3.639510E+03	1.503871E-17	9.410073E-19
3.649454E+03	1.568801E-17	9.772973E-19
3.659398E+03	1.637129E-17	1.015336E-18
3.669342E+03	1.708929E-17	1.055141E-18
3.679286E+03	1.784498E-17	1.096867E-18
3.689230E+03	1.863661E-17	1.140377E-18
3.699174E+03	1.946446E-17	1.185658E-18
3.709118E+03	2.033127E-17	1.232848E-18
3.719062E+03	2.123446E-17	1.281761E-18
3.729006E+03	2.217368E-17	1.332346E-18
3.738950E+03	2.314834E-17	1.384540E-18
3.748894E+03	2.416069E-17	1.438450E-18
3.758838E+03	2.520676E-17	1.493812E-18
3.768782E+03	2.628519E-17	1.550519E-18
3.778726E+03	2.739433E-17	1.608452E-18
3.788670E+03	2.853589E-17	1.667688E-18
3.798614E+03	2.970438E-17	1.727883E-18
3.808558E+03	3.090131E-17	1.789108E-18
3.818502E+03	3.211657E-17	1.850759E-18
3.828446E+03	3.335527E-17	1.913120E-18
3.838390E+03	3.461074E-17	1.975794E-18
3.848334E+03	3.588442E-17	2.038856E-18
3.858278E+03	3.716927E-17	2.101897E-18
3.868222E+03	3.846234E-17	2.164748E-18
3.878166E+03	3.976067E-17	2.227243E-18
3.888110E+03	4.106633E-17	2.289498E-18
3.898054E+03	4.236689E-17	2.350825E-18
3.907998E+03	4.367456E-17	2.411910E-18
3.917942E+03	4.497183E-17	2.471792E-18
3.927886E+03	4.626652E-17	2.530914E-18
3.937830E+03	4.755106E-17	2.588874E-18
3.947774E+03	4.882306E-17	2.645559E-18
3.957718E+03	5.008027E-17	2.700867E-18
3.967662E+03	5.132619E-17	2.755006E-18
3.977606E+03	5.255302E-17	2.807578E-18
3.987550E+03	5.376446E-17	2.858803E-18
3.997494E+03	5.494621E-17	2.907947E-18
4.007438E+03	5.610790E-17	2.955549E-18
4.017382E+03	5.724080E-17	3.001178E-18
4.027326E+03	5.834200E-17	3.044714E-18
4.037270E+03	5.941476E-17	3.086361E-18
4.047214E+03	6.044927E-17	3.125645E-18
4.057158E+03	6.144187E-17	3.162414E-18
4.067102E+03	6.238881E-17	3.196521E-18
4.077046E+03	6.329326E-17	3.228170E-18
4.086990E+03	6.414529E-17	3.256898E-18
4.096934E+03	6.494234E-17	3.282626E-18
4.106878E+03	6.568959E-17	3.305662E-18
4.116822E+03	6.637293E-17	3.325346E-18
4.126766E+03	6.700723E-17	3.342473E-18
4.136710E+03	6.758823E-17	3.356876E-18
4.146654E+03	6.812740E-17	3.369169E-18
4.156598E+03	6.861673E-17	3.378994E-18
4.166542E+03	6.907781E-17	3.387454E-18
4.176486E+03	6.951232E-17	3.394659E-18
4.186430E+03	6.992989E-17	3.401105E-18
4.196374E+03	7.034757E-17	3.407640E-18
4.206318E+03	7.076847E-17	3.414424E-18
4.216262E+03	7.120235E-17	3.421937E-18
4.226206E+03	7.165811E-17	3.430610E-18
4.236150E+03	7.214351E-17	3.440814E-18
4.246094E+03	7.267176E-17	3.453172E-18
4.256039E+03	7.324024E-17	3.467554E-18
4.265983E+03	7.385135E-17	3.484065E-18
4.275927E+03	7.450516E-17	3.502704E-18
4.285871E+03	7.520674E-17	3.523703E-18
4.295815E+03	7.593738E-17	3.546183E-18
4.305759E+03	7.670488E-17	3.570511E-18
4.315703E+03	7.749369E-17	3.595970E-18
4.325647E+03	7.829414E-17	3.622120E-18
4.335591E+03	7.910299E-17	3.648828E-18
4.345535E+03	7.989550E-17	3.674973E-18
4.355479E+03	8.067749E-17	3.700848E-18
4.365423E+03	8.143530E-17	3.725853E-18
4.375367E+03	8.217021E-17	3.750076E-18
4.385311E+03	8.289105E-17	3.773946E-18
4.395255E+03	8.361723E-17	3.798369E-18
4.405199E+03	8.434784E-17	3.823323E-18
4.415143E+03	8.511259E-17	3.850172E-18
4.425087E+03	8.591851E-17	3.879244E-18
4.435031E+03	8.677880E-17	3.911145E-18
4.444975E+03	8.770447E-17	3.946372E-18
4.454919E+03	8.871142E-17	3.985634E-18
4.464863E+03	8.978888E-17	4.028446E-18
4.474807E+03	9.095275E-17	4.075519E-18
4.484751E+03	9.218350E-17	4.125978E-18
4.494695E+03	9.348811E-17	4.180142E-18
4.504639E+03	9.484512E-17	4.237056E-18
4.514583E+03	9.623634E-17	4.295917E-18
4.524527E+03	9.763909E-17	4.355729E-18
4.534471E+03	9.902715E-17	4.415334E-18
4.544415E+03	1.003797E-16	4.473821E-18
4.554359E+03	1.016495E-16	4.529104E-18
4.564303E+03	1.028226E-16	4.580573E-18
4.574247E+03	1.038529E-16	4.626186E-18
4.584191E+03	1.047311E-16	4.665544E-18
4.594135E+03	1.054275E-16	4.697322E-18
4.604079E+03	1.059269E-16	4.720840E-18
4.614023E+03	1.062211E-16	4.735726E-18
4.623967E+03	1.063098E-16	4.741950E-18
4.633911E+03	1.062003E-16	4.739823E-18
4.643855E+03	1.059077E-16	4.729989E-18
4.653799E+03	1.054537E-16	4.713391E-18
4.663743E+03	1.048658E-16	4.691225E-18
4.673687E+03	1.041757E-16	4.664885E-18
4.683631E+03	1.034182E-16	4.635893E-18
4.693575E+03	1.026373E-16	4.606198E-18
4.703519E+03	1.018532E-16	4.576691E-18
4.713463E+03	1.011086E-16	4.549274E-18
4.723407E+03	1.004359E-16	4.525392E-18
4.733351E+03	9.987107E-17	4.506673E-18
4.743295E+03	9.942341E-17	4.493541E-18
4.753239E+03	9.911967E-17	4.487221E-18
4.763183E+03	9.897349E-17	4.488353E-18
4.773127E+03	9.900004E-17	4.497655E-18
4.783071E+03	9.918650E-17	4.514577E-18
4.793015E+03	9.953620E-17	4.539308E-18
4.802959E+03	1.000395E-16	4.571448E-18
4.812903E+03	1.006815E-16	4.610353E-18
4.822847E+03	1.014429E-16	4.655178E-18
4.832791E+03	1.023006E-16	4.704896E-18
4.842735E+03	1.032288E-16	4.758346E-18
4.852679E+03	1.042000E-16	4.814281E-18
4.862623E+03	1.051861E-16	4.871419E-18
4.872567E+03	1.061596E-16	4.928487E-18
4.882511E+03	1.070870E-16	4.983926E-18
4.892455E+03	1.079601E-16	5.037332E-18
4.902399E+03	1.087432E-16	5.087027E-18
4.912344E+03	1.094352E-16	5.132919E-18
4.922288E+03	1.100083E-16	5.173671E-18
4.932232E+03	1.104620E-16	5.209209E-18
4.942176E+03	1.107922E-16	5.239293E-18
4.952120E+03	1.109990E-16	5.263878E-18
4.962064E+03	1.110864E-16	5.283093E-18
4.972008E+03	1.110617E-16	5.297243E-18
4.981952E+03	1.109282E-16	5.306428E-18
4.991896E+03	1.107145E-16	5.311968E-18
5.001840E+03	1.104215E-16	5.313874E-18
5.011784E+03	1.100748E-16	5.313333E-18
5.021728E+03	1.096937E-16	5.311250E-18
5.031672E+03	1.092982E-16	5.308577E-18
5.041616E+03	1.089010E-16	5.305922E-18
5.051560E+03	1.085358E-16	5.304920E-18
5.061504E+03	1.082058E-16	5.305740E-18
5.071448E+03	1.079332E-16	5.309487E-18
5.081392E+03	1.077300E-16	5.316772E-18
5.091336E+03	1.076046E-16	5.328042E-18
5.101280E+03	1.075545E-16	5.343206E-18
5.111224E+03	1.075938E-16	5.363003E-18
5.121168E+03	1.077050E-16	5.386600E-18
5.131112E+03	1.078876E-16	5.414005E-18
5.141056E+03	1.081243E-16	5.444380E-18
5.151000E+03	1.084157E-16	5.477779E-18
5.160944E+03	1.087331E-16	5.512786E-18
5.170888E+03	1.090678E-16	5.548964E-18
5.180832E+03	1.094040E-16	5.585511E-18
5.190776E+03	1.097194E-16	5.621294E-18
5.200720E+03	1.100136E-16	5.656280E-18
5.210664E+03	1.102605E-16	5.689107E-18
5.220608E+03	1.104495E-16	5.719199E-18
5.230552E+03	1.105857E-16	5.746791E-18
5.240496E+03	1.106490E-16	5.770807E-18
5.250440E+03	1.106418E-16	5.791332E-18
5.260384E+03	1.105617E-16	5.808191E-18
5.270328E+03	1.104013E-16	5.820961E-18
5.280272E+03	1.101685E-16	5.830003E-18
5.290216E+03	1.098658E-16	5.835416E-18
5.300160E+03	1.094973E-16	5.837366E-18
5.310104E+03	1.090619E-16	5.835759E-18
5.320048E+03	1.085728E-16	5.831261E-18
5.329992E+03	1.080312E-16	5.823907E-18
5.339936E+03	1.074524E-16	5.814480E-18
5.349880E+03	1.068457E-16	5.803466E-18
5.359824E+03	1.062208E-16	5.791376E-18
5.369768E+03	1.055816E-16	5.778408E-18
5.379712E+03	1.049446E-16	5.765451E-18
5.389656E+03	1.043194E-16	5.753042E-18
5.399600E+03	1.037094E-16	5.741368E-18
5.409544E+03	1.031293E-16	5.731258E-18
5.419488E+03	1.025866E-16	5.723147E-18
5.429432E+03	1.020820E-16	5.717088E-18
5.439376E+03	1.016259E-16	5.713702E-18
5.449320E+03	1.012153E-16	5.712840E-18
5.459264E+03	1.008563E-16	5.714873E-18
5.469208E+03	1.005444E-16	5.719576E-18
5.479152E+03	1.002666E-16	5.726230E-18
5.489096E+03	1.000011E-16	5.733606E-18
5.499040E+03	9.973040E-17	5.740697E-18
5.508984E+03	9.944773E-17	5.747102E-18
5.518928E+03	9.911818E-17	5.750781E-18
5.528872E+03	9.874148E-17	5.751682E-18
5.538816E+03	9.829084E-17	5.748200E-18
5.548760E+03	9.775844E-17	5.739817E-18
5.558704E+03	9.712790E-17	5.725506E-18
5.568649E+03	9.639654E-17	5.705033E-18
5.578593E+03	9.555421E-17	5.677717E-18
5.588537E+03	9.460459E-17	5.643693E-18
5.598481E+03	9.354934E-17	5.602977E-18
5.608425E+03	9.238819E-17	5.555472E-18
5.618369E+03	9.113446E-17	5.501899E-18
5.628313E+03	8.979430E-17	5.442558E-18
5.638257E+03	8.838659E-17	5.378529E-18
5.648201E+03	8.692781E-17	5.310762E-18
5.658145E+03	8.543201E-17	5.240078E-18
5.668089E+03	8.392006E-17	5.167728E-18
5.678033E+03	8.242362E-17	5.095651E-18
5.687977E+03	8.095266E-17	5.024472E-18
5.697921E+03	7.954479E-17	4.956548E-18
5.707865E+03	7.821575E-17	4.892905E-18
5.717809E+03	7.698972E-17	4.835116E-18
5.727753E+03	7.589392E-17	4.784967E-18
5.737697E+03	7.494571E-17	4.743650E-18
5.747641E+03	7.416817E-17	4.712736E-18
5.757585E+03	7.357769E-17	4.693395E-18
5.767529E+03	7.318322E-17	4.686336E-18
5.777473E+03	7.299803E-17	4.692554E-18
5.787417E+03	7.302323E-17	4.712275E-18
5.797361E+03	7.326343E-17	4.745951E-18
5.807305E+03	7.371073E-17	4.793225E-18
5.817249E+03	7.436032E-17	4.853938E-18
5.827193E+03	7.519478E-17	4.927096E-18
5.837137E+03	7.620006E-17	5.011911E-18
5.847081E+03	7.735014E-17	5.106792E-18
5.857025E+03	7.862334E-17	5.210406E-18
5.866969E+03	7.999151E-17	5.320973E-18
5.876913E+03	8.142046E-17	5.436278E-18
5.886857E+03	8.287947E-17	5.554305E-18
5.896801E+03	8.434311E-17	5.673365E-18
5.906745E+03	8.577928E-17	5.791290E-18
5.916689E+03	8.716785E-17	5.906695E-18
5.926633E+03	8.848868E-17	6.018171E-18
5.936577E+03	8.972193E-17	6.124312E-18
5.946521E+03	9.085783E-17	6.224380E-18
5.956465E+03	9.189694E-17	6.318339E-18
5.966409E+03	9.284091E-17	6.406228E-18
5.976353E+03	9.369144E-17	6.488092E-18
5.986297E+03	9.446452E-17	6.564971E-18
5.996241E+03	9.516999E-17	6.637489E-18
6.006185E+03	9.582531E-17	6.706818E-18
6.016129E+03	9.645467E-17	6.774617E-18
6.026073E+03	9.707835E-17	6.842294E-18
6.036017E+03	9.771171E-17	6.910928E-18
6.045961E+03	9.837460E-17	6.981933E-18
6.055905E+03	9.909071E-17	7.057016E-18
6.065849E+03	9.987730E-17	7.137446E-18
6.075793E+03	1.007447E-16	7.224016E-18
6.085737E+03	1.017119E-16	7.318144E-18
6.095681E+03	1.027856E-16	7.420386E-18
6.105625E+03	1.039760E-16	7.531553E-18
6.115569E+03	1.052970E-16	7.652743E-18
6.125513E+03	1.067562E-16	7.784601E-18
6.135457E+03	1.083548E-16	7.927299E-18
6.145401E+03	1.101036E-16	8.081744E-18
6.155345E+03	1.120021E-16	8.247994E-18
6.165289E+03	1.140547E-16	8.426482E-18
6.175233E+03	1.162713E-16	8.618047E-18
6.185177E+03	1.186564E-16	8.823125E-18
6.195121E+03	1.212080E-16	9.041701E-18
6.205065E+03	1.239369E-16	9.274683E-18
6.215009E+03	1.268419E-16	9.522102E-18
6.224954E+03	1.299350E-16	9.784985E-18
6.234898E+03	1.332169E-16	1.006351E-17
6.244842E+03	1.366959E-16	1.035842E-17
6.254786E+03	1.403893E-16	1.067119E-17
6.264730E+03	1.443107E-16	1.100297E-17
6.274674E+03	1.484690E-16	1.135460E-17
6.284618E+03	1.528906E-16	1.172826E-17
6.294562E+03	1.575904E-16	1.212529E-17
6.304506E+03	1.626020E-16	1.254844E-17
6.314450E+03	1.679461E-16	1.299952E-17
6.324394E+03	1.736619E-16	1.348179E-17
6.334338E+03	1.797736E-16	1.399739E-17
6.344282E+03	1.863233E-16	1.454985E-17
6.354226E+03	1.933343E-16	1.514129E-17
6.364170E+03	2.008461E-16	1.577511E-17
6.374114E+03	2.088745E-16	1.645287E-17
6.384058E+03	2.174487E-16	1.717721E-17
6.394002E+03	2.265784E-16	1.794925E-17
6.403946E+03	2.362373E-16	1.876726E-17
6.413890E+03	2.464403E-16	1.963273E-17
6.423834E+03	2.571233E-16	2.054091E-17
6.433778E+03	2.682204E-16	2.148680E-17
6.443722E+03	2.796504E-16	2.246412E-17
6.453666E+03	2.912868E-16	2.346288E-17
6.463610E+03	3.029514E-16	2.446880E-17
6.473554E+03	3.144562E-16	2.546665E-17
6.483498E+03	3.255437E-16	2.643536E-17
6.493442E+03	3.359509E-16	2.735324E-17
6.503386E+03	3.453485E-16	2.819292E-17
6.513330E+03	3.534188E-16	2.892774E-17
6.523274E+03	3.598134E-16	2.952822E-17
6.533218E+03	3.642489E-16	2.996994E-17
6.543162E+03	3.664798E-16	3.023140E-17
6.553106E+03	3.663209E-16	3.029585E-17
6.563050E+03	3.637183E-16	3.015732E-17
6.572994E+03	3.586842E-16	2.981528E-17
6.582938E+03	3.513497E-16	2.927913E-17
6.592882E+03	3.419694E-16	2.856871E-17
6.602826E+03	3.307982E-16	2.770411E-17
6.612770E+03	3.181752E-16	2.671272E-17
6.622714E+03	3.044788E-16	2.562551E-17
6.632658E+03	2.900710E-16	2.447240E-17
6.642602E+03	2.752815E-16	2.328086E-17
6.652546E+03	2.604358E-16	2.207829E-17
6.662490E+03	2.457884E-16	2.088634E-17
6.672434E+03	2.315729E-16	1.972503E-17
6.682378E+03	2.179598E-16	1.860924E-17
6.692322E+03	2.050637E-16	1.754917E-17
6.702266E+03	1.929700E-16	1.655261E-17
6.712210E+03	1.817465E-16	1.562589E-17
6.722154E+03	1.713930E-16	1.476954E-17
6.732098E+03	1.619063E-16	1.398384E-17
6.742042E+03	1.532738E-16	1.326822E-17
6.751986E+03	1.454611E-16	1.262023E-17
6.761930E+03	1.384186E-16	1.203604E-17
6.771874E+03	1.321067E-16	1.151268E-17
6.781818E+03	1.264756E-16	1.104624E-17
6.791762E+03	1.214698E-16	1.063225E-17
6.801706E+03	1.170473E-16	1.026742E-17
6.811650E+03	1.131560E-16	9.947506E-18
6.821594E+03	1.097589E-16	9.669559E-18
6.831538E+03	1.068157E-16	9.430309E-18
6.841482E+03	1.042842E-16	9.226287E-18
6.851426E+03	1.021364E-16	9.055250E-18
6.861370E+03	1.003419E-16	8.914711E-18
6.871314E+03	9.886800E-17	8.801967E-18
6.881259E+03	9.769511E-17	8.715447E-18
6.891203E+03	9.680076E-17	8.653311E-18
6.901147E+03	9.615985E-17	8.613467E-18
6.911091E+03	9.575880E-17	8.594834E-18
6.921035E+03	9.557610E-17	8.595609E-18
6.930979E+03	9.560139E-17	8.614978E-18
6.940923E+03	9.582058E-17	8.651778E-18
6.950867E+03	9.622079E-17	8.704949E-18
6.960811E+03	9.678530E-17	8.773070E-18
6.970755E+03	9.750294E-17	8.855211E-18
6.980699E+03	9.837357E-17	8.951439E-18
6.990643E+03	9.937762E-17	9.060046E-18
7.000587E+03	1.005116E-16	9.180782E-18
7.010531E+03	1.017622E-16	9.312497E-18
7.020475E+03	1.031328E-16	9.455542E-18
7.030419E+03	1.046006E-16	9.607908E-18
7.040363E+03	1.061759E-16	9.770560E-18
7.050307E+03	1.078422E-16	9.942044E-18
7.060251E+03	1.095998E-16	1.012243E-17
7.070195E+03	1.114443E-16	1.031134E-17
7.080139E+03	1.133648E-16	1.050783E-17
7.090083E+03	1.153625E-16	1.071200E-17
7.100027E+03	1.174319E-16	1.092341E-17
7.109971E+03	1.195608E-16	1.114094E-17
7.119915E+03	1.217482E-16	1.136452E-17
7.129859E+03	1.239856E-16	1.159338E-17
7.139803E+03	1.262627E-16	1.182656E-17
7.149747E+03	1.285605E-16	1.206232E-17
7.159691E+03	1.308708E-16	1.229987E-17
7.169635E+03	1.331763E-16	1.253759E-17
7.179579E+03	1.354499E-16	1.277291E-17
7.189523E+03	1.376829E-16	1.300499E-17
7.199467E+03	1.398279E-16	1.322934E-17
7.209411E+03	1.418789E-16	1.344532E-17
7.219355E+03	1.437985E-16	1.364934E-17
7.229299E+03	1.455478E-16	1.383763E-17
7.239243E+03	1.470947E-16	1.400707E-17
7.249187E+03	1.484236E-16	1.415606E-17
7.259131E+03	1.494893E-16	1.428018E-17
7.269075E+03	1.502811E-16	1.437829E-17
7.279019E+03	1.507527E-16	1.444584E-17
7.288963E+03	1.509110E-16	1.448333E-17
7.298907E+03	1.507292E-16	1.448806E-17
7.308851E+03	1.502115E-16	1.446027E-17
7.318795E+03	1.493612E-16	1.440013E-17
7.328739E+03	1.481890E-16	1.430855E-17
7.338683E+03	1.467045E-16	1.418632E-17
7.348627E+03	1.449397E-16	1.403639E-17
7.358571E+03	1.429239E-16	1.386150E-17
7.368515E+03	1.406909E-16	1.366483E-17
7.378459E+03	1.382775E-16	1.344986E-17
7.388403E+03	1.357154E-16	1.321963E-17
7.398347E+03	1.330521E-16	1.297870E-17
7.408291E+03	1.303270E-16	1.273089E-17
7.418235E+03	1.275720E-16	1.247931E-17
7.428179E+03	1.248376E-16	1.222888E-17
7.438123E+03	1.221444E-16	1.198165E-17
7.448067E+03	1.195305E-16	1.174140E-17
7.458011E+03	1.170177E-16	1.151028E-17
7.467955E+03	1.146437E-16	1.129207E-17
7.477899E+03	1.124170E-16	1.108767E-17
7.487843E+03	1.103620E-16	1.089955E-17
7.497787E+03	1.084935E-16	1.072925E-17
7.507731E+03	1.068228E-16	1.057796E-17
7.517675E+03	1.053586E-16	1.044664E-17
7.527620E+03	1.041009E-16	1.033536E-17
7.537564E+03	1.030585E-16	1.024508E-17
7.547508E+03	1.022321E-16	1.017595E-17
7.557452E+03	1.016197E-16	1.012787E-17
7.567396E+03	1.012114E-16	1.009992E-17
7.577340E+03	1.010120E-16	1.009267E-17
7.587284E+03	1.010014E-16	1.010418E-17
7.597228E+03	1.011743E-16	1.013400E-17
7.607172E+03	1.015178E-16	1.018089E-17
7.617116E+03	1.020167E-16	1.024340E-17
7.627060E+03	1.026487E-16	1.031933E-17
7.637004E+03	1.034010E-16	1.040746E-17
7.646948E+03	1.042603E-16	1.050647E-17
7.656892E+03	1.051943E-16	1.061315E-17
7.666836E+03	1.061820E-16	1.072540E-17
7.676780E+03	1.072149E-16	1.084238E-17
7.686724E+03	1.082667E-16	1.096145E-17
7.696668E+03	1.093121E-16	1.108003E-17
7.706612E+03	1.103397E-16	1.119697E-17
7.716556E+03	1.113336E-16	1.131066E-17
