#wls	flux	fluxerr
1.591042E+03	1.999040E-18	2.364949E-19
1.630818E+03	2.082154E-18	2.452393E-19
1.670595E+03	2.155238E-18	2.526913E-19
1.710371E+03	2.217185E-18	2.587345E-19
1.750147E+03	2.264257E-18	2.629500E-19
1.789923E+03	2.292707E-18	2.649273E-19
1.829699E+03	2.297206E-18	2.640843E-19
1.869475E+03	2.272126E-18	2.598192E-19
1.909251E+03	2.213416E-18	2.517258E-19
1.949027E+03	2.118265E-18	2.395513E-19
1.988803E+03	1.993487E-18	2.241354E-19
2.028579E+03	1.854489E-18	2.072635E-19
2.068355E+03	1.728186E-18	1.919603E-19
2.108131E+03	1.645896E-18	1.816620E-19
2.147907E+03	1.632659E-18	1.790250E-19
2.187683E+03	1.697312E-18	1.848628E-19
2.227459E+03	1.832732E-18	1.982288E-19
2.267235E+03	2.020878E-18	2.170180E-19
2.307012E+03	2.239229E-18	2.386970E-19
2.346788E+03	2.466803E-18	2.609622E-19
2.386564E+03	2.689142E-18	2.822608E-19
2.426340E+03	2.896201E-18	3.015470E-19
2.466116E+03	3.083865E-18	3.184226E-19
2.505892E+03	3.250449E-18	3.327542E-19
2.545668E+03	3.396146E-18	3.446070E-19
2.585444E+03	3.521379E-18	3.540712E-19
2.625220E+03	3.629617E-18	3.615409E-19
2.664996E+03	3.722149E-18	3.671847E-19
2.704772E+03	3.801233E-18	3.712624E-19
2.744548E+03	3.869214E-18	3.740351E-19
2.784324E+03	3.928505E-18	3.757628E-19
2.824100E+03	3.982435E-18	3.767835E-19
2.863876E+03	4.032721E-18	3.772710E-19
2.903652E+03	4.082049E-18	3.774826E-19
2.943428E+03	4.134938E-18	3.778317E-19
2.983205E+03	4.191937E-18	3.783536E-19
2.993149E+03	4.208128E-18	3.786260E-19
3.003093E+03	4.223955E-18	3.788515E-19
3.013037E+03	4.241143E-18	3.791845E-19
3.022981E+03	4.259030E-18	3.795650E-19
3.032925E+03	4.278092E-18	3.800345E-19
3.042869E+03	4.298772E-18	3.806311E-19
3.052813E+03	4.321901E-18	3.814268E-19
3.062757E+03	4.346597E-18	3.823417E-19
3.072701E+03	4.371985E-18	3.832978E-19
3.082645E+03	4.399701E-18	3.844373E-19
3.092589E+03	4.429737E-18	3.857573E-19
3.102533E+03	4.460421E-18	3.871107E-19
3.112477E+03	4.492597E-18	3.885698E-19
3.122421E+03	4.527131E-18	3.902079E-19
3.132365E+03	4.563216E-18	3.919533E-19
3.142309E+03	4.600903E-18	3.938090E-19
3.152253E+03	4.641097E-18	3.958506E-19
3.162197E+03	4.682170E-18	3.979374E-19
3.172141E+03	4.725902E-18	4.002193E-19
3.182085E+03	4.771537E-18	4.026299E-19
3.192029E+03	4.819173E-18	4.051757E-19
3.201973E+03	4.868928E-18	4.078643E-19
3.211917E+03	4.921793E-18	4.107768E-19
3.221861E+03	4.976166E-18	4.137766E-19
3.231805E+03	5.033951E-18	4.170202E-19
3.241749E+03	5.094432E-18	4.204451E-19
3.251693E+03	5.158687E-18	4.241372E-19
3.261637E+03	5.225109E-18	4.279613E-19
3.271581E+03	5.295708E-18	4.320790E-19
3.281525E+03	5.369809E-18	4.364317E-19
3.291469E+03	5.447644E-18	4.410344E-19
3.301413E+03	5.529467E-18	4.459040E-19
3.311357E+03	5.616499E-18	4.511347E-19
3.321301E+03	5.707142E-18	4.565934E-19
3.331245E+03	5.803613E-18	4.624531E-19
3.341189E+03	5.906287E-18	4.687378E-19
3.351133E+03	6.013558E-18	4.753144E-19
3.361077E+03	6.127793E-18	4.823646E-19
3.371021E+03	6.248419E-18	4.898364E-19
3.380965E+03	6.375872E-18	4.977577E-19
3.390909E+03	6.510618E-18	5.061575E-19
3.400853E+03	6.653152E-18	5.150671E-19
3.410797E+03	6.805100E-18	5.246037E-19
3.420741E+03	6.965972E-18	5.347204E-19
3.430685E+03	7.136370E-18	5.454542E-19
3.440629E+03	7.318096E-18	5.569325E-19
3.450573E+03	7.509529E-18	5.690210E-19
3.460517E+03	7.713739E-18	5.819415E-19
3.470461E+03	7.930328E-18	5.956512E-19
3.480405E+03	8.160103E-18	6.101977E-19
3.490349E+03	8.405213E-18	6.257278E-19
3.500293E+03	8.665313E-18	6.422001E-19
3.510237E+03	8.941336E-18	6.596683E-19
3.520181E+03	9.234258E-18	6.781879E-19
3.530125E+03	9.545084E-18	6.978152E-19
3.540069E+03	9.876346E-18	7.187160E-19
3.550013E+03	1.022772E-17	7.408460E-19
3.559957E+03	1.060029E-17	7.642635E-19
3.569901E+03	1.099681E-17	7.891440E-19
3.579845E+03	1.141520E-17	8.153139E-19
3.589789E+03	1.185988E-17	8.430666E-19
3.599734E+03	1.233036E-17	8.723391E-19
3.609678E+03	1.282772E-17	9.031827E-19
3.619622E+03	1.335496E-17	9.357795E-19
3.629566E+03	1.391131E-17	9.700458E-19
3.639510E+03	1.449775E-17	1.006020E-18
3.649454E+03	1.511517E-17	1.043734E-18
3.659398E+03	1.576663E-17	1.083364E-18
3.669342E+03	1.644846E-17	1.124629E-18
3.679286E+03	1.716581E-17	1.167846E-18
3.689230E+03	1.791942E-17	1.213031E-18
3.699174E+03	1.870473E-17	1.259839E-18
3.709118E+03	1.952698E-17	1.308592E-18
3.719062E+03	2.038366E-17	1.359086E-18
3.729006E+03	2.127459E-17	1.411273E-18
3.738950E+03	2.219932E-17	1.465093E-18
3.748894E+03	2.316035E-17	1.520676E-18
3.758838E+03	2.415392E-17	1.577743E-18
3.768782E+03	2.517896E-17	1.636192E-18
3.778726E+03	2.623415E-17	1.695909E-18
3.788670E+03	2.732155E-17	1.756999E-18
3.798614E+03	2.843606E-17	1.819107E-18
3.808558E+03	2.957572E-17	1.882084E-18
3.818502E+03	3.073840E-17	1.945775E-18
3.828446E+03	3.192591E-17	2.010274E-18
3.838390E+03	3.313199E-17	2.075168E-18
3.848334E+03	3.435410E-17	2.140287E-18
3.858278E+03	3.558964E-17	2.205458E-18
3.868222E+03	3.683594E-17	2.270511E-18
3.878166E+03	3.809512E-17	2.335570E-18
3.888110E+03	3.935997E-17	2.400190E-18
3.898054E+03	4.062786E-17	2.464214E-18
3.907998E+03	4.190132E-17	2.527799E-18
3.917942E+03	4.316752E-17	2.590178E-18
3.927886E+03	4.443439E-17	2.651840E-18
3.937830E+03	4.569978E-17	2.712666E-18
3.947774E+03	4.695025E-17	2.771874E-18
3.957718E+03	4.818874E-17	2.829662E-18
3.967662E+03	4.941875E-17	2.886254E-18
3.977606E+03	5.063210E-17	2.941196E-18
3.987550E+03	5.183247E-17	2.994727E-18
3.997494E+03	5.300507E-17	3.046023E-18
4.007438E+03	5.415967E-17	3.095679E-18
4.017382E+03	5.528737E-17	3.143219E-18
4.027326E+03	5.638529E-17	3.188519E-18
4.037270E+03	5.745049E-17	3.231452E-18
4.047214E+03	5.848657E-17	3.272266E-18
4.057158E+03	5.948406E-17	3.310472E-18
4.067102E+03	6.043991E-17	3.345951E-18
4.077046E+03	6.135153E-17	3.378612E-18
4.086990E+03	6.221661E-17	3.408381E-18
4.096934E+03	6.304060E-17	3.435610E-18
4.106878E+03	6.381566E-17	3.459925E-18
4.116822E+03	6.454195E-17	3.481390E-18
4.126766E+03	6.522068E-17	3.500126E-18
4.136710E+03	6.586155E-17	3.516705E-18
4.146654E+03	6.645387E-17	3.530605E-18
4.156598E+03	6.701686E-17	3.542897E-18
4.166542E+03	6.754935E-17	3.553555E-18
4.176486E+03	6.805803E-17	3.562970E-18
4.186430E+03	6.855769E-17	3.571946E-18
4.196374E+03	6.904150E-17	3.580150E-18
4.206318E+03	6.953185E-17	3.588765E-18
4.216262E+03	7.002899E-17	3.597816E-18
4.226206E+03	7.053979E-17	3.607666E-18
4.236150E+03	7.107768E-17	3.619005E-18
4.246094E+03	7.163278E-17	3.631332E-18
4.256039E+03	7.222342E-17	3.645578E-18
4.265983E+03	7.284412E-17	3.661466E-18
4.275927E+03	7.349525E-17	3.679014E-18
4.285871E+03	7.417546E-17	3.698157E-18
4.295815E+03	7.488929E-17	3.719125E-18
4.305759E+03	7.561729E-17	3.740958E-18
4.315703E+03	7.636882E-17	3.764134E-18
4.325647E+03	7.712995E-17	3.787979E-18
4.335591E+03	7.789377E-17	3.812176E-18
4.345535E+03	7.865390E-17	3.836436E-18
4.355479E+03	7.940489E-17	3.860522E-18
4.365423E+03	8.014395E-17	3.884328E-18
4.375367E+03	8.088000E-17	3.908317E-18
4.385311E+03	8.161046E-17	3.932392E-18
4.395255E+03	8.233543E-17	3.956585E-18
4.405199E+03	8.308001E-17	3.982128E-18
4.415143E+03	8.384629E-17	4.009140E-18
4.425087E+03	8.465204E-17	4.038487E-18
4.435031E+03	8.549028E-17	4.069853E-18
4.444975E+03	8.637607E-17	4.103961E-18
4.454919E+03	8.732256E-17	4.141433E-18
4.464863E+03	8.832404E-17	4.181999E-18
4.474807E+03	8.937160E-17	4.225240E-18
4.484751E+03	9.047734E-17	4.271730E-18
4.494695E+03	9.162545E-17	4.320730E-18
4.504639E+03	9.280469E-17	4.371719E-18
4.514583E+03	9.400049E-17	4.424022E-18
4.524527E+03	9.519524E-17	4.476824E-18
4.534471E+03	9.637743E-17	4.529600E-18
4.544415E+03	9.750803E-17	4.580532E-18
4.554359E+03	9.858157E-17	4.629378E-18
4.564303E+03	9.955830E-17	4.674286E-18
4.574247E+03	1.004344E-16	4.715086E-18
4.584191E+03	1.011736E-16	4.750087E-18
4.594135E+03	1.017785E-16	4.779405E-18
4.604079E+03	1.022296E-16	4.802124E-18
4.614023E+03	1.025126E-16	4.817562E-18
4.623967E+03	1.026452E-16	4.826536E-18
4.633911E+03	1.026244E-16	4.828881E-18
4.643855E+03	1.024615E-16	4.825107E-18
4.653799E+03	1.021730E-16	4.815952E-18
4.663743E+03	1.017792E-16	4.802354E-18
4.673687E+03	1.013042E-16	4.785407E-18
4.683631E+03	1.007741E-16	4.766321E-18
4.693575E+03	1.002163E-16	4.746366E-18
4.703519E+03	9.965845E-17	4.726821E-18
4.713463E+03	9.912716E-17	4.708938E-18
4.723407E+03	9.864727E-17	4.693884E-18
4.733351E+03	9.824099E-17	4.682713E-18
4.743295E+03	9.792736E-17	4.676337E-18
4.753239E+03	9.772146E-17	4.675487E-18
4.763183E+03	9.763423E-17	4.680705E-18
4.773127E+03	9.767220E-17	4.692329E-18
4.783071E+03	9.783737E-17	4.710481E-18
4.793015E+03	9.812718E-17	4.735073E-18
4.802959E+03	9.853497E-17	4.765816E-18
4.812903E+03	9.904219E-17	4.801845E-18
4.822847E+03	9.965027E-17	4.843263E-18
4.832791E+03	1.003344E-16	4.888891E-18
4.842735E+03	1.010675E-16	4.937441E-18
4.852679E+03	1.018447E-16	4.988684E-18
4.862623E+03	1.026370E-16	5.041212E-18
4.872567E+03	1.034154E-16	5.093606E-18
4.882511E+03	1.041677E-16	5.145260E-18
4.892455E+03	1.048835E-16	5.195642E-18
4.902399E+03	1.055308E-16	5.243143E-18
4.912344E+03	1.061040E-16	5.287459E-18
4.922288E+03	1.065927E-16	5.328032E-18
4.932232E+03	1.069896E-16	5.364453E-18
4.942176E+03	1.072909E-16	5.396484E-18
4.952120E+03	1.074958E-16	5.424040E-18
4.962064E+03	1.075988E-16	5.446787E-18
4.972008E+03	1.076212E-16	5.465750E-18
4.981952E+03	1.075552E-16	5.480486E-18
4.991896E+03	1.074267E-16	5.492272E-18
5.001840E+03	1.072323E-16	5.500892E-18
5.011784E+03	1.069935E-16	5.507417E-18
5.021728E+03	1.067251E-16	5.512573E-18
5.031672E+03	1.064345E-16	5.516728E-18
5.041616E+03	1.061521E-16	5.521440E-18
5.051560E+03	1.058769E-16	5.526657E-18
5.061504E+03	1.056371E-16	5.533854E-18
5.071448E+03	1.054288E-16	5.542842E-18
5.081392E+03	1.052684E-16	5.554503E-18
5.091336E+03	1.051549E-16	5.568799E-18
5.101280E+03	1.051065E-16	5.586723E-18
5.111224E+03	1.051090E-16	5.607549E-18
5.121168E+03	1.051745E-16	5.631965E-18
5.131112E+03	1.052835E-16	5.658944E-18
5.141056E+03	1.054359E-16	5.688514E-18
5.151000E+03	1.056152E-16	5.719800E-18
5.160944E+03	1.058251E-16	5.753025E-18
5.170888E+03	1.060398E-16	5.786791E-18
5.180832E+03	1.062545E-16	5.820852E-18
5.190776E+03	1.064578E-16	5.854565E-18
5.200720E+03	1.066314E-16	5.886924E-18
5.210664E+03	1.067799E-16	5.918154E-18
5.220608E+03	1.068800E-16	5.946954E-18
5.230552E+03	1.069319E-16	5.973297E-18
5.240496E+03	1.069300E-16	5.996833E-18
5.250440E+03	1.068629E-16	6.016893E-18
5.260384E+03	1.067356E-16	6.033705E-18
5.270328E+03	1.065469E-16	6.047172E-18
5.280272E+03	1.062976E-16	6.057284E-18
5.290216E+03	1.059825E-16	6.063709E-18
5.300160E+03	1.056118E-16	6.066987E-18
5.310104E+03	1.051900E-16	6.067329E-18
5.320048E+03	1.047224E-16	6.065010E-18
5.329992E+03	1.042086E-16	6.059971E-18
5.339936E+03	1.036691E-16	6.053377E-18
5.349880E+03	1.030916E-16	6.044482E-18
5.359824E+03	1.025041E-16	6.034908E-18
5.369768E+03	1.019016E-16	6.024350E-18
5.379712E+03	1.012992E-16	6.013684E-18
5.389656E+03	1.007047E-16	6.003382E-18
5.399600E+03	1.001195E-16	5.993525E-18
5.409544E+03	9.955702E-17	5.984930E-18
5.419488E+03	9.902359E-17	5.977991E-18
5.429432E+03	9.852428E-17	5.973035E-18
5.439376E+03	9.805670E-17	5.969943E-18
5.449320E+03	9.762286E-17	5.968860E-18
5.459264E+03	9.723444E-17	5.970522E-18
5.469208E+03	9.687462E-17	5.973920E-18
5.479152E+03	9.654044E-17	5.978887E-18
5.489096E+03	9.621981E-17	5.984681E-18
5.499040E+03	9.589295E-17	5.990073E-18
5.508984E+03	9.555157E-17	5.994529E-18
5.518928E+03	9.517570E-17	5.996774E-18
5.528872E+03	9.475778E-17	5.996293E-18
5.538816E+03	9.428560E-17	5.992268E-18
5.548760E+03	9.374856E-17	5.983973E-18
5.558704E+03	9.313249E-17	5.970437E-18
5.568649E+03	9.243698E-17	5.951562E-18
5.578593E+03	9.165272E-17	5.926670E-18
5.588537E+03	9.078434E-17	5.895983E-18
5.598481E+03	8.983355E-17	5.859531E-18
5.608425E+03	8.879940E-17	5.817177E-18
5.618369E+03	8.769432E-17	5.769659E-18
5.628313E+03	8.652787E-17	5.717542E-18
5.638257E+03	8.530680E-17	5.661213E-18
5.648201E+03	8.405017E-17	5.601889E-18
5.658145E+03	8.277384E-17	5.540595E-18
5.668089E+03	8.149012E-17	5.478132E-18
5.678033E+03	8.021770E-17	5.415751E-18
5.687977E+03	7.898546E-17	5.355413E-18
5.697921E+03	7.780344E-17	5.297832E-18
5.707865E+03	7.669150E-17	5.244402E-18
5.717809E+03	7.567767E-17	5.197105E-18
5.727753E+03	7.476657E-17	5.156340E-18
5.737697E+03	7.398810E-17	5.124265E-18
5.747641E+03	7.334812E-17	5.101398E-18
5.757585E+03	7.285909E-17	5.088728E-18
5.767529E+03	7.253927E-17	5.087664E-18
5.777473E+03	7.238263E-17	5.097929E-18
5.787417E+03	7.240534E-17	5.120806E-18
5.797361E+03	7.259904E-17	5.155857E-18
5.807305E+03	7.296020E-17	5.202980E-18
5.817249E+03	7.348607E-17	5.262121E-18
5.827193E+03	7.416612E-17	5.332669E-18
5.837137E+03	7.498644E-17	5.413752E-18
5.847081E+03	7.592162E-17	5.503650E-18
5.857025E+03	7.696531E-17	5.602001E-18
5.866969E+03	7.808750E-17	5.706705E-18
5.876913E+03	7.927013E-17	5.816503E-18
5.886857E+03	8.048586E-17	5.929433E-18
5.896801E+03	8.171688E-17	6.044205E-18
5.906745E+03	8.293764E-17	6.158931E-18
5.916689E+03	8.413418E-17	6.272559E-18
5.926633E+03	8.529077E-17	6.383887E-18
5.936577E+03	8.639043E-17	6.491602E-18
5.946521E+03	8.742981E-17	6.595397E-18
5.956465E+03	8.839971E-17	6.694520E-18
5.966409E+03	8.930507E-17	6.789282E-18
5.976353E+03	9.014456E-17	6.879522E-18
5.986297E+03	9.093045E-17	6.966120E-18
5.996241E+03	9.167287E-17	7.049803E-18
6.006185E+03	9.237907E-17	7.131090E-18
6.016129E+03	9.306826E-17	7.211438E-18
6.026073E+03	9.375045E-17	7.291605E-18
6.036017E+03	9.444636E-17	7.373199E-18
6.045961E+03	9.516632E-17	7.457041E-18
6.055905E+03	9.593057E-17	7.544740E-18
6.065849E+03	9.675347E-17	7.637464E-18
6.075793E+03	9.764271E-17	7.735872E-18
6.085737E+03	9.861571E-17	7.841402E-18
6.095681E+03	9.967771E-17	7.954543E-18
6.105625E+03	1.008438E-16	8.076576E-18
6.115569E+03	1.021168E-16	8.207815E-18
6.125513E+03	1.035097E-16	8.349390E-18
6.135457E+03	1.050291E-16	8.501937E-18
6.145401E+03	1.066749E-16	8.665559E-18
6.155345E+03	1.084521E-16	8.840763E-18
6.165289E+03	1.103715E-16	9.028535E-18
6.175233E+03	1.124376E-16	9.229357E-18
6.185177E+03	1.146548E-16	9.443726E-18
6.195121E+03	1.170148E-16	9.671059E-18
6.205065E+03	1.195412E-16	9.913441E-18
6.215009E+03	1.222261E-16	1.017035E-17
6.224954E+03	1.250818E-16	1.044292E-17
6.234898E+03	1.281078E-16	1.073126E-17
6.244842E+03	1.313186E-16	1.103673E-17
6.254786E+03	1.347161E-16	1.135962E-17
6.264730E+03	1.383180E-16	1.170157E-17
6.274674E+03	1.421290E-16	1.206315E-17
6.284618E+03	1.461710E-16	1.244639E-17
6.294562E+03	1.504602E-16	1.285284E-17
6.304506E+03	1.550059E-16	1.328350E-17
6.314450E+03	1.598354E-16	1.374091E-17
6.324394E+03	1.649596E-16	1.422623E-17
6.334338E+03	1.704071E-16	1.474216E-17
6.344282E+03	1.761971E-16	1.529062E-17
6.354226E+03	1.823370E-16	1.587250E-17
6.364170E+03	1.888397E-16	1.648921E-17
6.374114E+03	1.957349E-16	1.714360E-17
6.384058E+03	2.029930E-16	1.783339E-17
6.394002E+03	2.106404E-16	1.856116E-17
6.403946E+03	2.186382E-16	1.932378E-17
6.413890E+03	2.269562E-16	2.011880E-17
6.423834E+03	2.355755E-16	2.094479E-17
6.433778E+03	2.443975E-16	2.179317E-17
6.443722E+03	2.533831E-16	2.266057E-17
6.453666E+03	2.624086E-16	2.353599E-17
6.463610E+03	2.713561E-16	2.440885E-17
6.473554E+03	2.801027E-16	2.526797E-17
6.483498E+03	2.884892E-16	2.609875E-17
6.493442E+03	2.963142E-16	2.688265E-17
6.503386E+03	3.033809E-16	2.760127E-17
6.513330E+03	3.094558E-16	2.823274E-17
6.523274E+03	3.142845E-16	2.875299E-17
6.533218E+03	3.176634E-16	2.914237E-17
6.543162E+03	3.193922E-16	2.938137E-17
6.553106E+03	3.193595E-16	2.945845E-17
6.563050E+03	3.175012E-16	2.936635E-17
6.572994E+03	3.138064E-16	2.910270E-17
6.582938E+03	3.083685E-16	2.867482E-17
6.592882E+03	3.013101E-16	2.809286E-17
6.602826E+03	2.928398E-16	2.737514E-17
6.612770E+03	2.831874E-16	2.654219E-17
6.622714E+03	2.725905E-16	2.561548E-17
6.632658E+03	2.613254E-16	2.462038E-17
6.642602E+03	2.496462E-16	2.358045E-17
6.652546E+03	2.377765E-16	2.251659E-17
6.662490E+03	2.259420E-16	2.145013E-17
6.672434E+03	2.143119E-16	2.039723E-17
6.682378E+03	2.030475E-16	1.937344E-17
6.692322E+03	1.922640E-16	1.839012E-17
6.702266E+03	1.820367E-16	1.745482E-17
6.712210E+03	1.724339E-16	1.657456E-17
6.722154E+03	1.634893E-16	1.575304E-17
6.732098E+03	1.552084E-16	1.499127E-17
6.742042E+03	1.475987E-16	1.429050E-17
6.751986E+03	1.406388E-16	1.364911E-17
6.761930E+03	1.343219E-16	1.306691E-17
6.771874E+03	1.286041E-16	1.254012E-17
6.781818E+03	1.234540E-16	1.206605E-17
6.791762E+03	1.188445E-16	1.164248E-17
6.801706E+03	1.147405E-16	1.126634E-17
6.811650E+03	1.111076E-16	1.093458E-17
6.821594E+03	1.079064E-16	1.064367E-17
6.831538E+03	1.051115E-16	1.039139E-17
6.841482E+03	1.026877E-16	1.017453E-17
6.851426E+03	1.006131E-16	9.991163E-18
6.861370E+03	9.886232E-17	9.839012E-18
6.871314E+03	9.741189E-17	9.715947E-18
6.881259E+03	9.623507E-17	9.619498E-18
6.891203E+03	9.531773E-17	9.548432E-18
6.901147E+03	9.463679E-17	9.500604E-18
6.911091E+03	9.418643E-17	9.475582E-18
6.921035E+03	9.394105E-17	9.470936E-18
6.930979E+03	9.388708E-17	9.485427E-18
6.940923E+03	9.402224E-17	9.518946E-18
6.950867E+03	9.432439E-17	9.569367E-18
6.960811E+03	9.478791E-17	9.636222E-18
6.970755E+03	9.539762E-17	9.718064E-18
6.980699E+03	9.614931E-17	9.814555E-18
6.990643E+03	9.703445E-17	9.924908E-18
7.000587E+03	9.804502E-17	1.004838E-17
7.010531E+03	9.916806E-17	1.018371E-17
7.020475E+03	1.004020E-16	1.033081E-17
7.030419E+03	1.017348E-16	1.048850E-17
7.040363E+03	1.031717E-16	1.065738E-17
7.050307E+03	1.046956E-16	1.083573E-17
7.060251E+03	1.063066E-16	1.102361E-17
7.070195E+03	1.079932E-16	1.121989E-17
7.080139E+03	1.097622E-16	1.142529E-17
7.090083E+03	1.115952E-16	1.163795E-17
7.100027E+03	1.134924E-16	1.185792E-17
7.109971E+03	1.154401E-16	1.208381E-17
7.119915E+03	1.174367E-16	1.231545E-17
7.129859E+03	1.194730E-16	1.255193E-17
7.139803E+03	1.215386E-16	1.279214E-17
7.149747E+03	1.236141E-16	1.303406E-17
7.159691E+03	1.256993E-16	1.327766E-17
7.169635E+03	1.277639E-16	1.351976E-17
7.179579E+03	1.297896E-16	1.375837E-17
7.189523E+03	1.317708E-16	1.399289E-17
7.199467E+03	1.336706E-16	1.421935E-17
7.209411E+03	1.354730E-16	1.443599E-17
7.219355E+03	1.371530E-16	1.464010E-17
7.229299E+03	1.386774E-16	1.482805E-17
7.239243E+03	1.400284E-16	1.499786E-17
7.249187E+03	1.411818E-16	1.514681E-17
7.259131E+03	1.421145E-16	1.527231E-17
7.269075E+03	1.427979E-16	1.537119E-17
7.279019E+03	1.432317E-16	1.544325E-17
7.288963E+03	1.433864E-16	1.548519E-17
7.298907E+03	1.432627E-16	1.549693E-17
7.308851E+03	1.428496E-16	1.547713E-17
7.318795E+03	1.421670E-16	1.542781E-17
7.328739E+03	1.412068E-16	1.534795E-17
7.338683E+03	1.399916E-16	1.523986E-17
7.348627E+03	1.385404E-16	1.510549E-17
7.358571E+03	1.368685E-16	1.494640E-17
7.368515E+03	1.350111E-16	1.476632E-17
7.378459E+03	1.330057E-16	1.456930E-17
7.388403E+03	1.308605E-16	1.435613E-17
7.398347E+03	1.286315E-16	1.413292E-17
7.408291E+03	1.263434E-16	1.390236E-17
7.418235E+03	1.240212E-16	1.366717E-17
7.428179E+03	1.217032E-16	1.343157E-17
7.438123E+03	1.194186E-16	1.319880E-17
7.448067E+03	1.171945E-16	1.297187E-17
7.458011E+03	1.150483E-16	1.275277E-17
7.467955E+03	1.130092E-16	1.254476E-17
7.477899E+03	1.111031E-16	1.235078E-17
7.487843E+03	1.093327E-16	1.217122E-17
7.497787E+03	1.077122E-16	1.200770E-17
7.507731E+03	1.062654E-16	1.186299E-17
7.517675E+03	1.049880E-16	1.173666E-17
7.527620E+03	1.038922E-16	1.163018E-17
7.537564E+03	1.029880E-16	1.154475E-17
7.547508E+03	1.022578E-16	1.147848E-17
7.557452E+03	1.017195E-16	1.143347E-17
7.567396E+03	1.013640E-16	1.140879E-17
7.577340E+03	1.011801E-16	1.140326E-17
7.587284E+03	1.011671E-16	1.141688E-17
7.597228E+03	1.013164E-16	1.144874E-17
7.607172E+03	1.016175E-16	1.149774E-17
7.617116E+03	1.020583E-16	1.156257E-17
7.627060E+03	1.026192E-16	1.164106E-17
7.637004E+03	1.032915E-16	1.173229E-17
7.646948E+03	1.040661E-16	1.183527E-17
7.656892E+03	1.049138E-16	1.194670E-17
7.666836E+03	1.058176E-16	1.206469E-17
7.676780E+03	1.067741E-16	1.218886E-17
7.686724E+03	1.077602E-16	1.231661E-17
7.696668E+03	1.087538E-16	1.244540E-17
7.706612E+03	1.097468E-16	1.257433E-17
7.716556E+03	1.107335E-16	1.270271E-17
