#wls	flux	fluxerr
1.591042E+03	6.653245E-19	1.935265E-19
1.630818E+03	6.851354E-19	1.992889E-19
1.670595E+03	7.010805E-19	2.039269E-19
1.710371E+03	7.130644E-19	2.074127E-19
1.750147E+03	7.198893E-19	2.093978E-19
1.789923E+03	7.210246E-19	2.097280E-19
1.829699E+03	7.147381E-19	2.078994E-19
1.869475E+03	6.995953E-19	2.034947E-19
1.909251E+03	6.744908E-19	1.961924E-19
1.949027E+03	6.393387E-19	1.859675E-19
1.988803E+03	5.963692E-19	1.734687E-19
2.028579E+03	5.500265E-19	1.599887E-19
2.068355E+03	5.087978E-19	1.479963E-19
2.108131E+03	4.814462E-19	1.400404E-19
2.147907E+03	4.748479E-19	1.381211E-19
2.187683E+03	4.916098E-19	1.429966E-19
2.227459E+03	5.290779E-19	1.538951E-19
2.267235E+03	5.823601E-19	1.693934E-19
2.307012E+03	6.449383E-19	1.875958E-19
2.346788E+03	7.112556E-19	2.068857E-19
2.386564E+03	7.773479E-19	2.261101E-19
2.426340E+03	8.412383E-19	2.446941E-19
2.466116E+03	9.012038E-19	2.621364E-19
2.505892E+03	9.577663E-19	2.785888E-19
2.545668E+03	1.010880E-18	2.940380E-19
2.585444E+03	1.061124E-18	3.086527E-19
2.625220E+03	1.109669E-18	3.227731E-19
2.664996E+03	1.156430E-18	3.363744E-19
2.704772E+03	1.203150E-18	3.499638E-19
2.744548E+03	1.250248E-18	3.636632E-19
2.784324E+03	1.298633E-18	3.777370E-19
2.824100E+03	1.349268E-18	3.924652E-19
2.863876E+03	1.403195E-18	4.081509E-19
2.903652E+03	1.462120E-18	4.252903E-19
2.943428E+03	1.526795E-18	4.441023E-19
2.983205E+03	1.598671E-18	4.650089E-19
2.993149E+03	1.617802E-18	4.705733E-19
3.003093E+03	1.637510E-18	4.763058E-19
3.013037E+03	1.657824E-18	4.822148E-19
3.022981E+03	1.679457E-18	4.885068E-19
3.032925E+03	1.701340E-18	4.948721E-19
3.042869E+03	1.724291E-18	5.015479E-19
3.052813E+03	1.748331E-18	5.085403E-19
3.062757E+03	1.774119E-18	5.160412E-19
3.072701E+03	1.800328E-18	5.236648E-19
3.082645E+03	1.827622E-18	5.316036E-19
3.092589E+03	1.856702E-18	5.400620E-19
3.102533E+03	1.886201E-18	5.486424E-19
3.112477E+03	1.916821E-18	5.575490E-19
3.122421E+03	1.949309E-18	5.669986E-19
3.132365E+03	1.982249E-18	5.765798E-19
3.142309E+03	2.017133E-18	5.867267E-19
3.152253E+03	2.052510E-18	5.970168E-19
3.162197E+03	2.089154E-18	6.076754E-19
3.172141E+03	2.127891E-18	6.189428E-19
3.182085E+03	2.167208E-18	6.303790E-19
3.192029E+03	2.208740E-18	6.424592E-19
3.201973E+03	2.250928E-18	6.547304E-19
3.211917E+03	2.295469E-18	6.676862E-19
3.221861E+03	2.340758E-18	6.808592E-19
3.231805E+03	2.387684E-18	6.945086E-19
3.241749E+03	2.437208E-18	7.089136E-19
3.251693E+03	2.487641E-18	7.235829E-19
3.261637E+03	2.540857E-18	7.390619E-19
3.271581E+03	2.595109E-18	7.548423E-19
3.281525E+03	2.652353E-18	7.714926E-19
3.291469E+03	2.710774E-18	7.884856E-19
3.301413E+03	2.772415E-18	8.064150E-19
3.311357E+03	2.836416E-18	8.250310E-19
3.321301E+03	2.901841E-18	8.440611E-19
3.331245E+03	2.970870E-18	8.641394E-19
3.341189E+03	3.041506E-18	8.846855E-19
3.351133E+03	3.116034E-18	9.063634E-19
3.361077E+03	3.192373E-18	9.285678E-19
3.371021E+03	3.272915E-18	9.519950E-19
3.380965E+03	3.355488E-18	9.760130E-19
3.390909E+03	3.442604E-18	1.001353E-18
3.400853E+03	3.533249E-18	1.027718E-18
3.410797E+03	3.626293E-18	1.054782E-18
3.420741E+03	3.724446E-18	1.083331E-18
3.430685E+03	3.826623E-18	1.113052E-18
3.440629E+03	3.931615E-18	1.143591E-18
3.450573E+03	4.042350E-18	1.175800E-18
3.460517E+03	4.157665E-18	1.209342E-18
3.470461E+03	4.276259E-18	1.243837E-18
3.480405E+03	4.401303E-18	1.280208E-18
3.490349E+03	4.531545E-18	1.318092E-18
3.500293E+03	4.665581E-18	1.357079E-18
3.510237E+03	4.806847E-18	1.398168E-18
3.520181E+03	4.953999E-18	1.440970E-18
3.530125E+03	5.105497E-18	1.485036E-18
3.540069E+03	5.265095E-18	1.531458E-18
3.550013E+03	5.431323E-18	1.579809E-18
3.559957E+03	5.602508E-18	1.629601E-18
3.569901E+03	5.782731E-18	1.682022E-18
3.579845E+03	5.970396E-18	1.736608E-18
3.589789E+03	6.165780E-18	1.793439E-18
3.599734E+03	6.366979E-18	1.851962E-18
3.609678E+03	6.578606E-18	1.913517E-18
3.619622E+03	6.798837E-18	1.977575E-18
3.629566E+03	7.027972E-18	2.044224E-18
3.639510E+03	7.263839E-18	2.112830E-18
3.649454E+03	7.511644E-18	2.184908E-18
3.659398E+03	7.769290E-18	2.259849E-18
3.669342E+03	8.037106E-18	2.337749E-18
3.679286E+03	8.312580E-18	2.417875E-18
3.689230E+03	8.601602E-18	2.501942E-18
3.699174E+03	8.901760E-18	2.589249E-18
3.709118E+03	9.213372E-18	2.679887E-18
3.719062E+03	9.536774E-18	2.773954E-18
3.729006E+03	9.868952E-18	2.870574E-18
3.738950E+03	1.021678E-17	2.971745E-18
3.748894E+03	1.057735E-17	3.076623E-18
3.758838E+03	1.095097E-17	3.185297E-18
3.768782E+03	1.133795E-17	3.297858E-18
3.778726E+03	1.173860E-17	3.414393E-18
3.788670E+03	1.214914E-17	3.533807E-18
3.798614E+03	1.257785E-17	3.658504E-18
3.808558E+03	1.302107E-17	3.787422E-18
3.818502E+03	1.347905E-17	3.920635E-18
3.828446E+03	1.395206E-17	4.058218E-18
3.838390E+03	1.444034E-17	4.200243E-18
3.848334E+03	1.493916E-17	4.345333E-18
3.858278E+03	1.545845E-17	4.496376E-18
3.868222E+03	1.599362E-17	4.652039E-18
3.878166E+03	1.654483E-17	4.812369E-18
3.888110E+03	1.711225E-17	4.977412E-18
3.898054E+03	1.769600E-17	5.147207E-18
3.907998E+03	1.829620E-17	5.321784E-18
3.917942E+03	1.891293E-17	5.501172E-18
3.927886E+03	1.953990E-17	5.683534E-18
3.937830E+03	2.018967E-17	5.872530E-18
3.947774E+03	2.085609E-17	6.066370E-18
3.957718E+03	2.153915E-17	6.265049E-18
3.967662E+03	2.223881E-17	6.468556E-18
3.977606E+03	2.295499E-17	6.676871E-18
3.987550E+03	2.368761E-17	6.889965E-18
3.997494E+03	2.443653E-17	7.107800E-18
4.007438E+03	2.519348E-17	7.327970E-18
4.017382E+03	2.597425E-17	7.555072E-18
4.027326E+03	2.677075E-17	7.786746E-18
4.037270E+03	2.758271E-17	8.022916E-18
4.047214E+03	2.840982E-17	8.263495E-18
4.057158E+03	2.925175E-17	8.508384E-18
4.067102E+03	3.010814E-17	8.757478E-18
4.077046E+03	3.097856E-17	9.010653E-18
4.086990E+03	3.186256E-17	9.267777E-18
4.096934E+03	3.274922E-17	9.525678E-18
4.106878E+03	3.365855E-17	9.790168E-18
4.116822E+03	3.457978E-17	1.005812E-17
4.126766E+03	3.551229E-17	1.032936E-17
4.136710E+03	3.645536E-17	1.060366E-17
4.146654E+03	3.740822E-17	1.088082E-17
4.156598E+03	3.837004E-17	1.116058E-17
4.166542E+03	3.933992E-17	1.144268E-17
4.176486E+03	4.030425E-17	1.172317E-17
4.186430E+03	4.128698E-17	1.200901E-17
4.196374E+03	4.227461E-17	1.229628E-17
4.206318E+03	4.326593E-17	1.258462E-17
4.216262E+03	4.425963E-17	1.287365E-17
4.226206E+03	4.525426E-17	1.316295E-17
4.236150E+03	4.624832E-17	1.345209E-17
4.246094E+03	4.724014E-17	1.374057E-17
4.256039E+03	4.821303E-17	1.402355E-17
4.265983E+03	4.919469E-17	1.430908E-17
4.275927E+03	5.016843E-17	1.459231E-17
4.285871E+03	5.113212E-17	1.487261E-17
4.295815E+03	5.208346E-17	1.514932E-17
4.305759E+03	5.302008E-17	1.542174E-17
4.315703E+03	5.393951E-17	1.568917E-17
4.325647E+03	5.482238E-17	1.594597E-17
4.335591E+03	5.569968E-17	1.620114E-17
4.345535E+03	5.655245E-17	1.644918E-17
4.355479E+03	5.737862E-17	1.668948E-17
4.365423E+03	5.817640E-17	1.692152E-17
4.375367E+03	5.892662E-17	1.713973E-17
4.385311E+03	5.966422E-17	1.735427E-17
4.395255E+03	6.037106E-17	1.755986E-17
4.405199E+03	6.104729E-17	1.775655E-17
4.415143E+03	6.169323E-17	1.794443E-17
4.425087E+03	6.229062E-17	1.811818E-17
4.435031E+03	6.287765E-17	1.828893E-17
4.444975E+03	6.343640E-17	1.845144E-17
4.454919E+03	6.396772E-17	1.860598E-17
4.464863E+03	6.447247E-17	1.875279E-17
4.474807E+03	6.493203E-17	1.888646E-17
4.484751E+03	6.538619E-17	1.901855E-17
4.494695E+03	6.581633E-17	1.914366E-17
4.504639E+03	6.620370E-17	1.925633E-17
4.514583E+03	6.658850E-17	1.936825E-17
4.524527E+03	6.695193E-17	1.947396E-17
4.534471E+03	6.729483E-17	1.957369E-17
4.544415E+03	6.759786E-17	1.966183E-17
4.554359E+03	6.790204E-17	1.975030E-17
4.564303E+03	6.818800E-17	1.983347E-17
4.574247E+03	6.843641E-17	1.990572E-17
4.584191E+03	6.868839E-17	1.997900E-17
4.594135E+03	6.892450E-17	2.004768E-17
4.604079E+03	6.912506E-17	2.010601E-17
4.614023E+03	6.933158E-17	2.016607E-17
4.623967E+03	6.952433E-17	2.022213E-17
4.633911E+03	6.968367E-17	2.026848E-17
4.643855E+03	6.985110E-17	2.031717E-17
4.653799E+03	7.000681E-17	2.036245E-17
4.663743E+03	7.013098E-17	2.039857E-17
4.673687E+03	7.026526E-17	2.043762E-17
4.683631E+03	7.036920E-17	2.046785E-17
4.693575E+03	7.048454E-17	2.050139E-17
4.703519E+03	7.057070E-17	2.052645E-17
4.713463E+03	7.066934E-17	2.055513E-17
4.723407E+03	7.076048E-17	2.058164E-17
4.733351E+03	7.082412E-17	2.060014E-17
4.743295E+03	7.090176E-17	2.062272E-17
4.753239E+03	7.095295E-17	2.063761E-17
4.763183E+03	7.101899E-17	2.065681E-17
4.773127E+03	7.105948E-17	2.066858E-17
4.783071E+03	7.109526E-17	2.067899E-17
4.793015E+03	7.114706E-17	2.069405E-17
4.802959E+03	7.117453E-17	2.070203E-17
4.812903E+03	7.121865E-17	2.071486E-17
4.822847E+03	7.123902E-17	2.072078E-17
4.832791E+03	7.127670E-17	2.073174E-17
4.842735E+03	7.129117E-17	2.073594E-17
4.852679E+03	7.130301E-17	2.073938E-17
4.862623E+03	7.133280E-17	2.074804E-17
4.872567E+03	7.133999E-17	2.075012E-17
4.882511E+03	7.134513E-17	2.075161E-17
4.892455E+03	7.136863E-17	2.075844E-17
4.902399E+03	7.137005E-17	2.075885E-17
4.912344E+03	7.136976E-17	2.075876E-17
4.922288E+03	7.138800E-17	2.076407E-17
4.932232E+03	7.138445E-17	2.076303E-17
4.942176E+03	7.137936E-17	2.076154E-17
4.952120E+03	7.137280E-17	2.075963E-17
4.962064E+03	7.138479E-17	2.076311E-17
4.972008E+03	7.137512E-17	2.076029E-17
4.981952E+03	7.136396E-17	2.075704E-17
4.991896E+03	7.135112E-17	2.075330E-17
5.001840E+03	7.133673E-17	2.074911E-17
5.011784E+03	7.134053E-17	2.075021E-17
5.021728E+03	7.132256E-17	2.074498E-17
5.031672E+03	7.130271E-17	2.073920E-17
5.041616E+03	7.128079E-17	2.073282E-17
5.051560E+03	7.125673E-17	2.072582E-17
5.061504E+03	7.123040E-17	2.071815E-17
5.071448E+03	7.120160E-17	2.070977E-17
5.081392E+03	7.117020E-17	2.070063E-17
5.091336E+03	7.113599E-17	2.069068E-17
5.101280E+03	7.109872E-17	2.067984E-17
5.111224E+03	7.105825E-17	2.066806E-17
5.121168E+03	7.101431E-17	2.065527E-17
5.131112E+03	7.096663E-17	2.064140E-17
5.141056E+03	7.091501E-17	2.062638E-17
5.151000E+03	7.085904E-17	2.061010E-17
5.160944E+03	7.079851E-17	2.059249E-17
5.170888E+03	7.073315E-17	2.057347E-17
5.180832E+03	7.066249E-17	2.055291E-17
5.190776E+03	7.056694E-17	2.052511E-17
5.200720E+03	7.048485E-17	2.050123E-17
5.210664E+03	7.039642E-17	2.047551E-17
5.220608E+03	7.030123E-17	2.044782E-17
5.230552E+03	7.019892E-17	2.041805E-17
5.240496E+03	7.006992E-17	2.038053E-17
5.250440E+03	6.995200E-17	2.034622E-17
5.260384E+03	6.982556E-17	2.030944E-17
5.270328E+03	6.967125E-17	2.026456E-17
5.280272E+03	6.952637E-17	2.022241E-17
5.290216E+03	6.937146E-17	2.017735E-17
5.300160E+03	6.918729E-17	2.012378E-17
5.310104E+03	6.901079E-17	2.007243E-17
5.320048E+03	6.880401E-17	2.001229E-17
5.329992E+03	6.860374E-17	1.995403E-17
5.339936E+03	6.839062E-17	1.989204E-17
5.349880E+03	6.814566E-17	1.982078E-17
5.359824E+03	6.790524E-17	1.975085E-17
5.369768E+03	6.763202E-17	1.967138E-17
5.379712E+03	6.736197E-17	1.959283E-17
5.389656E+03	6.705819E-17	1.950447E-17
5.399600E+03	6.673842E-17	1.941145E-17
5.409544E+03	6.642000E-17	1.931883E-17
5.419488E+03	6.606678E-17	1.921609E-17
5.429432E+03	6.569642E-17	1.910836E-17
5.439376E+03	6.532624E-17	1.900069E-17
5.449320E+03	6.492119E-17	1.888287E-17
5.459264E+03	6.449914E-17	1.876011E-17
5.469208E+03	6.407771E-17	1.863753E-17
5.479152E+03	6.362337E-17	1.850538E-17
5.489096E+03	6.315436E-17	1.836896E-17
5.499040E+03	6.267190E-17	1.822862E-17
5.508984E+03	6.217731E-17	1.808477E-17
5.518928E+03	6.168842E-17	1.794256E-17
5.528872E+03	6.117372E-17	1.779286E-17
5.538816E+03	6.065119E-17	1.764087E-17
5.548760E+03	6.012227E-17	1.748702E-17
5.558704E+03	5.958833E-17	1.733172E-17
5.568649E+03	5.905073E-17	1.717535E-17
5.578593E+03	5.851076E-17	1.701829E-17
5.588537E+03	5.796965E-17	1.686090E-17
5.598481E+03	5.742857E-17	1.670352E-17
5.608425E+03	5.688863E-17	1.654647E-17
5.618369E+03	5.635088E-17	1.639006E-17
5.628313E+03	5.581630E-17	1.623457E-17
5.638257E+03	5.527125E-17	1.607603E-17
5.648201E+03	5.474585E-17	1.592321E-17
5.658145E+03	5.422617E-17	1.577206E-17
5.668089E+03	5.371295E-17	1.562278E-17
5.678033E+03	5.320686E-17	1.547558E-17
5.687977E+03	5.269467E-17	1.532660E-17
5.697921E+03	5.220475E-17	1.518410E-17
5.707865E+03	5.172363E-17	1.504416E-17
5.717809E+03	5.123832E-17	1.490300E-17
5.727753E+03	5.077621E-17	1.476859E-17
5.737697E+03	5.031092E-17	1.463325E-17
5.747641E+03	4.986920E-17	1.450477E-17
5.757585E+03	4.943804E-17	1.437936E-17
5.767529E+03	4.900484E-17	1.425336E-17
5.777473E+03	4.859549E-17	1.413430E-17
5.787417E+03	4.818467E-17	1.401481E-17
5.797361E+03	4.779770E-17	1.390225E-17
5.807305E+03	4.740965E-17	1.378938E-17
5.817249E+03	4.703311E-17	1.367986E-17
5.827193E+03	4.668023E-17	1.357722E-17
5.837137E+03	4.632661E-17	1.347436E-17
5.847081E+03	4.598446E-17	1.337484E-17
5.857025E+03	4.566557E-17	1.328209E-17
5.866969E+03	4.534606E-17	1.318916E-17
5.876913E+03	4.503778E-17	1.309949E-17
5.886857E+03	4.474061E-17	1.301305E-17
5.896801E+03	4.446596E-17	1.293317E-17
5.906745E+03	4.419058E-17	1.285307E-17
5.916689E+03	4.392593E-17	1.277609E-17
5.926633E+03	4.367183E-17	1.270218E-17
5.936577E+03	4.342815E-17	1.263130E-17
5.946521E+03	4.319472E-17	1.256341E-17
5.956465E+03	4.297136E-17	1.249844E-17
5.966409E+03	4.275791E-17	1.243635E-17
5.976353E+03	4.255420E-17	1.237710E-17
5.986297E+03	4.236005E-17	1.232063E-17
5.996241E+03	4.217528E-17	1.226688E-17
6.006185E+03	4.199971E-17	1.221582E-17
6.016129E+03	4.182240E-17	1.216424E-17
6.026073E+03	4.166475E-17	1.211839E-17
6.036017E+03	4.151576E-17	1.207505E-17
6.045961E+03	4.137524E-17	1.203418E-17
6.055905E+03	4.124302E-17	1.199572E-17
6.065849E+03	4.110835E-17	1.195655E-17
6.075793E+03	4.099219E-17	1.192276E-17
6.085737E+03	4.088374E-17	1.189122E-17
6.095681E+03	4.077236E-17	1.185882E-17
6.105625E+03	4.067880E-17	1.183161E-17
6.115569E+03	4.058196E-17	1.180343E-17
6.125513E+03	4.050244E-17	1.178031E-17
6.135457E+03	4.041926E-17	1.175611E-17
6.145401E+03	4.035289E-17	1.173681E-17
6.155345E+03	4.028244E-17	1.171631E-17
6.165289E+03	4.022830E-17	1.170056E-17
6.175233E+03	4.016960E-17	1.168349E-17
6.185177E+03	4.012664E-17	1.167099E-17
6.195121E+03	4.007862E-17	1.165702E-17
6.205065E+03	4.003551E-17	1.164448E-17
6.215009E+03	4.000723E-17	1.163626E-17
6.224954E+03	3.997301E-17	1.162630E-17
6.234898E+03	3.994276E-17	1.161750E-17
6.244842E+03	3.991614E-17	1.160976E-17
6.254786E+03	3.989279E-17	1.160296E-17
6.264730E+03	3.988250E-17	1.159997E-17
6.274674E+03	3.986456E-17	1.159475E-17
6.284618E+03	3.984876E-17	1.159015E-17
6.294562E+03	3.983467E-17	1.158605E-17
6.304506E+03	3.982190E-17	1.158234E-17
6.314450E+03	3.981001E-17	1.157888E-17
6.324394E+03	3.979857E-17	1.157555E-17
6.334338E+03	3.978714E-17	1.157222E-17
6.344282E+03	3.977529E-17	1.156878E-17
6.354226E+03	3.975243E-17	1.156213E-17
6.364170E+03	3.973836E-17	1.155803E-17
6.374114E+03	3.972251E-17	1.155342E-17
6.384058E+03	3.970443E-17	1.154816E-17
6.394002E+03	3.968370E-17	1.154213E-17
6.403946E+03	3.964980E-17	1.153227E-17
6.413890E+03	3.962250E-17	1.152433E-17
6.423834E+03	3.959131E-17	1.151526E-17
6.433778E+03	3.954581E-17	1.150202E-17
6.443722E+03	3.950576E-17	1.149037E-17
6.453666E+03	3.946079E-17	1.147729E-17
6.463610E+03	3.940060E-17	1.145979E-17
6.473554E+03	3.934497E-17	1.144360E-17
6.483498E+03	3.927369E-17	1.142287E-17
6.493442E+03	3.920657E-17	1.140335E-17
6.503386E+03	3.912354E-17	1.137920E-17
6.513330E+03	3.904442E-17	1.135619E-17
6.523274E+03	3.894935E-17	1.132853E-17
6.533218E+03	3.884826E-17	1.129913E-17
6.543162E+03	3.875108E-17	1.127087E-17
6.553106E+03	3.863823E-17	1.123804E-17
6.563050E+03	3.851975E-17	1.120358E-17
6.572994E+03	3.840559E-17	1.117038E-17
6.582938E+03	3.827653E-17	1.113284E-17
6.592882E+03	3.814264E-17	1.109390E-17
6.602826E+03	3.800428E-17	1.105366E-17
6.612770E+03	3.786186E-17	1.101223E-17
6.622714E+03	3.771581E-17	1.096975E-17
6.632658E+03	3.756662E-17	1.092636E-17
6.642602E+03	3.741476E-17	1.088219E-17
6.652546E+03	3.726080E-17	1.083741E-17
6.662490E+03	3.710527E-17	1.079218E-17
6.672434E+03	3.694877E-17	1.074665E-17
6.682378E+03	3.679186E-17	1.070102E-17
6.692322E+03	3.663515E-17	1.065544E-17
6.702266E+03	3.647926E-17	1.061010E-17
6.712210E+03	3.632478E-17	1.056517E-17
6.722154E+03	3.617234E-17	1.052083E-17
6.732098E+03	3.602253E-17	1.047725E-17
6.742042E+03	3.586684E-17	1.043197E-17
6.751986E+03	3.572409E-17	1.039046E-17
6.761930E+03	3.558571E-17	1.035021E-17
6.771874E+03	3.544326E-17	1.030877E-17
6.781818E+03	3.531527E-17	1.027155E-17
6.791762E+03	3.519322E-17	1.023605E-17
6.801706E+03	3.506870E-17	1.019983E-17
6.811650E+03	3.495996E-17	1.016820E-17
6.821594E+03	3.484967E-17	1.013613E-17
6.831538E+03	3.475591E-17	1.010886E-17
6.841482E+03	3.466139E-17	1.008137E-17
6.851426E+03	3.458404E-17	1.005887E-17
6.861370E+03	3.450657E-17	1.003634E-17
6.871314E+03	3.444678E-17	1.001895E-17
6.881259E+03	3.438740E-17	1.000168E-17
6.891203E+03	3.433735E-17	9.987121E-18
6.901147E+03	3.430552E-17	9.977865E-18
6.911091E+03	3.427460E-17	9.968872E-18
6.921035E+03	3.425339E-17	9.962703E-18
6.930979E+03	3.425066E-17	9.961909E-18
6.940923E+03	3.424903E-17	9.961435E-18
6.950867E+03	3.425720E-17	9.963813E-18
6.960811E+03	3.427516E-17	9.969036E-18
6.970755E+03	3.430284E-17	9.977089E-18
6.980699E+03	3.434017E-17	9.987947E-18
6.990643E+03	3.438703E-17	1.000158E-17
7.000587E+03	3.444331E-17	1.001795E-17
7.010531E+03	3.450884E-17	1.003701E-17
7.020475E+03	3.458346E-17	1.005871E-17
7.030419E+03	3.466697E-17	1.008300E-17
7.040363E+03	3.475917E-17	1.010982E-17
7.050307E+03	3.485983E-17	1.013910E-17
7.060251E+03	3.496871E-17	1.017076E-17
7.070195E+03	3.508555E-17	1.020475E-17
7.080139E+03	3.521009E-17	1.024097E-17
7.090083E+03	3.534207E-17	1.027936E-17
7.100027E+03	3.548119E-17	1.031982E-17
7.109971E+03	3.561806E-17	1.035964E-17
7.119915E+03	3.577056E-17	1.040399E-17
7.129859E+03	3.592932E-17	1.045017E-17
7.139803E+03	3.608483E-17	1.049540E-17
7.149747E+03	3.625520E-17	1.054495E-17
7.159691E+03	3.643096E-17	1.059608E-17
7.169635E+03	3.660245E-17	1.064596E-17
7.179579E+03	3.678810E-17	1.069995E-17
7.189523E+03	3.696884E-17	1.075252E-17
7.199467E+03	3.716331E-17	1.080908E-17
7.209411E+03	3.735227E-17	1.086405E-17
7.219355E+03	3.755458E-17	1.092289E-17
7.229299E+03	3.775086E-17	1.097998E-17
7.239243E+03	3.796019E-17	1.104087E-17
7.249187E+03	3.816301E-17	1.109986E-17
7.259131E+03	3.837868E-17	1.116259E-17
7.269075E+03	3.858745E-17	1.122331E-17
7.279019E+03	3.879898E-17	1.128484E-17
7.288963E+03	3.902324E-17	1.135006E-17
7.298907E+03	3.924017E-17	1.141316E-17
7.308851E+03	3.945970E-17	1.147701E-17
7.318795E+03	3.968183E-17	1.154162E-17
7.328739E+03	3.991685E-17	1.160998E-17
7.338683E+03	4.014432E-17	1.167614E-17
7.348627E+03	4.037450E-17	1.174309E-17
7.358571E+03	4.060750E-17	1.181086E-17
7.368515E+03	4.084342E-17	1.187948E-17
7.378459E+03	4.108238E-17	1.194899E-17
7.388403E+03	4.132454E-17	1.201942E-17
7.398347E+03	4.157005E-17	1.209083E-17
7.408291E+03	4.181909E-17	1.216327E-17
7.418235E+03	4.207185E-17	1.223679E-17
7.428179E+03	4.232853E-17	1.231144E-17
7.438123E+03	4.258932E-17	1.238730E-17
7.448067E+03	4.285446E-17	1.246441E-17
7.458011E+03	4.312412E-17	1.254285E-17
7.467955E+03	4.339852E-17	1.262266E-17
7.477899E+03	4.367789E-17	1.270392E-17
7.487843E+03	4.396238E-17	1.278667E-17
7.497787E+03	4.425221E-17	1.287097E-17
7.507731E+03	4.453594E-17	1.295349E-17
7.517675E+03	4.483683E-17	1.304101E-17
7.527620E+03	4.514349E-17	1.313020E-17
7.537564E+03	4.545604E-17	1.322111E-17
7.547508E+03	4.576263E-17	1.331029E-17
7.557452E+03	4.608710E-17	1.340466E-17
7.567396E+03	4.641761E-17	1.350080E-17
7.577340E+03	4.674196E-17	1.359514E-17
7.587284E+03	4.708440E-17	1.369474E-17
7.597228E+03	4.742037E-17	1.379246E-17
7.607172E+03	4.777442E-17	1.389544E-17
7.617116E+03	4.813409E-17	1.400005E-17
7.627060E+03	4.848646E-17	1.410254E-17
7.637004E+03	4.885658E-17	1.421020E-17
7.646948E+03	4.921864E-17	1.431551E-17
7.656892E+03	4.959800E-17	1.442585E-17
7.666836E+03	4.996833E-17	1.453357E-17
7.676780E+03	5.034211E-17	1.464228E-17
7.686724E+03	5.073218E-17	1.475574E-17
7.696668E+03	5.111141E-17	1.486604E-17
7.706612E+03	5.150602E-17	1.498082E-17
7.716556E+03	5.188836E-17	1.509203E-17
