#wls	flux	fluxerr
1.598322E+03	8.898081E-03	1.014193E-04
1.638280E+03	9.042672E-03	1.025584E-04
1.678238E+03	9.191561E-03	1.037192E-04
1.718196E+03	9.346524E-03	1.049203E-04
1.758154E+03	9.508855E-03	1.061745E-04
1.798112E+03	9.679610E-03	1.074915E-04
1.838070E+03	9.861495E-03	1.088989E-04
1.878028E+03	1.005593E-02	1.104097E-04
1.917986E+03	1.026548E-02	1.120487E-04
1.957944E+03	1.049277E-02	1.138407E-04
1.997902E+03	1.074053E-02	1.158108E-04
2.037860E+03	1.101183E-02	1.179870E-04
2.077818E+03	1.131015E-02	1.204005E-04
2.117776E+03	1.163847E-02	1.230762E-04
2.157734E+03	1.200018E-02	1.260423E-04
2.197692E+03	1.239786E-02	1.293174E-04
2.237650E+03	1.283536E-02	1.329322E-04
2.277609E+03	1.331717E-02	1.369227E-04
2.317567E+03	1.384883E-02	1.413341E-04
2.357525E+03	1.443415E-02	1.461919E-04
2.397483E+03	1.507574E-02	1.515083E-04
2.437441E+03	1.577458E-02	1.572782E-04
2.477399E+03	1.653087E-02	1.634881E-04
2.517357E+03	1.734359E-02	1.701125E-04
2.557315E+03	1.821075E-02	1.771161E-04
2.597273E+03	1.913021E-02	1.844632E-04
2.637231E+03	2.009741E-02	1.920954E-04
2.677189E+03	2.110941E-02	1.999713E-04
2.717147E+03	2.216172E-02	2.080359E-04
2.757105E+03	2.325242E-02	2.162598E-04
2.797063E+03	2.438066E-02	2.246243E-04
2.837021E+03	2.554725E-02	2.331266E-04
2.876979E+03	2.675472E-02	2.417793E-04
2.916937E+03	2.800320E-02	2.505732E-04
2.956895E+03	2.929296E-02	2.595008E-04
2.996853E+03	3.062207E-02	2.685358E-04
3.006843E+03	3.096017E-02	2.708074E-04
3.016832E+03	3.130073E-02	2.730852E-04
3.026822E+03	3.164331E-02	2.753651E-04
3.036811E+03	3.198809E-02	2.776486E-04
3.046801E+03	3.233494E-02	2.799345E-04
3.056790E+03	3.268372E-02	2.822215E-04
3.066780E+03	3.303463E-02	2.845113E-04
3.076769E+03	3.338716E-02	2.867994E-04
3.086759E+03	3.374156E-02	2.890878E-04
3.096748E+03	3.409733E-02	2.913723E-04
3.106738E+03	3.445463E-02	2.936543E-04
3.116727E+03	3.481336E-02	2.959328E-04
3.126717E+03	3.517339E-02	2.982068E-04
3.136706E+03	3.553457E-02	3.004749E-04
3.146696E+03	3.589680E-02	3.027363E-04
3.156685E+03	3.625994E-02	3.049900E-04
3.166675E+03	3.662354E-02	3.072321E-04
3.176665E+03	3.698822E-02	3.094679E-04
3.186654E+03	3.735321E-02	3.116911E-04
3.196644E+03	3.771840E-02	3.139008E-04
3.206633E+03	3.808381E-02	3.160972E-04
3.216623E+03	3.844971E-02	3.182828E-04
3.226612E+03	3.881545E-02	3.204522E-04
3.236602E+03	3.918136E-02	3.226084E-04
3.246591E+03	3.954685E-02	3.247465E-04
3.256581E+03	3.991233E-02	3.268702E-04
3.266570E+03	4.027759E-02	3.289778E-04
3.276560E+03	4.064247E-02	3.310683E-04
3.286549E+03	4.100713E-02	3.331431E-04
3.296539E+03	4.137152E-02	3.352020E-04
3.306528E+03	4.173588E-02	3.372471E-04
3.316518E+03	4.210023E-02	3.392787E-04
3.326507E+03	4.246426E-02	3.412946E-04
3.336497E+03	4.282834E-02	3.432979E-04
3.346486E+03	4.319254E-02	3.452894E-04
3.356476E+03	4.355696E-02	3.472700E-04
3.366465E+03	4.392168E-02	3.492406E-04
3.376455E+03	4.428640E-02	3.511990E-04
3.386444E+03	4.465141E-02	3.531477E-04
3.396434E+03	4.501595E-02	3.550809E-04
3.406423E+03	4.538001E-02	3.569987E-04
3.416413E+03	4.574309E-02	3.588975E-04
3.426402E+03	4.610331E-02	3.607630E-04
3.436392E+03	4.646012E-02	3.625912E-04
3.446381E+03	4.681108E-02	3.643636E-04
3.456371E+03	4.715385E-02	3.660626E-04
3.466360E+03	4.748537E-02	3.676653E-04
3.476350E+03	4.780077E-02	3.691351E-04
3.486339E+03	4.809578E-02	3.704403E-04
3.496329E+03	4.836450E-02	3.715371E-04
3.506318E+03	4.860134E-02	3.723844E-04
3.516308E+03	4.880092E-02	3.729433E-04
3.526297E+03	4.895958E-02	3.731884E-04
3.536287E+03	4.907753E-02	3.731240E-04
3.546276E+03	4.916293E-02	3.728145E-04
3.556266E+03	4.923782E-02	3.724286E-04
3.566255E+03	4.934485E-02	3.722891E-04
3.576245E+03	4.955948E-02	3.729622E-04
3.586234E+03	4.998838E-02	3.752426E-04
3.596224E+03	5.071178E-02	3.797193E-04
3.606213E+03	5.167081E-02	3.859365E-04
3.616203E+03	5.272977E-02	3.928704E-04
3.626192E+03	5.376753E-02	3.996155E-04
3.636182E+03	5.469284E-02	4.054969E-04
3.646172E+03	5.544092E-02	4.100421E-04
3.656161E+03	5.596713E-02	4.129316E-04
3.666151E+03	5.624347E-02	4.139714E-04
3.676140E+03	5.625559E-02	4.130697E-04
3.686130E+03	5.600156E-02	4.102260E-04
3.696119E+03	5.549142E-02	4.055277E-04
3.706109E+03	5.474637E-02	3.991425E-04
3.716098E+03	5.379498E-02	3.912898E-04
3.726088E+03	5.267123E-02	3.822263E-04
3.736077E+03	5.140980E-02	3.722115E-04
3.746067E+03	5.004796E-02	3.615208E-04
3.756056E+03	4.862848E-02	3.504668E-04
3.766046E+03	4.719587E-02	3.393719E-04
3.776035E+03	4.579720E-02	3.285739E-04
3.786025E+03	4.448015E-02	3.184117E-04
3.796014E+03	4.328832E-02	3.091922E-04
3.806004E+03	4.226185E-02	3.011951E-04
3.815993E+03	4.143466E-02	2.946534E-04
3.825983E+03	4.083302E-02	2.897437E-04
3.835972E+03	4.047458E-02	2.865803E-04
3.845962E+03	4.036705E-02	2.852064E-04
3.855951E+03	4.050618E-02	2.855805E-04
3.865941E+03	4.087566E-02	2.875768E-04
3.875930E+03	4.144691E-02	2.909846E-04
3.885920E+03	4.217687E-02	2.954934E-04
3.895909E+03	4.301244E-02	3.007253E-04
3.905899E+03	4.389497E-02	3.062671E-04
3.915888E+03	4.476656E-02	3.117139E-04
3.925878E+03	4.557439E-02	3.166994E-04
3.935867E+03	4.627715E-02	3.209402E-04
3.945857E+03	4.685041E-02	3.242721E-04
3.955846E+03	4.728647E-02	3.266472E-04
3.965836E+03	4.759355E-02	3.281281E-04
3.975825E+03	4.779307E-02	3.288678E-04
3.985815E+03	4.791384E-02	3.290682E-04
3.995804E+03	4.798611E-02	3.289401E-04
4.005794E+03	4.803546E-02	3.286603E-04
4.015783E+03	4.808080E-02	3.283591E-04
4.025773E+03	4.813281E-02	3.281094E-04
4.035762E+03	4.819126E-02	3.279093E-04
4.045752E+03	4.824788E-02	3.277027E-04
4.055741E+03	4.828937E-02	3.273995E-04
4.065731E+03	4.829727E-02	3.268752E-04
4.075720E+03	4.825043E-02	3.259883E-04
4.085710E+03	4.812646E-02	3.245898E-04
4.095700E+03	4.790281E-02	3.225305E-04
4.105689E+03	4.755977E-02	3.196812E-04
4.115679E+03	4.708397E-02	3.159563E-04
4.125668E+03	4.647089E-02	3.113298E-04
4.135658E+03	4.572956E-02	3.058662E-04
4.145647E+03	4.488436E-02	2.997324E-04
4.155637E+03	4.397618E-02	2.932040E-04
4.165626E+03	4.305967E-02	2.866462E-04
4.175616E+03	4.219980E-02	2.804910E-04
4.185605E+03	4.146645E-02	2.751998E-04
4.195595E+03	4.092746E-02	2.712182E-04
4.205584E+03	4.064042E-02	2.689212E-04
4.215574E+03	4.064549E-02	2.685668E-04
4.225563E+03	4.096140E-02	2.702702E-04
4.235553E+03	4.157695E-02	2.739492E-04
4.245542E+03	4.244302E-02	2.792727E-04
4.255532E+03	4.347852E-02	2.857014E-04
4.265521E+03	4.457854E-02	2.925432E-04
4.275511E+03	4.562590E-02	2.990290E-04
4.285500E+03	4.650334E-02	3.043932E-04
4.295490E+03	4.711408E-02	3.080079E-04
4.305479E+03	4.739550E-02	3.094711E-04
4.315469E+03	4.732419E-02	3.086383E-04
4.325458E+03	4.691098E-02	3.055883E-04
4.335448E+03	4.619627E-02	3.005915E-04
4.345437E+03	4.524983E-02	2.941077E-04
4.355427E+03	4.416739E-02	2.867630E-04
4.365416E+03	4.306930E-02	2.793398E-04
4.375406E+03	4.209212E-02	2.727226E-04
4.385395E+03	4.135656E-02	2.676895E-04
4.395385E+03	4.088907E-02	2.644065E-04
4.405374E+03	4.063658E-02	2.625251E-04
4.415364E+03	4.054354E-02	2.616826E-04
4.425353E+03	4.056845E-02	2.616084E-04
4.435343E+03	4.068113E-02	2.621058E-04
4.445332E+03	4.085830E-02	2.630233E-04
4.455322E+03	4.108138E-02	2.642404E-04
4.465311E+03	4.133171E-02	2.656362E-04
4.475301E+03	4.159132E-02	2.670950E-04
4.485290E+03	4.184325E-02	2.685077E-04
4.495280E+03	4.206919E-02	2.697570E-04
4.505269E+03	4.224744E-02	2.707041E-04
4.515259E+03	4.235492E-02	2.712019E-04
4.525248E+03	4.237252E-02	2.711289E-04
4.535238E+03	4.228925E-02	2.704158E-04
4.545228E+03	4.210507E-02	2.690637E-04
4.555217E+03	4.183019E-02	2.671386E-04
4.565207E+03	4.147743E-02	2.647233E-04
4.575196E+03	4.105650E-02	2.618804E-04
4.585186E+03	4.057244E-02	2.586425E-04
4.595175E+03	4.002290E-02	2.549952E-04
4.605165E+03	3.939931E-02	2.508841E-04
4.615154E+03	3.869133E-02	2.462441E-04
4.625144E+03	3.789420E-02	2.410453E-04
4.635133E+03	3.701377E-02	2.353255E-04
4.645123E+03	3.606695E-02	2.291927E-04
4.655112E+03	3.508442E-02	2.228420E-04
4.665102E+03	3.410714E-02	2.165334E-04
4.675091E+03	3.318506E-02	2.105835E-04
4.685081E+03	3.237288E-02	2.053385E-04
4.695070E+03	3.172695E-02	2.011545E-04
4.705060E+03	3.129908E-02	1.983582E-04
4.715049E+03	3.112869E-02	1.971974E-04
4.725039E+03	3.123966E-02	1.978213E-04
4.735028E+03	3.163622E-02	2.002544E-04
4.745018E+03	3.230004E-02	2.043786E-04
4.755007E+03	3.318661E-02	2.099106E-04
4.764997E+03	3.422789E-02	2.164186E-04
4.774986E+03	3.533880E-02	2.233640E-04
4.784976E+03	3.642706E-02	2.301632E-04
4.794965E+03	3.740194E-02	2.362436E-04
4.804955E+03	3.818564E-02	2.411147E-04
4.814944E+03	3.872506E-02	2.444425E-04
4.824934E+03	3.899609E-02	2.460764E-04
4.834923E+03	3.900193E-02	2.460382E-04
4.844913E+03	3.877206E-02	2.445152E-04
4.854902E+03	3.835300E-02	2.418019E-04
4.864892E+03	3.780072E-02	2.382522E-04
4.874881E+03	3.717179E-02	2.342230E-04
4.884871E+03	3.651764E-02	2.300386E-04
4.894860E+03	3.587897E-02	2.259554E-04
4.904850E+03	3.528269E-02	2.221425E-04
4.914839E+03	3.474387E-02	2.186946E-04
4.924829E+03	3.426436E-02	2.156229E-04
4.934818E+03	3.383839E-02	2.128907E-04
4.944808E+03	3.345157E-02	2.104073E-04
4.954797E+03	3.308648E-02	2.080628E-04
4.964787E+03	3.272559E-02	2.057469E-04
4.974776E+03	3.235373E-02	2.033642E-04
4.984766E+03	3.196162E-02	2.008563E-04
4.994756E+03	3.154892E-02	1.982211E-04
5.004745E+03	3.112313E-02	1.955059E-04
5.014735E+03	3.069859E-02	1.928006E-04
5.024724E+03	3.029382E-02	1.902215E-04
5.034714E+03	2.992864E-02	1.878929E-04
5.044703E+03	2.961964E-02	1.859188E-04
5.054693E+03	2.937742E-02	1.843655E-04
5.064682E+03	2.920512E-02	1.832524E-04
5.074672E+03	2.909868E-02	1.825538E-04
5.084661E+03	2.904756E-02	1.822035E-04
5.094651E+03	2.903594E-02	1.821020E-04
5.104640E+03	2.904541E-02	1.821338E-04
5.114630E+03	2.905770E-02	1.821843E-04
5.124619E+03	2.905745E-02	1.821572E-04
5.134609E+03	2.903269E-02	1.819775E-04
5.144598E+03	2.897742E-02	1.816078E-04
5.154588E+03	2.889071E-02	1.810422E-04
5.164577E+03	2.877517E-02	1.802974E-04
5.174567E+03	2.863621E-02	1.794070E-04
5.184556E+03	2.848012E-02	1.784107E-04
5.194546E+03	2.831238E-02	1.773429E-04
5.204535E+03	2.813796E-02	1.762347E-04
5.214525E+03	2.795955E-02	1.751030E-04
5.224514E+03	2.777889E-02	1.739586E-04
5.234504E+03	2.759589E-02	1.728011E-04
5.244493E+03	2.740853E-02	1.716177E-04
5.254483E+03	2.721374E-02	1.703893E-04
5.264472E+03	2.700759E-02	1.690914E-04
5.274462E+03	2.678651E-02	1.677015E-04
5.284451E+03	2.654785E-02	1.662031E-04
5.294441E+03	2.629125E-02	1.645939E-04
5.304430E+03	2.601964E-02	1.628923E-04
5.314420E+03	2.573857E-02	1.611331E-04
5.324409E+03	2.545634E-02	1.593683E-04
5.334399E+03	2.518108E-02	1.576485E-04
5.344388E+03	2.491867E-02	1.560108E-04
5.354378E+03	2.467038E-02	1.544630E-04
5.364367E+03	2.443368E-02	1.529894E-04
5.374357E+03	2.420425E-02	1.515629E-04
5.384346E+03	2.397654E-02	1.501487E-04
5.394336E+03	2.374655E-02	1.487217E-04
5.404325E+03	2.351538E-02	1.472889E-04
5.414315E+03	2.329054E-02	1.458973E-04
5.424304E+03	2.308322E-02	1.446170E-04
5.434294E+03	2.290572E-02	1.435250E-04
5.444284E+03	2.276673E-02	1.426757E-04
5.454273E+03	2.266610E-02	1.420683E-04
5.464263E+03	2.258669E-02	1.415953E-04
5.474252E+03	2.248804E-02	1.410029E-04
5.484242E+03	2.231639E-02	1.399540E-04
5.494231E+03	2.204925E-02	1.383070E-04
5.504221E+03	2.172896E-02	1.363271E-04
5.514210E+03	2.141164E-02	1.343662E-04
5.524200E+03	2.113570E-02	1.326653E-04
5.534189E+03	2.091625E-02	1.313194E-04
5.544179E+03	2.075301E-02	1.303267E-04
5.554168E+03	2.063546E-02	1.296215E-04
5.564158E+03	2.054623E-02	1.290947E-04
5.574147E+03	2.046597E-02	1.286248E-04
5.584137E+03	2.037848E-02	1.281100E-04
5.594126E+03	2.027282E-02	1.274814E-04
5.604116E+03	2.014465E-02	1.267114E-04
5.614105E+03	1.999437E-02	1.258026E-04
5.624095E+03	1.982748E-02	1.247892E-04
5.634084E+03	1.965174E-02	1.237200E-04
5.644074E+03	1.947634E-02	1.226528E-04
5.654063E+03	1.930932E-02	1.216381E-04
5.664053E+03	1.915755E-02	1.207193E-04
5.674042E+03	1.902684E-02	1.199330E-04
5.684032E+03	1.892128E-02	1.193051E-04
5.694021E+03	1.884410E-02	1.188560E-04
5.704011E+03	1.879691E-02	1.185961E-04
5.714000E+03	1.878082E-02	1.185326E-04
5.723990E+03	1.879627E-02	1.186682E-04
5.733979E+03	1.884238E-02	1.189977E-04
5.743969E+03	1.891682E-02	1.195065E-04
5.753958E+03	1.901574E-02	1.201704E-04
5.763948E+03	1.913369E-02	1.209550E-04
5.773937E+03	1.926263E-02	1.218097E-04
5.783927E+03	1.939319E-02	1.226751E-04
5.793916E+03	1.951561E-02	1.234896E-04
5.803906E+03	1.962003E-02	1.241907E-04
5.813895E+03	1.969786E-02	1.247237E-04
5.823885E+03	1.974337E-02	1.250522E-04
5.833874E+03	1.975432E-02	1.251619E-04
5.843864E+03	1.973213E-02	1.250615E-04
5.853853E+03	1.968217E-02	1.247848E-04
5.863843E+03	1.961246E-02	1.243824E-04
5.873832E+03	1.953253E-02	1.239148E-04
5.883822E+03	1.944978E-02	1.234288E-04
5.893811E+03	1.936949E-02	1.229579E-04
5.903801E+03	1.929288E-02	1.225098E-04
5.913791E+03	1.921811E-02	1.220729E-04
5.923780E+03	1.914134E-02	1.216228E-04
5.933770E+03	1.905809E-02	1.211309E-04
5.943759E+03	1.896497E-02	1.205758E-04
5.953749E+03	1.886123E-02	1.199525E-04
5.963738E+03	1.874814E-02	1.192691E-04
5.973728E+03	1.862867E-02	1.185444E-04
5.983717E+03	1.850594E-02	1.177982E-04
5.993707E+03	1.838322E-02	1.170515E-04
6.003696E+03	1.826325E-02	1.163215E-04
6.013686E+03	1.814853E-02	1.156243E-04
6.023675E+03	1.804049E-02	1.149690E-04
6.033665E+03	1.793981E-02	1.143600E-04
6.043654E+03	1.784683E-02	1.137995E-04
6.053644E+03	1.776029E-02	1.132795E-04
6.063633E+03	1.767882E-02	1.127913E-04
6.073623E+03	1.759901E-02	1.123133E-04
6.083612E+03	1.751778E-02	1.118257E-04
6.093602E+03	1.743030E-02	1.112977E-04
6.103591E+03	1.733147E-02	1.106968E-04
6.113581E+03	1.721665E-02	1.099932E-04
6.123570E+03	1.708154E-02	1.091593E-04
6.133560E+03	1.692364E-02	1.081792E-04
6.143549E+03	1.674302E-02	1.070532E-04
6.153539E+03	1.654252E-02	1.057992E-04
6.163528E+03	1.632799E-02	1.044548E-04
6.173518E+03	1.610810E-02	1.030753E-04
6.183507E+03	1.589207E-02	1.017196E-04
6.193497E+03	1.568953E-02	1.004496E-04
6.203486E+03	1.550868E-02	9.931775E-05
6.213476E+03	1.535544E-02	9.836213E-05
6.223465E+03	1.523205E-02	9.759730E-05
6.233455E+03	1.513777E-02	9.701868E-05
6.243444E+03	1.506924E-02	9.660481E-05
6.253434E+03	1.502013E-02	9.631532E-05
6.263423E+03	1.498186E-02	9.609529E-05
6.273413E+03	1.494591E-02	9.589012E-05
6.283402E+03	1.490392E-02	9.564616E-05
6.293392E+03	1.484966E-02	9.532349E-05
6.303381E+03	1.478287E-02	9.492031E-05
6.313371E+03	1.471024E-02	9.447960E-05
6.323360E+03	1.464649E-02	9.409589E-05
6.333350E+03	1.461594E-02	9.392555E-05
6.343339E+03	1.465015E-02	9.417166E-05
6.353329E+03	1.478460E-02	9.506271E-05
6.363319E+03	1.505252E-02	9.681297E-05
6.373308E+03	1.547955E-02	9.958818E-05
6.383298E+03	1.607920E-02	1.034763E-04
6.393287E+03	1.684680E-02	1.084482E-04
6.403277E+03	1.775331E-02	1.143180E-04
6.413266E+03	1.874350E-02	1.207306E-04
6.423256E+03	1.974265E-02	1.272052E-04
6.433245E+03	2.066480E-02	1.331879E-04
6.443235E+03	2.142375E-02	1.381222E-04
6.453224E+03	2.194639E-02	1.415359E-04
6.463214E+03	2.218497E-02	1.431194E-04
6.473203E+03	2.212728E-02	1.427920E-04
6.483193E+03	2.180086E-02	1.407299E-04
6.493182E+03	2.127869E-02	1.374024E-04
6.503172E+03	2.067728E-02	1.335609E-04
6.513161E+03	2.015851E-02	1.302509E-04
6.523151E+03	1.989373E-02	1.285805E-04
6.533140E+03	1.992353E-02	1.288133E-04
6.543130E+03	2.012952E-02	1.301855E-04
6.553119E+03	2.038075E-02	1.318510E-04
6.563109E+03	2.058685E-02	1.332253E-04
6.573098E+03	2.069488E-02	1.339651E-04
6.583088E+03	2.068276E-02	1.339270E-04
6.593077E+03	2.055134E-02	1.331158E-04
6.603067E+03	2.031593E-02	1.316299E-04
6.613056E+03	1.999707E-02	1.296017E-04
6.623046E+03	1.961744E-02	1.271780E-04
6.633035E+03	1.919857E-02	1.244978E-04
6.643025E+03	1.875816E-02	1.216758E-04
6.653014E+03	1.831122E-02	1.188094E-04
6.663004E+03	1.786885E-02	1.159705E-04
6.672993E+03	1.743873E-02	1.132090E-04
6.682983E+03	1.702640E-02	1.105610E-04
6.692972E+03	1.663443E-02	1.080432E-04
6.702962E+03	1.626463E-02	1.056676E-04
6.712951E+03	1.591737E-02	1.034367E-04
6.722941E+03	1.559199E-02	1.013463E-04
6.732930E+03	1.528796E-02	9.939304E-05
6.742920E+03	1.500367E-02	9.756670E-05
6.752909E+03	1.473809E-02	9.586058E-05
6.762899E+03	1.448988E-02	9.426612E-05
6.772888E+03	1.425748E-02	9.277323E-05
6.782878E+03	1.403964E-02	9.137383E-05
6.792867E+03	1.383530E-02	9.006117E-05
6.802857E+03	1.364363E-02	8.882984E-05
6.812847E+03	1.346406E-02	8.767624E-05
6.822836E+03	1.329616E-02	8.659763E-05
6.832826E+03	1.314001E-02	8.559455E-05
6.842815E+03	1.299593E-02	8.466915E-05
6.852805E+03	1.286445E-02	8.382492E-05
6.862794E+03	1.274602E-02	8.306489E-05
6.872784E+03	1.264061E-02	8.238890E-05
6.882773E+03	1.254805E-02	8.179592E-05
6.892763E+03	1.246785E-02	8.128275E-05
6.902752E+03	1.239826E-02	8.083804E-05
6.912742E+03	1.233773E-02	8.045164E-05
6.922731E+03	1.228410E-02	8.010965E-05
6.932721E+03	1.223490E-02	7.979583E-05
6.942710E+03	1.218818E-02	7.949758E-05
6.952700E+03	1.214182E-02	7.920110E-05
6.962689E+03	1.209407E-02	7.889490E-05
6.972679E+03	1.204407E-02	7.857341E-05
6.982668E+03	1.199118E-02	7.823251E-05
6.992658E+03	1.193495E-02	7.786921E-05
7.002647E+03	1.187571E-02	7.748574E-05
7.012637E+03	1.181346E-02	7.708205E-05
7.022626E+03	1.174928E-02	7.666523E-05
7.032616E+03	1.168380E-02	7.623949E-05
7.042605E+03	1.161777E-02	7.580961E-05
7.052595E+03	1.155231E-02	7.538299E-05
7.062584E+03	1.148805E-02	7.496378E-05
7.072574E+03	1.142591E-02	7.455795E-05
7.082563E+03	1.136599E-02	7.416627E-05
7.092553E+03	1.130907E-02	7.379375E-05
7.102542E+03	1.125510E-02	7.344006E-05
7.112532E+03	1.120380E-02	7.310355E-05
7.122521E+03	1.115536E-02	7.278530E-05
7.132511E+03	1.110870E-02	7.247843E-05
7.142500E+03	1.106385E-02	7.218307E-05
7.152490E+03	1.101945E-02	7.189046E-05
7.162479E+03	1.097515E-02	7.159827E-05
7.172469E+03	1.093026E-02	7.130198E-05
7.182458E+03	1.088382E-02	7.099545E-05
7.192448E+03	1.083568E-02	7.067768E-05
7.202437E+03	1.078583E-02	7.034872E-05
7.212427E+03	1.073385E-02	7.000569E-05
7.222416E+03	1.067999E-02	6.965039E-05
7.232406E+03	1.062435E-02	6.928347E-05
7.242395E+03	1.056703E-02	6.890560E-05
7.252385E+03	1.050794E-02	6.851618E-05
7.262375E+03	1.044740E-02	6.811744E-05
7.272364E+03	1.038563E-02	6.771072E-05
7.282354E+03	1.032268E-02	6.729650E-05
7.292343E+03	1.025909E-02	6.687821E-05
7.302333E+03	1.019523E-02	6.645836E-05
7.312322E+03	1.013131E-02	6.603837E-05
7.322312E+03	1.006791E-02	6.562202E-05
7.332301E+03	1.000535E-02	6.521138E-05
7.342291E+03	9.943652E-03	6.480669E-05
7.352280E+03	9.883164E-03	6.441022E-05
7.362270E+03	9.823913E-03	6.402218E-05
7.372259E+03	9.765834E-03	6.364217E-05
7.382249E+03	9.708781E-03	6.326928E-05
7.392238E+03	9.652535E-03	6.290209E-05
7.402228E+03	9.596820E-03	6.253885E-05
7.412217E+03	9.541506E-03	6.217873E-05
7.422207E+03	9.485848E-03	6.181692E-05
7.432196E+03	9.429826E-03	6.145330E-05
7.442186E+03	9.372999E-03	6.108504E-05
7.452175E+03	9.314497E-03	6.070650E-05
7.462165E+03	9.254356E-03	6.031793E-05
7.472154E+03	9.191435E-03	5.991191E-05
7.482144E+03	9.125718E-03	5.948838E-05
7.492133E+03	9.056132E-03	5.904035E-05
7.502123E+03	8.982910E-03	5.856936E-05
7.512112E+03	8.905425E-03	5.807133E-05
7.522102E+03	8.824365E-03	5.755077E-05
7.532091E+03	8.740300E-03	5.701139E-05
7.542081E+03	8.654656E-03	5.646252E-05
7.552070E+03	8.568986E-03	5.591427E-05
7.562060E+03	8.485480E-03	5.538097E-05
7.572049E+03	8.406634E-03	5.487893E-05
7.582039E+03	8.335276E-03	5.442665E-05
7.592028E+03	8.273840E-03	5.404008E-05
7.602018E+03	8.224858E-03	5.373583E-05
7.612007E+03	8.189797E-03	5.352357E-05
7.621997E+03	8.170059E-03	5.341260E-05
7.631986E+03	8.165760E-03	5.340381E-05
7.641976E+03	8.175811E-03	5.349022E-05
7.651965E+03	8.198310E-03	5.365954E-05
7.661955E+03	8.230690E-03	5.389512E-05
7.671944E+03	8.269572E-03	5.417498E-05
7.681934E+03	8.311072E-03	5.447378E-05
7.691923E+03	8.351519E-03	5.476754E-05
7.701913E+03	8.387943E-03	5.503685E-05
7.711903E+03	8.417191E-03	5.526102E-05
7.721892E+03	8.437397E-03	5.542778E-05
7.731882E+03	8.447493E-03	5.553006E-05
7.741871E+03	8.446579E-03	5.556187E-05
7.751861E+03	8.434948E-03	5.552503E-05
