#wls	flux	fluxerr
1.598322E+03	4.113307E-03	5.405090E-06
1.638280E+03	4.149576E-03	5.452749E-06
1.678238E+03	4.188627E-03	5.504062E-06
1.718196E+03	4.231083E-03	5.559851E-06
1.758154E+03	4.277592E-03	5.620964E-06
1.798112E+03	4.328818E-03	5.688275E-06
1.838070E+03	4.385992E-03	5.763403E-06
1.878028E+03	4.449287E-03	5.846573E-06
1.917986E+03	4.520269E-03	5.939844E-06
1.957944E+03	4.599719E-03	6.044241E-06
1.997902E+03	4.688444E-03	6.160825E-06
2.037860E+03	4.788139E-03	6.291823E-06
2.077818E+03	4.899704E-03	6.438416E-06
2.117776E+03	5.024356E-03	6.602206E-06
2.157734E+03	5.163948E-03	6.785624E-06
2.197692E+03	5.319518E-03	6.990036E-06
2.237650E+03	5.493626E-03	7.218803E-06
2.277609E+03	5.688335E-03	7.474636E-06
2.317567E+03	5.907302E-03	7.762337E-06
2.357525E+03	6.153086E-03	8.085267E-06
2.397483E+03	6.428014E-03	8.446482E-06
2.437441E+03	6.733212E-03	8.847458E-06
2.477399E+03	7.070426E-03	9.290484E-06
2.517357E+03	7.440760E-03	9.777003E-06
2.557315E+03	7.845586E-03	1.030881E-05
2.597273E+03	8.286547E-03	1.088805E-05
2.637231E+03	8.765202E-03	1.151677E-05
2.677189E+03	9.284349E-03	1.219861E-05
2.717147E+03	9.846010E-03	1.293622E-05
2.757105E+03	1.045307E-02	1.373334E-05
2.797063E+03	1.110999E-02	1.459581E-05
2.837021E+03	1.182000E-02	1.552782E-05
2.876979E+03	1.258746E-02	1.653503E-05
2.916937E+03	1.341681E-02	1.762318E-05
2.956895E+03	1.431317E-02	1.879890E-05
2.996853E+03	1.528124E-02	2.006823E-05
3.006843E+03	1.553485E-02	2.040068E-05
3.016832E+03	1.579341E-02	2.073958E-05
3.026822E+03	1.605688E-02	2.108488E-05
3.036811E+03	1.632522E-02	2.143652E-05
3.046801E+03	1.659874E-02	2.179491E-05
3.056790E+03	1.687739E-02	2.215998E-05
3.066780E+03	1.716113E-02	2.253166E-05
3.076769E+03	1.744989E-02	2.290987E-05
3.086759E+03	1.774399E-02	2.329503E-05
3.096748E+03	1.804338E-02	2.368705E-05
3.106738E+03	1.834801E-02	2.408586E-05
3.116727E+03	1.865818E-02	2.449187E-05
3.126717E+03	1.897384E-02	2.490501E-05
3.136706E+03	1.929531E-02	2.532568E-05
3.146696E+03	1.962181E-02	2.575285E-05
3.156685E+03	1.995440E-02	2.618791E-05
3.166675E+03	2.029266E-02	2.663033E-05
3.176665E+03	2.063658E-02	2.708005E-05
3.186654E+03	2.098613E-02	2.753704E-05
3.196644E+03	2.134204E-02	2.800226E-05
3.206633E+03	2.170394E-02	2.847522E-05
3.216623E+03	2.207186E-02	2.895594E-05
3.226612E+03	2.244583E-02	2.944447E-05
3.236602E+03	2.282631E-02	2.994138E-05
3.246591E+03	2.321336E-02	3.044678E-05
3.256581E+03	2.360752E-02	3.096135E-05
3.266570E+03	2.400821E-02	3.148431E-05
3.276560E+03	2.441597E-02	3.201640E-05
3.286549E+03	2.483148E-02	3.255846E-05
3.296539E+03	2.525503E-02	3.311091E-05
3.306528E+03	2.568631E-02	3.367331E-05
3.316518E+03	2.612649E-02	3.424720E-05
3.326507E+03	2.657616E-02	3.483333E-05
3.336497E+03	2.703519E-02	3.543154E-05
3.346486E+03	2.750469E-02	3.604328E-05
3.356476E+03	2.798556E-02	3.666970E-05
3.366465E+03	2.847874E-02	3.731208E-05
3.376455E+03	2.898498E-02	3.797134E-05
3.386444E+03	2.950515E-02	3.864864E-05
3.396434E+03	3.004058E-02	3.934573E-05
3.406423E+03	3.059277E-02	4.006456E-05
3.416413E+03	3.116295E-02	4.080674E-05
3.426402E+03	3.175280E-02	4.157447E-05
3.436392E+03	3.236333E-02	4.236908E-05
3.446381E+03	3.299595E-02	4.319240E-05
3.456371E+03	3.365235E-02	4.404664E-05
3.466360E+03	3.433339E-02	4.493296E-05
3.476350E+03	3.504008E-02	4.585267E-05
3.486339E+03	3.577318E-02	4.680677E-05
3.496329E+03	3.653309E-02	4.779580E-05
3.506318E+03	3.731911E-02	4.881884E-05
3.516308E+03	3.813159E-02	4.987642E-05
3.526297E+03	3.897002E-02	5.096784E-05
3.536287E+03	3.983554E-02	5.209466E-05
3.546276E+03	4.073288E-02	5.326307E-05
3.556266E+03	4.167003E-02	5.448358E-05
3.566255E+03	4.266310E-02	5.577727E-05
3.576245E+03	4.373442E-02	5.717339E-05
3.586234E+03	4.491179E-02	5.870831E-05
3.596224E+03	4.621316E-02	6.040556E-05
3.606213E+03	4.760740E-02	6.222450E-05
3.616203E+03	4.903645E-02	6.408931E-05
3.626192E+03	5.043635E-02	6.591653E-05
3.636182E+03	5.174730E-02	6.762809E-05
3.646172E+03	5.291624E-02	6.915467E-05
3.656161E+03	5.389956E-02	7.043927E-05
3.666151E+03	5.466066E-02	7.143403E-05
3.676140E+03	5.517065E-02	7.210115E-05
3.686130E+03	5.540845E-02	7.241303E-05
3.696119E+03	4.288777E-02	5.605097E-05
3.698117E+03	4.311935E-02	5.635390E-05
3.700115E+03	4.335068E-02	5.665649E-05
3.702113E+03	4.360201E-02	5.698526E-05
3.704111E+03	4.385065E-02	5.731052E-05
3.706109E+03	4.413714E-02	5.768525E-05
3.708106E+03	4.440223E-02	5.803204E-05
3.710104E+03	4.466867E-02	5.838060E-05
3.712102E+03	4.492342E-02	5.871390E-05
3.714100E+03	4.515196E-02	5.901294E-05
3.716098E+03	4.538103E-02	5.931270E-05
3.718096E+03	4.558792E-02	5.958347E-05
3.720094E+03	4.574916E-02	5.979460E-05
3.722092E+03	4.589396E-02	5.998424E-05
3.724090E+03	4.600692E-02	6.013228E-05
3.726088E+03	4.607189E-02	6.021759E-05
3.728086E+03	4.610105E-02	6.025611E-05
3.730083E+03	4.612759E-02	6.029121E-05
3.732081E+03	4.611513E-02	6.027534E-05
3.734079E+03	4.604509E-02	6.018423E-05
3.736077E+03	4.594503E-02	6.005385E-05
3.738075E+03	4.583111E-02	5.990539E-05
3.740073E+03	4.566700E-02	5.969131E-05
3.742071E+03	4.543657E-02	5.939054E-05
3.744069E+03	4.516492E-02	5.903590E-05
3.746067E+03	4.488846E-02	5.867497E-05
3.748065E+03	4.460718E-02	5.830773E-05
3.750062E+03	4.429605E-02	5.790148E-05
3.752060E+03	4.393820E-02	5.743413E-05
3.754058E+03	4.358770E-02	5.697640E-05
3.756056E+03	4.326063E-02	5.654929E-05
3.758054E+03	4.294011E-02	5.613074E-05
3.760052E+03	4.262289E-02	5.571649E-05
3.762050E+03	4.232831E-02	5.533183E-05
3.764048E+03	4.205150E-02	5.497039E-05
3.766046E+03	4.178119E-02	5.461745E-05
3.768044E+03	4.152542E-02	5.428351E-05
3.770041E+03	4.130912E-02	5.400116E-05
3.772039E+03	4.108481E-02	5.370834E-05
3.774037E+03	4.085653E-02	5.341031E-05
3.776035E+03	4.062346E-02	5.310602E-05
3.778033E+03	4.035911E-02	5.276084E-05
3.780031E+03	4.010769E-02	5.243255E-05
3.782029E+03	3.985874E-02	5.210748E-05
3.784027E+03	3.959943E-02	5.176886E-05
3.786025E+03	3.937470E-02	5.147543E-05
3.788023E+03	3.913237E-02	5.115900E-05
3.790020E+03	3.889331E-02	5.084684E-05
3.792018E+03	3.871528E-02	5.061444E-05
3.794016E+03	3.857732E-02	5.043443E-05
3.796014E+03	3.846340E-02	5.028585E-05
3.798012E+03	3.833345E-02	5.011629E-05
3.800010E+03	3.817149E-02	4.990489E-05
3.802008E+03	3.804078E-02	4.973433E-05
3.804006E+03	3.795164E-02	4.961812E-05
3.806004E+03	3.780014E-02	4.942037E-05
3.808002E+03	3.765346E-02	4.922891E-05
3.810000E+03	3.753237E-02	4.907091E-05
3.811997E+03	3.738252E-02	4.887530E-05
3.813995E+03	3.724630E-02	4.869750E-05
3.815993E+03	3.712046E-02	4.853325E-05
3.817991E+03	3.697550E-02	4.834402E-05
3.819989E+03	3.682419E-02	4.814647E-05
3.821987E+03	3.667134E-02	4.794689E-05
3.823985E+03	3.652090E-02	4.775046E-05
3.825983E+03	3.638007E-02	4.756659E-05
3.827981E+03	3.621619E-02	4.735257E-05
3.829979E+03	3.608579E-02	4.718232E-05
3.831976E+03	3.597610E-02	4.703914E-05
3.833974E+03	3.587678E-02	4.690950E-05
3.835972E+03	3.577428E-02	4.677570E-05
3.837970E+03	3.572741E-02	4.671464E-05
3.839968E+03	3.568844E-02	4.666390E-05
3.841966E+03	3.565105E-02	4.661521E-05
3.843964E+03	3.564376E-02	4.660588E-05
3.845962E+03	3.564991E-02	4.661410E-05
3.847960E+03	3.565597E-02	4.662221E-05
3.849958E+03	3.571826E-02	4.670384E-05
3.851955E+03	3.578913E-02	4.679667E-05
3.853953E+03	3.589949E-02	4.694114E-05
3.855951E+03	3.605326E-02	4.714236E-05
3.857949E+03	3.624795E-02	4.739708E-05
3.859947E+03	3.643374E-02	4.764015E-05
3.861945E+03	3.657897E-02	4.783019E-05
3.863943E+03	3.669795E-02	4.798589E-05
3.865941E+03	3.692027E-02	4.827671E-05
3.867939E+03	3.729471E-02	4.876644E-05
3.869937E+03	3.773669E-02	4.934446E-05
3.871934E+03	3.817743E-02	4.992087E-05
3.873932E+03	3.865087E-02	5.054003E-05
3.875930E+03	3.914668E-02	5.118844E-05
3.877928E+03	3.964675E-02	5.184240E-05
3.879926E+03	4.011323E-02	5.245243E-05
3.881924E+03	4.062649E-02	5.312363E-05
3.883922E+03	4.115656E-02	5.381679E-05
3.885920E+03	4.168216E-02	5.450411E-05
3.887918E+03	4.221039E-02	5.519485E-05
3.889916E+03	4.276639E-02	5.592189E-05
3.891913E+03	4.331006E-02	5.663280E-05
3.893911E+03	4.381155E-02	5.728854E-05
3.895909E+03	4.429841E-02	5.792515E-05
3.897907E+03	4.473537E-02	5.849648E-05
3.899905E+03	4.514362E-02	5.903026E-05
3.901903E+03	4.560789E-02	5.963729E-05
3.903901E+03	4.610930E-02	6.029286E-05
3.905899E+03	4.656710E-02	6.089140E-05
3.907897E+03	4.695713E-02	6.140130E-05
3.909895E+03	4.729274E-02	6.184003E-05
3.911893E+03	4.762878E-02	6.227930E-05
3.913890E+03	4.789329E-02	6.262504E-05
3.915888E+03	4.810595E-02	6.290294E-05
3.917886E+03	4.831364E-02	6.317435E-05
3.919884E+03	4.849611E-02	6.341276E-05
3.921882E+03	4.865496E-02	6.362026E-05
3.923880E+03	4.876133E-02	6.375913E-05
3.925878E+03	4.882388E-02	6.384069E-05
3.927876E+03	4.886605E-02	6.389558E-05
3.929874E+03	4.891747E-02	6.396256E-05
3.931872E+03	4.894309E-02	6.399578E-05
3.933869E+03	4.891180E-02	6.395459E-05
3.935867E+03	4.886961E-02	6.389911E-05
3.937865E+03	4.880875E-02	6.381922E-05
3.939863E+03	4.868337E-02	6.365495E-05
3.941861E+03	4.857903E-02	6.351817E-05
3.943859E+03	4.841806E-02	6.330735E-05
3.945857E+03	4.826960E-02	6.311285E-05
3.947855E+03	4.811115E-02	6.290529E-05
3.949853E+03	4.790858E-02	6.264004E-05
3.951851E+03	4.767903E-02	6.233950E-05
3.953848E+03	4.744657E-02	6.203513E-05
3.955846E+03	4.717709E-02	6.168236E-05
3.957844E+03	4.692872E-02	6.135717E-05
3.959842E+03	4.669058E-02	6.104536E-05
3.961840E+03	4.645184E-02	6.073275E-05
3.963838E+03	4.624726E-02	6.046479E-05
3.965836E+03	4.604441E-02	6.019907E-05
3.967834E+03	4.580462E-02	5.988506E-05
3.969832E+03	4.555962E-02	5.956423E-05
3.971830E+03	4.535180E-02	5.929200E-05
3.973827E+03	4.515342E-02	5.903210E-05
3.975825E+03	4.494744E-02	5.876226E-05
3.977823E+03	4.474011E-02	5.849063E-05
3.979821E+03	4.454290E-02	5.823224E-05
3.981819E+03	4.434433E-02	5.797206E-05
3.983817E+03	4.409668E-02	5.764770E-05
3.985815E+03	4.383308E-02	5.730249E-05
3.987813E+03	4.356739E-02	5.695453E-05
3.989811E+03	4.330653E-02	5.661289E-05
3.991809E+03	4.312108E-02	5.636983E-05
3.993807E+03	4.311758E-02	5.636459E-05
3.995804E+03	4.315926E-02	5.641842E-05
3.997802E+03	4.312192E-02	5.636893E-05
3.999800E+03	4.306697E-02	5.629641E-05
4.001798E+03	4.309701E-02	5.633496E-05
4.003796E+03	4.315603E-02	5.641140E-05
4.005794E+03	4.319739E-02	5.646473E-05
4.007792E+03	4.321876E-02	5.649192E-05
4.009790E+03	4.330809E-02	5.660792E-05
4.011788E+03	4.340874E-02	5.673870E-05
4.013786E+03	4.348405E-02	5.683635E-05
4.015783E+03	4.356614E-02	5.694284E-05
4.017781E+03	4.364885E-02	5.705012E-05
4.019779E+03	4.372075E-02	5.714327E-05
4.021777E+03	4.379409E-02	5.723827E-05
4.023775E+03	4.386578E-02	5.733111E-05
4.025773E+03	4.394648E-02	5.743571E-05
4.027771E+03	4.409703E-02	5.763157E-05
4.029769E+03	4.430900E-02	5.790769E-05
4.031767E+03	4.449257E-02	5.814667E-05
4.033765E+03	4.459770E-02	5.828312E-05
4.035762E+03	4.471179E-02	5.843126E-05
4.037760E+03	4.480448E-02	5.855142E-05
4.039758E+03	4.487733E-02	5.864563E-05
4.041756E+03	4.493415E-02	5.871888E-05
4.043754E+03	4.499769E-02	5.880089E-05
4.045752E+03	4.505431E-02	5.887385E-05
4.047750E+03	4.509343E-02	5.892392E-05
4.049748E+03	4.513928E-02	5.898279E-05
4.051746E+03	4.517898E-02	5.903359E-05
4.053744E+03	4.521786E-02	5.908331E-05
4.055741E+03	4.525137E-02	5.912600E-05
4.057739E+03	4.528707E-02	5.917153E-05
4.059737E+03	4.530989E-02	5.920022E-05
4.061735E+03	4.531304E-02	5.920320E-05
4.063733E+03	4.530030E-02	5.918540E-05
4.065731E+03	4.530939E-02	5.919613E-05
4.067729E+03	4.530336E-02	5.918708E-05
4.069727E+03	4.529506E-02	5.917505E-05
4.071725E+03	4.528974E-02	5.916691E-05
4.073723E+03	4.531145E-02	5.919406E-05
4.075720E+03	4.531205E-02	5.919364E-05
4.077718E+03	4.526307E-02	5.912842E-05
4.079716E+03	4.522234E-02	5.907398E-05
4.081714E+03	4.520489E-02	5.904994E-05
4.083712E+03	4.516717E-02	5.899940E-05
4.085710E+03	4.515493E-02	5.898215E-05
4.087708E+03	4.516289E-02	5.899128E-05
4.089706E+03	4.514536E-02	5.896708E-05
4.091704E+03	4.512032E-02	5.893308E-05
4.093702E+03	4.508032E-02	5.887953E-05
4.095700E+03	4.503360E-02	5.881720E-05
4.097697E+03	4.502202E-02	5.880075E-05
4.099695E+03	4.501712E-02	5.879302E-05
4.101693E+03	4.498906E-02	5.875503E-05
4.103691E+03	4.493934E-02	5.868876E-05
4.105689E+03	4.488149E-02	5.861184E-05
4.107687E+03	4.483330E-02	5.854755E-05
4.109685E+03	4.477847E-02	5.847458E-05
4.111683E+03	4.473181E-02	5.841228E-05
4.113681E+03	4.469338E-02	5.836071E-05
4.115679E+03	4.464826E-02	5.830040E-05
4.117676E+03	4.459423E-02	5.822845E-05
4.119674E+03	4.452166E-02	5.813230E-05
4.121672E+03	4.443428E-02	5.801680E-05
4.123670E+03	4.429354E-02	5.783164E-05
4.125668E+03	4.414997E-02	5.764277E-05
4.127666E+03	4.404429E-02	5.750339E-05
4.129664E+03	4.394242E-02	5.736897E-05
4.131662E+03	4.380212E-02	5.718438E-05
4.133660E+03	4.364492E-02	5.697774E-05
4.135658E+03	4.349302E-02	5.677802E-05
4.137655E+03	4.334422E-02	5.658235E-05
4.139653E+03	4.315786E-02	5.633765E-05
4.141651E+03	4.294436E-02	5.605753E-05
4.143649E+03	4.274877E-02	5.580081E-05
4.145647E+03	4.253638E-02	5.552216E-05
4.147645E+03	4.233527E-02	5.525825E-05
4.149643E+03	4.211958E-02	5.497532E-05
4.151641E+03	4.188203E-02	5.466386E-05
4.153639E+03	4.166971E-02	5.438535E-05
4.155637E+03	4.143846E-02	5.408214E-05
4.157634E+03	4.118612E-02	5.375142E-05
4.159632E+03	4.094356E-02	5.343349E-05
4.161630E+03	4.069685E-02	5.311014E-05
4.163628E+03	4.048192E-02	5.282829E-05
4.165626E+03	4.024373E-02	5.251610E-05
4.167624E+03	4.000137E-02	5.219847E-05
4.169622E+03	3.974899E-02	5.186780E-05
4.171620E+03	3.949685E-02	5.153745E-05
4.173618E+03	3.925666E-02	5.122271E-05
4.175616E+03	3.900356E-02	5.089114E-05
4.177614E+03	3.873679E-02	5.054175E-05
4.179611E+03	3.846445E-02	5.018511E-05
4.181609E+03	3.819895E-02	4.983743E-05
4.183607E+03	3.790816E-02	4.945676E-05
4.185605E+03	3.760161E-02	4.905555E-05
4.187603E+03	3.730412E-02	4.866618E-05
4.189601E+03	3.699671E-02	4.826390E-05
4.191599E+03	3.669037E-02	4.786303E-05
4.193597E+03	3.639669E-02	4.747871E-05
4.195595E+03	3.610840E-02	4.710144E-05
4.197593E+03	3.582771E-02	4.673410E-05
4.199590E+03	3.557126E-02	4.639840E-05
4.201588E+03	3.533397E-02	4.608772E-05
4.203586E+03	3.511871E-02	4.580579E-05
4.205584E+03	3.491165E-02	4.553457E-05
4.207582E+03	3.473888E-02	4.530810E-05
4.209580E+03	3.459529E-02	4.511969E-05
4.211578E+03	3.447790E-02	4.496548E-05
4.213576E+03	3.441350E-02	4.488038E-05
4.215574E+03	3.437521E-02	4.482934E-05
4.217572E+03	3.432249E-02	4.475950E-05
4.219569E+03	3.432401E-02	4.476040E-05
4.221567E+03	3.434866E-02	4.479146E-05
4.223565E+03	3.441658E-02	4.487895E-05
4.225563E+03	3.452412E-02	4.501811E-05
4.227561E+03	3.464379E-02	4.517310E-05
4.229559E+03	3.479071E-02	4.536362E-05
4.231557E+03	3.495188E-02	4.557271E-05
4.233555E+03	3.516613E-02	4.585101E-05
4.235553E+03	3.543846E-02	4.620503E-05
4.237551E+03	3.575580E-02	4.661774E-05
4.239548E+03	3.609506E-02	4.705901E-05
4.241546E+03	3.644688E-02	4.751664E-05
4.243544E+03	3.680547E-02	4.798311E-05
4.245542E+03	3.718735E-02	4.847992E-05
4.247540E+03	3.756879E-02	4.897616E-05
4.249538E+03	3.795052E-02	4.947276E-05
4.251536E+03	3.834759E-02	4.998934E-05
4.253534E+03	3.877716E-02	5.054830E-05
4.255532E+03	3.920552E-02	5.110567E-05
4.257530E+03	3.963198E-02	5.166055E-05
4.259527E+03	4.007152E-02	5.223249E-05
4.261525E+03	4.048414E-02	5.276931E-05
4.263523E+03	4.088130E-02	5.328600E-05
4.265521E+03	4.127370E-02	5.379648E-05
4.267519E+03	4.162285E-02	5.425059E-05
4.269517E+03	4.194236E-02	5.466607E-05
4.271515E+03	4.224369E-02	5.505787E-05
4.273513E+03	4.250550E-02	5.539817E-05
4.275511E+03	4.274564E-02	5.571023E-05
4.277509E+03	4.297840E-02	5.601271E-05
4.279507E+03	4.318172E-02	5.627680E-05
4.281504E+03	4.338907E-02	5.654619E-05
4.283502E+03	4.355072E-02	5.675603E-05
4.285500E+03	4.368306E-02	5.692768E-05
4.287498E+03	4.380248E-02	5.708253E-05
4.289496E+03	4.392529E-02	5.724183E-05
4.291494E+03	4.404866E-02	5.740187E-05
4.293492E+03	4.414570E-02	5.752763E-05
4.295490E+03	4.422561E-02	5.763109E-05
4.297488E+03	4.430471E-02	5.773352E-05
4.299486E+03	4.436887E-02	5.781652E-05
4.301483E+03	4.443013E-02	5.789577E-05
4.303481E+03	4.446517E-02	5.794088E-05
4.305479E+03	4.448745E-02	5.796940E-05
4.307477E+03	4.451604E-02	5.800618E-05
4.309475E+03	4.452980E-02	5.802366E-05
4.311473E+03	4.450053E-02	5.798511E-05
4.313471E+03	4.445365E-02	5.792365E-05
4.315469E+03	4.441881E-02	5.787793E-05
4.317467E+03	4.436499E-02	5.780751E-05
4.319465E+03	4.428591E-02	5.770422E-05
4.321462E+03	4.420057E-02	5.759279E-05
4.323460E+03	4.411393E-02	5.747973E-05
4.325458E+03	4.400913E-02	5.734304E-05
4.327456E+03	4.389039E-02	5.718823E-05
4.329454E+03	4.375985E-02	5.701808E-05
4.331452E+03	4.365050E-02	5.687559E-05
4.333450E+03	4.353285E-02	5.672233E-05
4.335448E+03	4.337749E-02	5.651998E-05
4.337446E+03	4.322443E-02	5.632067E-05
4.339444E+03	4.308623E-02	5.614075E-05
4.341441E+03	4.292788E-02	5.593464E-05
4.343439E+03	4.273409E-02	5.568238E-05
4.345437E+03	4.251606E-02	5.539858E-05
4.347435E+03	4.230733E-02	5.512693E-05
4.349433E+03	4.207443E-02	5.482383E-05
4.351431E+03	4.182573E-02	5.450017E-05
4.353429E+03	4.155709E-02	5.415057E-05
4.355427E+03	4.128666E-02	5.379868E-05
4.357425E+03	4.101513E-02	5.344537E-05
4.359423E+03	4.073832E-02	5.308522E-05
4.361421E+03	4.048685E-02	5.275812E-05
4.363418E+03	4.025025E-02	5.245041E-05
4.365416E+03	3.999722E-02	5.212132E-05
4.367414E+03	3.974932E-02	5.179895E-05
4.369412E+03	3.951208E-02	5.149049E-05
4.371410E+03	3.926124E-02	5.116434E-05
4.373408E+03	3.901757E-02	5.084754E-05
4.375406E+03	3.879358E-02	5.055641E-05
4.377404E+03	3.858712E-02	5.028816E-05
4.379402E+03	3.838711E-02	5.002832E-05
4.381400E+03	3.817345E-02	4.975072E-05
4.383397E+03	3.796419E-02	4.947887E-05
4.385395E+03	3.777793E-02	4.923701E-05
4.387393E+03	3.761396E-02	4.902422E-05
4.389391E+03	3.743427E-02	4.879096E-05
4.391389E+03	3.727614E-02	4.858582E-05
4.393387E+03	3.714578E-02	4.841688E-05
4.395385E+03	3.699278E-02	4.821845E-05
4.397383E+03	3.685509E-02	4.804000E-05
4.399381E+03	3.673200E-02	4.788058E-05
4.401379E+03	3.660351E-02	4.771416E-05
4.403376E+03	3.648959E-02	4.756672E-05
4.405374E+03	3.639639E-02	4.744632E-05
4.407372E+03	3.628266E-02	4.729916E-05
4.409370E+03	3.617659E-02	4.716201E-05
4.411368E+03	3.608505E-02	4.704381E-05
4.413366E+03	3.599699E-02	4.693016E-05
4.415364E+03	3.592752E-02	4.684076E-05
4.417362E+03	3.589168E-02	4.679522E-05
4.419360E+03	3.585450E-02	4.674794E-05
4.421358E+03	3.581254E-02	4.669445E-05
4.423355E+03	3.578909E-02	4.666510E-05
4.425353E+03	3.578202E-02	4.665713E-05
4.427351E+03	3.577768E-02	4.665273E-05
4.429349E+03	3.579792E-02	4.668040E-05
4.431347E+03	3.581333E-02	4.670179E-05
4.433345E+03	3.583756E-02	4.673468E-05
4.435343E+03	3.587744E-02	4.678801E-05
4.437341E+03	3.591725E-02	4.684126E-05
4.439339E+03	3.594541E-02	4.687933E-05
4.441337E+03	3.598847E-02	4.693685E-05
4.443334E+03	3.604031E-02	4.700584E-05
4.445332E+03	3.607644E-02	4.705435E-05
4.447330E+03	3.611999E-02	4.711255E-05
4.449328E+03	3.618110E-02	4.719367E-05
4.451326E+03	3.623805E-02	4.726939E-05
4.453324E+03	3.628339E-02	4.732997E-05
4.455322E+03	3.633950E-02	4.740461E-05
4.457320E+03	3.641923E-02	4.751008E-05
4.459318E+03	3.651103E-02	4.763131E-05
4.461316E+03	3.659729E-02	4.774533E-05
4.463314E+03	3.667598E-02	4.784948E-05
4.465311E+03	3.677418E-02	4.797911E-05
4.467309E+03	3.686884E-02	4.810414E-05
4.469307E+03	3.693365E-02	4.819023E-05
4.471305E+03	3.700309E-02	4.828237E-05
4.473303E+03	3.708389E-02	4.838936E-05
4.475301E+03	3.716051E-02	4.849090E-05
4.477299E+03	3.723904E-02	4.859494E-05
4.479297E+03	3.730736E-02	4.868566E-05
4.481295E+03	3.738431E-02	4.878767E-05
4.483293E+03	3.746047E-02	4.888866E-05
4.485290E+03	3.753785E-02	4.899125E-05
4.487288E+03	3.763730E-02	4.912265E-05
4.489286E+03	3.773725E-02	4.925472E-05
4.491284E+03	3.785252E-02	4.940680E-05
4.493282E+03	3.795957E-02	4.954816E-05
4.495280E+03	3.806243E-02	4.968407E-05
4.497278E+03	3.817654E-02	4.983466E-05
4.499276E+03	3.828043E-02	4.997194E-05
4.501274E+03	3.839085E-02	5.011775E-05
4.503272E+03	3.848907E-02	5.024765E-05
4.505269E+03	3.857578E-02	5.036253E-05
4.507267E+03	3.866169E-02	5.047636E-05
