#wls	flux	fluxerr
1.598322E+03	1.110694E-04	1.200913E-05
1.638280E+03	1.125014E-04	1.205722E-05
1.678238E+03	1.140251E-04	1.210987E-05
1.718196E+03	1.156445E-04	1.216710E-05
1.758154E+03	1.173636E-04	1.222892E-05
1.798112E+03	1.192477E-04	1.230162E-05
1.838070E+03	1.212417E-04	1.237893E-05
1.878028E+03	1.233515E-04	1.246093E-05
1.917986E+03	1.256442E-04	1.255381E-05
1.957944E+03	1.280667E-04	1.265155E-05
1.997902E+03	1.306880E-04	1.276027E-05
2.037860E+03	1.335176E-04	1.288004E-05
2.077818E+03	1.365661E-04	1.301095E-05
2.117776E+03	1.397839E-04	1.314735E-05
2.157734E+03	1.433071E-04	1.330107E-05
2.197692E+03	1.471513E-04	1.347219E-05
2.237650E+03	1.512715E-04	1.365523E-05
2.277609E+03	1.556863E-04	1.385056E-05
2.317567E+03	1.605427E-04	1.406972E-05
2.357525E+03	1.658025E-04	1.430742E-05
2.397483E+03	1.714925E-04	1.456410E-05
2.437441E+03	1.776421E-04	1.484027E-05
2.477399E+03	1.843501E-04	1.514192E-05
2.517357E+03	1.917207E-04	1.547498E-05
2.557315E+03	1.997303E-04	1.583458E-05
2.597273E+03	2.084229E-04	1.622132E-05
2.637231E+03	2.179855E-04	1.664647E-05
2.677189E+03	2.283318E-04	1.709977E-05
2.717147E+03	2.397290E-04	1.759753E-05
2.757105E+03	2.521642E-04	1.813439E-05
2.797063E+03	2.656909E-04	1.870992E-05
2.837021E+03	2.805084E-04	1.933360E-05
2.876979E+03	2.965782E-04	1.999796E-05
2.916937E+03	3.139925E-04	2.070473E-05
2.956895E+03	3.327297E-04	2.144817E-05
2.996853E+03	3.528797E-04	2.223026E-05
3.006843E+03	3.581386E-04	2.243144E-05
3.016832E+03	3.635054E-04	2.263599E-05
3.026822E+03	3.688916E-04	2.283838E-05
3.036811E+03	3.742922E-04	2.303832E-05
3.046801E+03	3.798735E-04	2.324604E-05
3.056790E+03	3.854586E-04	2.345064E-05
3.066780E+03	3.911272E-04	2.365702E-05
3.076769E+03	3.967857E-04	2.385950E-05
3.086759E+03	4.025130E-04	2.406291E-05
3.096748E+03	4.083010E-04	2.426675E-05
3.106738E+03	4.141406E-04	2.447052E-05
3.116727E+03	4.199325E-04	2.466840E-05
3.126717E+03	4.257538E-04	2.486504E-05
3.136706E+03	4.315919E-04	2.505977E-05
3.146696E+03	4.374336E-04	2.525190E-05
3.156685E+03	4.432639E-04	2.544067E-05
3.166675E+03	4.489760E-04	2.562010E-05
3.176665E+03	4.546426E-04	2.579453E-05
3.186654E+03	4.602442E-04	2.596301E-05
3.196644E+03	4.657604E-04	2.612460E-05
3.206633E+03	4.711691E-04	2.627823E-05
3.216623E+03	4.763553E-04	2.641777E-05
3.226612E+03	4.814755E-04	2.655218E-05
3.236602E+03	4.863206E-04	2.667016E-05
3.246591E+03	4.909527E-04	2.677549E-05
3.256581E+03	4.954321E-04	2.687175E-05
3.266570E+03	4.995453E-04	2.694770E-05
3.276560E+03	5.033495E-04	2.700685E-05
3.286549E+03	5.068097E-04	2.704774E-05
3.296539E+03	5.099789E-04	2.707359E-05
3.306528E+03	5.126411E-04	2.707337E-05
3.316518E+03	5.148478E-04	2.705033E-05
3.326507E+03	5.165608E-04	2.700294E-05
3.336497E+03	5.178282E-04	2.693422E-05
3.346486E+03	5.184384E-04	2.683367E-05
3.356476E+03	5.185269E-04	2.670886E-05
3.366465E+03	5.179717E-04	2.655402E-05
3.376455E+03	5.167409E-04	2.636807E-05
3.386444E+03	5.148053E-04	2.615006E-05
3.396434E+03	5.121410E-04	2.589932E-05
3.406423E+03	5.087296E-04	2.561547E-05
3.416413E+03	5.046370E-04	2.530230E-05
3.426402E+03	4.997801E-04	2.495611E-05
3.436392E+03	4.941665E-04	2.457773E-05
3.446381E+03	4.878149E-04	2.416850E-05
3.456371E+03	4.808276E-04	2.373383E-05
3.466360E+03	4.731783E-04	2.327270E-05
3.476350E+03	4.649310E-04	2.278850E-05
3.486339E+03	4.562326E-04	2.228861E-05
3.496329E+03	4.471183E-04	2.177481E-05
3.506318E+03	4.377724E-04	2.125610E-05
3.516308E+03	4.282797E-04	2.073653E-05
3.526297E+03	4.188135E-04	2.022434E-05
3.536287E+03	4.096273E-04	1.973157E-05
3.546276E+03	4.008896E-04	1.926602E-05
3.556266E+03	3.929035E-04	1.884191E-05
3.566255E+03	3.858893E-04	1.846940E-05
3.576245E+03	3.801278E-04	1.816148E-05
3.586234E+03	3.759583E-04	1.793391E-05
3.596224E+03	3.733993E-04	1.778713E-05
3.606213E+03	3.723395E-04	1.771546E-05
3.616203E+03	3.725563E-04	1.770797E-05
3.626192E+03	3.737444E-04	1.774994E-05
3.636182E+03	3.755752E-04	1.782563E-05
3.646172E+03	3.778907E-04	1.792747E-05
3.656161E+03	3.803583E-04	1.803967E-05
3.666151E+03	3.829483E-04	1.816081E-05
3.676140E+03	3.854555E-04	1.828116E-05
3.686130E+03	3.878402E-04	1.839882E-05
3.696119E+03	3.900541E-04	1.851149E-05
3.706109E+03	3.920783E-04	1.861825E-05
3.716098E+03	3.938800E-04	1.871749E-05
3.726088E+03	3.955330E-04	1.881267E-05
3.736077E+03	3.971300E-04	1.890815E-05
3.746067E+03	3.986585E-04	1.900327E-05
3.756056E+03	4.002428E-04	1.910393E-05
3.766046E+03	4.019766E-04	1.921457E-05
3.776035E+03	4.039240E-04	1.933823E-05
3.786025E+03	4.062729E-04	1.948395E-05
3.796014E+03	4.090977E-04	1.965535E-05
3.806004E+03	4.125156E-04	1.985819E-05
3.815993E+03	4.166463E-04	2.009837E-05
3.825983E+03	4.216107E-04	2.038194E-05
3.835972E+03	4.275314E-04	2.071511E-05
3.845962E+03	4.345329E-04	2.110424E-05
3.855951E+03	4.427808E-04	2.155780E-05
3.865941E+03	4.523287E-04	2.207888E-05
3.875930E+03	4.633906E-04	2.267849E-05
3.885920E+03	4.760301E-04	2.336039E-05
3.895909E+03	4.904691E-04	2.413620E-05
3.905899E+03	5.068198E-04	2.501229E-05
3.915888E+03	5.250360E-04	2.598728E-05
3.925878E+03	5.451814E-04	2.706525E-05
3.935867E+03	5.670938E-04	2.823911E-05
3.945857E+03	5.907451E-04	2.950836E-05
3.955846E+03	6.157725E-04	3.085577E-05
3.965836E+03	6.419929E-04	3.227290E-05
3.975825E+03	6.690382E-04	3.374190E-05
3.985815E+03	6.965483E-04	3.524504E-05
3.995804E+03	7.241782E-04	3.676515E-05
4.005794E+03	7.514370E-04	3.827736E-05
4.015783E+03	7.778977E-04	3.975974E-05
4.025773E+03	8.029029E-04	4.117819E-05
4.035762E+03	8.259700E-04	4.250714E-05
4.045752E+03	8.462233E-04	4.370036E-05
4.055741E+03	8.630518E-04	4.472466E-05
4.065731E+03	8.757377E-04	4.554083E-05
4.075720E+03	8.836000E-04	4.611100E-05
4.085710E+03	8.862205E-04	4.641055E-05
4.095700E+03	8.835219E-04	4.643243E-05
4.105689E+03	8.756085E-04	4.617908E-05
4.115679E+03	8.629986E-04	4.567490E-05
4.125668E+03	8.463940E-04	4.495441E-05
4.135658E+03	8.267492E-04	4.406613E-05
4.145647E+03	8.051656E-04	4.306712E-05
4.155637E+03	7.827226E-04	4.201412E-05
4.165626E+03	7.603602E-04	4.095718E-05
4.175616E+03	7.391016E-04	3.995157E-05
4.185605E+03	7.195499E-04	3.903054E-05
4.195595E+03	7.022555E-04	3.822495E-05
4.205584E+03	6.876597E-04	3.756012E-05
4.215574E+03	6.761352E-04	3.705796E-05
4.225563E+03	6.679570E-04	3.673525E-05
4.235553E+03	6.633374E-04	3.660558E-05
4.245542E+03	6.625031E-04	3.668343E-05
4.255532E+03	6.656906E-04	3.698402E-05
4.265521E+03	6.730062E-04	3.751547E-05
4.275511E+03	6.845165E-04	3.828373E-05
4.285500E+03	7.001003E-04	3.928427E-05
4.295490E+03	7.197229E-04	4.051727E-05
4.305479E+03	7.430116E-04	4.196383E-05
4.315469E+03	7.696490E-04	4.360782E-05
4.325458E+03	7.990875E-04	4.541984E-05
4.335448E+03	8.306642E-04	4.736343E-05
4.345437E+03	8.635975E-04	4.939490E-05
4.355427E+03	8.968608E-04	5.145588E-05
4.365416E+03	9.293208E-04	5.348116E-05
4.375406E+03	9.598667E-04	5.540601E-05
4.385395E+03	9.876773E-04	5.718173E-05
4.395385E+03	1.012539E-03	5.879430E-05
4.405374E+03	1.034817E-03	6.026336E-05
4.415364E+03	1.055387E-03	6.163853E-05
4.425353E+03	1.075555E-03	6.299540E-05
4.435343E+03	1.096704E-03	6.441468E-05
4.445332E+03	1.120398E-03	6.598902E-05
4.455322E+03	1.148525E-03	6.783088E-05
4.465311E+03	1.182927E-03	7.005130E-05
4.475301E+03	1.225731E-03	7.277934E-05
4.485290E+03	1.278946E-03	7.613842E-05
4.495280E+03	1.344764E-03	8.026371E-05
4.505269E+03	1.425127E-03	8.527695E-05
4.515259E+03	1.521725E-03	9.128568E-05
4.525248E+03	1.635534E-03	9.835515E-05
4.535238E+03	1.766910E-03	1.065139E-04
4.545228E+03	1.915220E-03	1.157304E-04
4.555217E+03	2.078208E-03	1.258744E-04
4.565207E+03	2.252818E-03	1.367657E-04
4.575196E+03	2.434483E-03	1.481301E-04
4.585186E+03	2.617956E-03	1.596492E-04
4.595175E+03	2.797031E-03	1.709435E-04
4.605165E+03	2.965029E-03	1.816007E-04
4.615154E+03	3.115581E-03	1.912244E-04
4.625144E+03	3.242208E-03	1.994086E-04
4.635133E+03	3.339225E-03	2.057925E-04
4.645123E+03	3.402079E-03	2.100835E-04
4.655112E+03	3.427964E-03	2.120948E-04
4.665102E+03	3.416406E-03	2.117834E-04
4.675091E+03	3.369308E-03	2.092544E-04
4.685081E+03	3.290934E-03	2.047608E-04
4.695070E+03	3.187783E-03	1.986978E-04
4.705060E+03	3.067557E-03	1.915384E-04
4.715049E+03	2.938659E-03	1.838037E-04
4.725039E+03	2.809405E-03	1.760125E-04
4.735028E+03	2.687297E-03	1.686366E-04
4.745018E+03	2.578933E-03	1.620936E-04
4.755007E+03	2.489711E-03	1.567282E-04
4.764997E+03	2.424007E-03	1.528225E-04
4.774986E+03	2.384577E-03	1.505576E-04
4.784976E+03	2.373098E-03	1.500472E-04
4.794965E+03	2.389927E-03	1.513215E-04
4.804955E+03	2.434921E-03	1.543788E-04
4.814944E+03	2.506886E-03	1.591502E-04
4.824934E+03	2.603608E-03	1.655012E-04
4.834923E+03	2.722623E-03	1.732803E-04
4.844913E+03	2.860701E-03	1.822860E-04
4.854902E+03	3.014252E-03	1.922928E-04
4.864892E+03	3.179200E-03	2.030427E-04
4.874881E+03	3.351431E-03	2.142739E-04
4.884871E+03	3.526425E-03	2.256974E-04
4.894860E+03	3.699215E-03	2.369944E-04
4.904850E+03	3.864201E-03	2.478042E-04
4.914839E+03	4.015662E-03	2.577568E-04
4.924829E+03	4.149174E-03	2.665647E-04
4.934818E+03	4.262865E-03	2.741035E-04
4.944808E+03	4.356806E-03	2.803737E-04
4.954797E+03	4.432885E-03	2.854931E-04
4.964787E+03	4.493897E-03	2.896388E-04
4.974776E+03	4.542199E-03	2.929602E-04
4.984766E+03	4.577924E-03	2.954639E-04
4.994756E+03	4.597065E-03	2.968892E-04
5.004745E+03	4.593311E-03	2.968262E-04
5.014735E+03	4.560452E-03	2.948708E-04
5.024724E+03	4.494482E-03	2.907608E-04
5.034714E+03	4.394406E-03	2.844290E-04
5.044703E+03	4.263016E-03	2.760535E-04
5.054693E+03	4.107750E-03	2.661142E-04
5.064682E+03	3.938217E-03	2.552331E-04
5.074672E+03	3.765717E-03	2.441428E-04
5.084661E+03	3.601353E-03	2.335642E-04
5.094651E+03	3.455309E-03	2.241598E-04
5.104640E+03	3.335500E-03	2.164453E-04
5.114630E+03	3.247318E-03	2.107726E-04
5.124619E+03	3.194359E-03	2.073775E-04
5.134609E+03	3.177422E-03	2.063135E-04
5.144598E+03	3.194633E-03	2.074602E-04
5.154588E+03	3.242337E-03	2.105814E-04
5.164577E+03	3.316110E-03	2.153899E-04
5.174567E+03	3.410892E-03	2.215573E-04
5.184556E+03	3.521393E-03	2.287396E-04
5.194546E+03	3.642629E-03	2.366125E-04
5.204535E+03	3.770266E-03	2.448940E-04
5.214525E+03	3.901062E-03	2.533727E-04
5.224514E+03	4.032321E-03	2.618730E-04
5.234504E+03	4.162509E-03	2.702945E-04
5.244493E+03	4.290970E-03	2.785942E-04
5.254483E+03	4.418286E-03	2.868092E-04
5.264472E+03	4.545862E-03	2.950303E-04
5.274462E+03	4.675776E-03	3.033916E-04
5.284451E+03	4.809970E-03	3.120187E-04
5.294441E+03	4.949737E-03	3.209946E-04
5.304430E+03	5.095585E-03	3.303512E-04
5.314420E+03	5.247729E-03	3.401017E-04
5.324409E+03	5.405447E-03	3.501984E-04
5.334399E+03	5.567970E-03	3.605903E-04
5.344388E+03	5.734346E-03	3.712151E-04
5.354378E+03	5.903704E-03	3.820153E-04
5.364367E+03	6.074821E-03	3.929112E-04
5.374357E+03	6.245745E-03	4.037758E-04
5.384346E+03	6.412837E-03	4.143735E-04
5.394336E+03	6.571215E-03	4.243890E-04
5.404325E+03	6.715116E-03	4.334505E-04
5.414315E+03	6.838856E-03	4.411926E-04
5.424304E+03	6.938060E-03	4.473351E-04
5.434294E+03	7.012496E-03	4.518658E-04
5.444284E+03	7.067240E-03	4.551142E-04
5.454273E+03	7.111664E-03	4.576860E-04
5.464263E+03	7.157576E-03	4.603418E-04
5.474252E+03	7.217583E-03	4.638919E-04
5.484242E+03	7.301567E-03	4.689693E-04
5.494231E+03	7.411292E-03	4.756839E-04
5.504221E+03	7.539339E-03	4.835565E-04
5.514210E+03	7.669856E-03	4.915685E-04
5.524200E+03	7.783921E-03	4.985075E-04
5.534189E+03	7.863850E-03	5.032442E-04
5.544179E+03	7.895941E-03	5.049075E-04
5.554168E+03	7.874364E-03	5.031323E-04
5.564158E+03	7.803036E-03	4.981768E-04
5.574147E+03	7.693826E-03	4.908059E-04
5.584137E+03	7.563838E-03	4.821158E-04
5.594126E+03	7.432509E-03	4.733480E-04
5.604116E+03	7.317499E-03	4.656266E-04
5.614105E+03	7.231361E-03	4.597473E-04
5.624095E+03	7.178279E-03	4.559712E-04
5.634084E+03	7.154198E-03	4.540354E-04
5.644074E+03	7.145517E-03	4.530727E-04
5.654063E+03	7.129214E-03	4.516219E-04
5.664053E+03	7.076762E-03	4.478790E-04
5.674042E+03	6.961420E-03	4.401595E-04
5.684032E+03	6.764594E-03	4.273008E-04
5.694021E+03	6.478956E-03	4.088556E-04
5.704011E+03	6.110456E-03	3.852164E-04
5.714000E+03	5.678808E-03	3.576414E-04
5.723990E+03	5.211938E-03	3.279007E-04
5.733979E+03	4.741268E-03	2.979774E-04
5.743969E+03	4.297751E-03	2.698166E-04
5.753958E+03	3.906821E-03	2.450092E-04
5.763948E+03	3.586174E-03	2.246543E-04
5.773937E+03	3.347053E-03	2.094417E-04
5.783927E+03	3.196302E-03	1.997829E-04
5.793916E+03	3.137334E-03	1.958728E-04
5.803906E+03	3.171291E-03	1.977628E-04
5.813895E+03	3.300044E-03	2.055494E-04
5.823885E+03	3.527051E-03	2.194263E-04
5.833874E+03	3.855067E-03	2.395421E-04
5.843864E+03	4.284551E-03	2.659014E-04
5.853853E+03	4.811694E-03	2.982436E-04
5.863843E+03	5.424953E-03	3.358299E-04
5.873832E+03	6.101665E-03	3.772371E-04
5.883822E+03	6.808423E-03	4.203853E-04
5.893811E+03	7.504605E-03	4.627603E-04
5.903801E+03	8.146119E-03	5.016474E-04
5.913791E+03	8.692154E-03	5.345484E-04
5.923780E+03	9.114706E-03	5.597658E-04
5.933770E+03	9.400303E-03	5.765034E-04
5.943759E+03	9.549261E-03	5.848148E-04
5.953749E+03	9.573378E-03	5.854564E-04
5.963738E+03	9.492336E-03	5.796629E-04
5.973728E+03	9.329012E-03	5.688572E-04
5.983717E+03	9.105509E-03	5.544078E-04
5.993707E+03	8.842257E-03	5.375738E-04
6.003696E+03	8.557401E-03	5.194680E-04
6.013686E+03	8.266048E-03	5.010132E-04
6.023675E+03	7.981078E-03	4.829914E-04
6.033665E+03	7.713063E-03	4.660405E-04
6.043654E+03	7.471071E-03	4.507036E-04
6.053644E+03	7.262734E-03	4.374334E-04
6.063633E+03	7.094521E-03	4.266100E-04
6.073623E+03	6.971600E-03	4.185323E-04
6.083612E+03	6.897405E-03	4.133932E-04
6.093602E+03	6.872731E-03	4.112262E-04
6.103591E+03	6.892894E-03	4.117364E-04
6.113581E+03	6.950517E-03	4.144707E-04
6.123570E+03	7.035643E-03	4.188247E-04
6.133560E+03	7.136118E-03	4.240675E-04
6.143549E+03	7.238993E-03	4.294263E-04
6.153539E+03	7.334315E-03	4.343106E-04
6.163528E+03	7.417338E-03	4.384422E-04
6.173518E+03	7.487816E-03	4.418104E-04
6.183507E+03	7.548129E-03	4.445595E-04
6.193497E+03	7.603013E-03	4.469710E-04
6.203486E+03	7.657601E-03	4.493480E-04
6.213476E+03	7.714132E-03	4.518216E-04
6.223465E+03	7.770225E-03	4.542522E-04
6.233455E+03	7.819523E-03	4.562690E-04
6.243444E+03	7.852927E-03	4.573443E-04
6.253434E+03	7.859282E-03	4.568352E-04
6.263423E+03	7.826461E-03	4.540472E-04
6.273413E+03	7.742461E-03	4.482990E-04
6.283402E+03	7.596722E-03	4.389979E-04
6.293392E+03	7.381875E-03	4.257402E-04
6.303381E+03	7.095067E-03	4.083860E-04
6.313371E+03	6.739899E-03	3.871674E-04
6.323360E+03	6.325987E-03	3.626600E-04
6.333350E+03	5.869083E-03	3.357859E-04
6.343339E+03	5.390515E-03	3.077786E-04
6.353329E+03	4.912817E-03	2.799303E-04
6.363319E+03	4.457296E-03	2.534530E-04
6.373308E+03	4.042169E-03	2.293731E-04
6.383298E+03	3.681487E-03	2.084727E-04
6.393287E+03	3.385089E-03	1.912889E-04
6.403277E+03	3.159625E-03	1.781743E-04
6.413266E+03	3.010265E-03	1.693948E-04
6.423256E+03	2.941771E-03	1.651911E-04
6.433245E+03	2.960099E-03	1.658680E-04
6.443235E+03	3.074706E-03	1.719237E-04
6.453224E+03	3.298655E-03	1.840523E-04
6.463214E+03	3.647862E-03	2.031010E-04
6.473203E+03	4.142086E-03	2.301225E-04
6.483193E+03	4.805033E-03	2.663787E-04
6.493182E+03	5.661266E-03	3.131671E-04
6.503172E+03	6.730861E-03	3.715252E-04
6.513161E+03	8.021231E-03	4.417829E-04
6.523151E+03	9.514479E-03	5.228749E-04
6.533140E+03	1.114518E-02	6.111376E-04
6.543130E+03	1.279052E-02	6.997976E-04
6.553119E+03	1.429037E-02	7.801053E-04
6.563109E+03	1.547969E-02	8.431209E-04
6.573098E+03	1.623188E-02	8.820763E-04
6.583088E+03	1.649912E-02	8.945384E-04
6.593077E+03	1.631410E-02	8.824557E-04
6.603067E+03	1.576596E-02	8.508089E-04
6.613056E+03	1.497067E-02	8.059800E-04
6.623046E+03	1.404215E-02	7.541833E-04
6.633035E+03	1.307394E-02	7.004849E-04
6.643025E+03	1.213174E-02	6.484128E-04
6.653014E+03	1.125633E-02	6.001354E-04
6.663004E+03	1.046808E-02	5.567105E-04
6.672993E+03	9.773247E-03	5.184391E-04
6.682983E+03	9.168488E-03	4.851078E-04
6.692972E+03	8.646949E-03	4.563203E-04
6.702962E+03	8.199370E-03	4.315569E-04
6.712951E+03	7.816425E-03	4.102985E-04
6.722941E+03	7.488973E-03	3.920408E-04
6.732930E+03	7.209359E-03	3.763614E-04
6.742920E+03	6.970242E-03	3.628586E-04
6.752909E+03	6.765366E-03	3.511909E-04
6.762899E+03	6.589306E-03	3.410628E-04
6.772888E+03	6.437043E-03	3.322031E-04
6.782878E+03	6.304386E-03	3.243858E-04
6.792867E+03	6.187686E-03	3.174152E-04
6.802857E+03	6.083667E-03	3.111166E-04
6.812847E+03	5.989645E-03	3.053475E-04
6.822836E+03	5.903696E-03	3.000057E-04
6.832826E+03	5.823955E-03	2.949930E-04
6.842815E+03	5.749294E-03	2.902497E-04
6.852805E+03	5.679421E-03	2.857587E-04
6.862794E+03	5.614307E-03	2.815164E-04
6.872784E+03	5.554181E-03	2.775321E-04
6.882773E+03	5.499685E-03	2.738352E-04
6.892763E+03	5.451368E-03	2.704502E-04
6.902752E+03	5.409756E-03	2.673998E-04
6.912742E+03	5.375159E-03	2.646957E-04
6.922731E+03	5.347948E-03	2.623524E-04
6.932721E+03	5.327967E-03	2.603580E-04
6.942710E+03	5.315397E-03	2.587171E-04
6.952700E+03	5.309900E-03	2.574090E-04
6.962689E+03	5.310944E-03	2.564036E-04
6.972679E+03	5.317334E-03	2.556395E-04
6.982668E+03	5.327371E-03	2.550316E-04
6.992658E+03	5.339397E-03	2.544986E-04
7.002647E+03	5.351410E-03	2.539440E-04
7.012637E+03	5.361520E-03	2.532780E-04
7.022626E+03	5.368086E-03	2.524246E-04
7.032616E+03	5.370353E-03	2.513504E-04
7.042605E+03	5.367779E-03	2.500330E-04
7.052595E+03	5.360222E-03	2.484687E-04
7.062584E+03	5.348324E-03	2.466906E-04
7.072574E+03	5.332813E-03	2.447350E-04
7.082563E+03	5.314793E-03	2.426548E-04
7.092553E+03	5.295722E-03	2.405181E-04
7.102542E+03	5.277242E-03	2.383999E-04
7.112532E+03	5.261128E-03	2.363796E-04
7.122521E+03	5.248925E-03	2.345246E-04
7.132511E+03	5.242470E-03	2.329136E-04
7.142500E+03	5.243118E-03	2.316020E-04
7.152490E+03	5.252372E-03	2.306504E-04
7.162479E+03	5.271289E-03	2.300980E-04
7.172469E+03	5.300233E-03	2.299528E-04
7.182458E+03	5.339214E-03	2.302068E-04
7.192448E+03	5.387313E-03	2.308123E-04
7.202437E+03	5.443662E-03	2.317241E-04
7.212427E+03	5.506466E-03	2.328591E-04
7.222416E+03	5.574076E-03	2.341419E-04
7.232406E+03	5.644340E-03	2.354780E-04
7.242395E+03	5.715036E-03	2.367723E-04
7.252385E+03	5.783713E-03	2.379229E-04
7.262375E+03	5.847677E-03	2.388210E-04
7.272364E+03	5.903699E-03	2.393392E-04
7.282354E+03	5.948165E-03	2.393388E-04
7.292343E+03	5.978159E-03	2.387134E-04
7.302333E+03	5.991287E-03	2.373815E-04
7.312322E+03	5.985709E-03	2.352862E-04
7.322312E+03	5.961170E-03	2.324355E-04
7.332301E+03	5.918258E-03	2.288705E-04
7.342291E+03	5.859106E-03	2.246912E-04
7.352280E+03	5.786296E-03	2.200123E-04
7.362270E+03	5.702854E-03	2.149621E-04
7.372259E+03	5.612068E-03	2.096750E-04
7.382249E+03	5.517040E-03	2.042744E-04
7.392238E+03	5.420094E-03	1.988507E-04
7.402228E+03	5.323192E-03	1.934787E-04
7.412217E+03	5.227395E-03	1.881974E-04
7.422207E+03	5.133073E-03	1.830202E-04
7.432196E+03	5.039945E-03	1.779367E-04
7.442186E+03	4.947372E-03	1.729245E-04
7.452175E+03	4.854627E-03	1.679591E-04
7.462165E+03	4.761070E-03	1.630198E-04
7.472154E+03	4.666231E-03	1.580928E-04
7.482144E+03	4.569995E-03	1.531766E-04
7.492133E+03	4.472767E-03	1.482875E-04
7.502123E+03	4.375142E-03	1.434472E-04
7.512112E+03	4.278351E-03	1.386972E-04
7.522102E+03	4.183817E-03	1.340832E-04
7.532091E+03	4.093095E-03	1.296533E-04
7.542081E+03	4.008141E-03	1.254654E-04
7.552070E+03	3.930820E-03	1.215717E-04
7.562060E+03	3.862939E-03	1.180200E-04
7.572049E+03	3.805892E-03	1.148425E-04
7.582039E+03	3.760797E-03	1.120614E-04
7.592028E+03	3.728390E-03	1.096856E-04
7.602018E+03	3.709147E-03	1.077155E-04
7.612007E+03	3.703033E-03	1.061361E-04
7.621997E+03	3.709866E-03	1.049283E-04
7.631986E+03	3.728733E-03	1.040531E-04
7.641976E+03	3.758360E-03	1.034629E-04
7.651965E+03	3.797179E-03	1.031043E-04
7.661955E+03	3.843021E-03	1.029103E-04
7.671944E+03	3.893587E-03	1.028140E-04
7.681934E+03	3.946441E-03	1.027485E-04
7.691923E+03	3.999478E-03	1.026594E-04
7.701913E+03	4.051013E-03	1.025060E-04
7.711903E+03	4.099630E-03	1.022572E-04
7.721892E+03	4.144554E-03	1.018997E-04
7.731882E+03	4.185207E-03	1.014263E-04
7.741871E+03	4.220425E-03	1.008167E-04
7.751861E+03	4.248288E-03	1.000345E-04
