#wls	flux	fluxerr
1.598322E+03	1.698474E-04	5.803281E-09
1.638280E+03	1.728821E-04	5.906968E-09
1.678238E+03	1.760859E-04	6.016433E-09
1.718196E+03	1.794660E-04	6.131923E-09
1.758154E+03	1.830303E-04	6.253708E-09
1.798112E+03	1.867874E-04	6.382080E-09
1.838070E+03	1.907466E-04	6.517353E-09
1.878028E+03	1.949176E-04	6.659868E-09
1.917986E+03	1.993118E-04	6.810006E-09
1.957944E+03	2.040374E-04	6.971470E-09
1.997902E+03	2.090121E-04	7.141442E-09
2.037860E+03	2.142494E-04	7.320387E-09
2.077818E+03	2.199636E-04	7.515627E-09
2.117776E+03	2.259746E-04	7.721011E-09
2.157734E+03	2.323004E-04	7.937147E-09
2.197692E+03	2.391645E-04	8.171677E-09
2.237650E+03	2.465940E-04	8.425523E-09
2.277609E+03	2.545117E-04	8.696054E-09
2.317567E+03	2.629445E-04	8.984180E-09
2.357525E+03	2.720277E-04	9.294532E-09
2.397483E+03	2.819043E-04	9.631991E-09
2.437441E+03	2.925028E-04	9.994118E-09
2.477399E+03	3.038586E-04	1.038212E-08
2.517357E+03	3.162359E-04	1.080502E-08
2.557315E+03	3.295641E-04	1.126041E-08
2.597273E+03	3.439990E-04	1.175362E-08
2.637231E+03	3.594603E-04	1.228189E-08
2.677189E+03	3.762183E-04	1.285447E-08
2.717147E+03	3.943001E-04	1.347228E-08
2.757105E+03	4.138421E-04	1.413999E-08
2.797063E+03	4.347079E-04	1.485292E-08
2.837021E+03	4.571071E-04	1.561825E-08
2.876979E+03	4.809514E-04	1.643295E-08
2.916937E+03	5.062155E-04	1.729616E-08
2.956895E+03	5.327865E-04	1.820403E-08
2.996853E+03	5.602891E-04	1.914372E-08
3.006843E+03	5.672072E-04	1.938010E-08
3.016832E+03	5.741919E-04	1.961875E-08
3.026822E+03	5.812322E-04	1.985930E-08
3.036811E+03	5.883159E-04	2.010133E-08
3.046801E+03	5.952899E-04	2.033962E-08
3.056790E+03	6.024199E-04	2.058323E-08
3.066780E+03	6.094100E-04	2.082207E-08
3.076769E+03	6.163836E-04	2.106034E-08
3.086759E+03	6.231819E-04	2.129262E-08
3.096748E+03	6.300673E-04	2.152788E-08
3.106738E+03	6.367375E-04	2.175578E-08
3.116727E+03	6.433110E-04	2.198038E-08
3.126717E+03	6.497643E-04	2.220087E-08
3.136706E+03	6.562128E-04	2.242120E-08
3.146696E+03	6.623484E-04	2.263084E-08
3.156685E+03	6.682834E-04	2.283363E-08
3.166675E+03	6.739881E-04	2.302854E-08
3.176665E+03	6.794307E-04	2.321450E-08
3.186654E+03	6.845781E-04	2.339038E-08
3.196644E+03	6.893955E-04	2.355498E-08
3.206633E+03	6.938472E-04	2.370708E-08
3.216623E+03	6.978953E-04	2.384539E-08
3.226612E+03	7.015014E-04	2.396860E-08
3.236602E+03	7.047602E-04	2.407995E-08
3.246591E+03	7.073607E-04	2.416880E-08
3.256581E+03	7.095301E-04	2.424293E-08
3.266570E+03	7.110913E-04	2.429627E-08
3.276560E+03	7.120029E-04	2.432742E-08
3.286549E+03	7.123518E-04	2.433934E-08
3.296539E+03	7.119660E-04	2.432616E-08
3.306528E+03	7.108061E-04	2.428653E-08
3.316518E+03	7.088350E-04	2.421918E-08
3.326507E+03	7.061392E-04	2.412707E-08
3.336497E+03	7.025626E-04	2.400486E-08
3.346486E+03	6.981951E-04	2.385564E-08
3.356476E+03	6.928934E-04	2.367449E-08
3.366465E+03	6.867536E-04	2.346471E-08
3.376455E+03	6.796505E-04	2.322201E-08
3.386444E+03	6.715831E-04	2.294637E-08
3.396434E+03	6.627688E-04	2.264520E-08
3.406423E+03	6.529063E-04	2.230823E-08
3.416413E+03	6.423304E-04	2.194687E-08
3.426402E+03	6.308764E-04	2.155552E-08
3.436392E+03	6.186945E-04	2.113929E-08
3.446381E+03	6.058482E-04	2.070037E-08
3.456371E+03	5.923310E-04	2.023852E-08
3.466360E+03	5.783315E-04	1.976019E-08
3.476350E+03	5.639640E-04	1.926928E-08
3.486339E+03	5.493613E-04	1.877035E-08
3.496329E+03	5.346758E-04	1.826858E-08
3.506318E+03	5.200798E-04	1.776987E-08
3.516308E+03	5.057674E-04	1.728085E-08
3.526297E+03	4.919547E-04	1.680890E-08
3.536287E+03	4.788824E-04	1.636225E-08
3.546276E+03	4.668169E-04	1.595000E-08
3.556266E+03	4.560531E-04	1.558223E-08
3.566255E+03	4.469708E-04	1.527191E-08
3.576245E+03	4.398056E-04	1.502709E-08
3.586234E+03	4.350066E-04	1.486312E-08
3.596224E+03	4.327674E-04	1.478661E-08
3.606213E+03	4.328094E-04	1.478805E-08
3.616203E+03	4.349035E-04	1.485960E-08
3.626192E+03	4.384871E-04	1.498204E-08
3.636182E+03	4.432853E-04	1.514598E-08
3.646172E+03	4.489744E-04	1.534037E-08
3.656161E+03	4.552328E-04	1.555420E-08
3.666151E+03	4.618858E-04	1.578152E-08
3.676140E+03	4.687556E-04	1.601624E-08
3.686130E+03	4.756584E-04	1.625209E-08
3.696119E+03	4.825530E-04	1.648767E-08
3.706109E+03	4.893894E-04	1.672125E-08
3.716098E+03	4.961586E-04	1.695254E-08
3.726088E+03	5.028901E-04	1.718253E-08
3.736077E+03	5.096019E-04	1.741186E-08
3.746067E+03	5.164947E-04	1.764737E-08
3.756056E+03	5.236539E-04	1.789198E-08
3.766046E+03	5.312443E-04	1.815133E-08
3.776035E+03	5.394583E-04	1.843198E-08
3.786025E+03	5.485611E-04	1.874300E-08
3.796014E+03	5.586931E-04	1.908919E-08
3.806004E+03	5.702095E-04	1.948268E-08
3.815993E+03	5.833363E-04	1.993119E-08
3.825983E+03	5.984135E-04	2.044634E-08
3.835972E+03	6.156964E-04	2.103685E-08
3.845962E+03	6.355548E-04	2.171536E-08
3.855951E+03	6.583225E-04	2.249328E-08
3.865941E+03	6.842919E-04	2.338059E-08
3.875930E+03	7.138143E-04	2.438930E-08
3.885920E+03	7.472971E-04	2.553333E-08
3.895909E+03	7.851355E-04	2.682617E-08
3.905899E+03	8.274396E-04	2.827160E-08
3.915888E+03	8.745879E-04	2.988255E-08
3.925878E+03	9.266114E-04	3.166006E-08
3.935867E+03	9.834612E-04	3.360248E-08
3.936956E+03	1.089201E-03	3.721534E-08
3.938216E+03	1.092787E-03	3.733789E-08
3.939475E+03	1.116939E-03	3.816310E-08
3.940734E+03	1.148712E-03	3.924870E-08
3.941994E+03	1.165590E-03	3.982538E-08
3.943254E+03	1.174720E-03	4.013734E-08
3.944513E+03	1.199916E-03	4.099821E-08
3.945772E+03	1.220746E-03	4.170992E-08
3.947032E+03	1.243126E-03	4.247458E-08
3.948291E+03	1.250379E-03	4.272241E-08
3.949551E+03	1.263825E-03	4.318183E-08
3.950811E+03	1.288732E-03	4.403283E-08
3.952069E+03	1.302217E-03	4.449358E-08
3.953329E+03	1.314106E-03	4.489982E-08
3.954589E+03	1.332465E-03	4.552710E-08
3.955848E+03	1.345917E-03	4.598671E-08
3.957107E+03	1.366529E-03	4.669096E-08
3.958367E+03	1.394145E-03	4.763454E-08
3.959626E+03	1.417282E-03	4.842509E-08
3.960886E+03	1.419484E-03	4.850033E-08
3.962146E+03	1.412990E-03	4.827842E-08
3.963404E+03	1.401108E-03	4.787247E-08
3.964664E+03	1.393480E-03	4.761183E-08
3.965924E+03	1.399169E-03	4.780621E-08
3.967183E+03	1.415380E-03	4.836008E-08
3.968443E+03	1.422541E-03	4.860477E-08
3.969702E+03	1.418752E-03	4.847530E-08
3.970961E+03	1.430718E-03	4.888417E-08
3.972221E+03	1.452985E-03	4.964496E-08
3.973481E+03	1.461126E-03	4.992312E-08
3.974740E+03	1.453054E-03	4.964732E-08
3.975999E+03	1.450982E-03	4.957652E-08
3.977259E+03	1.458359E-03	4.982857E-08
3.978519E+03	1.469441E-03	5.020723E-08
3.979777E+03	1.483805E-03	5.069800E-08
3.981037E+03	1.484237E-03	5.071278E-08
3.982297E+03	1.494577E-03	5.106606E-08
3.983556E+03	1.514670E-03	5.175258E-08
3.984816E+03	1.521846E-03	5.199779E-08
3.986075E+03	1.516081E-03	5.180080E-08
3.987334E+03	1.514885E-03	5.175995E-08
3.988594E+03	1.515328E-03	5.177509E-08
3.989854E+03	1.516722E-03	5.182270E-08
3.991113E+03	1.529106E-03	5.224583E-08
3.992372E+03	1.535787E-03	5.247412E-08
3.993632E+03	1.534938E-03	5.244510E-08
3.994891E+03	1.534692E-03	5.243670E-08
3.996151E+03	1.526289E-03	5.214958E-08
3.997411E+03	1.528031E-03	5.220909E-08
3.998669E+03	1.535071E-03	5.244964E-08
3.999929E+03	1.537599E-03	5.253601E-08
4.001189E+03	1.526994E-03	5.217368E-08
4.002448E+03	1.514285E-03	5.173946E-08
4.003707E+03	1.502778E-03	5.134626E-08
4.004967E+03	1.489250E-03	5.088406E-08
4.006226E+03	1.467508E-03	5.014117E-08
4.007486E+03	1.452803E-03	4.963876E-08
4.008746E+03	1.454317E-03	4.969049E-08
4.010004E+03	1.457491E-03	4.979892E-08
4.011264E+03	1.452275E-03	4.962072E-08
4.012524E+03	1.444165E-03	4.934362E-08
4.013784E+03	1.436743E-03	4.909003E-08
4.015042E+03	1.422392E-03	4.859967E-08
4.016302E+03	1.401624E-03	4.789009E-08
4.017562E+03	1.378637E-03	4.710469E-08
4.018821E+03	1.353427E-03	4.624331E-08
4.020081E+03	1.332310E-03	4.552180E-08
4.021340E+03	1.318720E-03	4.505744E-08
4.022599E+03	1.314077E-03	4.489882E-08
4.023859E+03	1.309955E-03	4.475798E-08
4.025119E+03	1.306970E-03	4.465600E-08
4.026378E+03	1.302307E-03	4.449667E-08
4.027637E+03	1.309003E-03	4.472544E-08
4.028897E+03	1.328489E-03	4.539126E-08
4.030156E+03	1.354615E-03	4.628389E-08
4.031416E+03	1.384301E-03	4.729819E-08
4.032676E+03	1.406602E-03	4.806016E-08
4.033934E+03	1.425127E-03	4.869313E-08
4.035194E+03	1.454727E-03	4.970450E-08
4.036454E+03	1.478787E-03	5.052656E-08
4.037713E+03	1.501103E-03	5.128905E-08
4.038972E+03	1.534695E-03	5.243679E-08
4.040232E+03	1.572137E-03	5.371611E-08
4.041491E+03	1.611485E-03	5.506054E-08
4.042751E+03	1.644045E-03	5.617301E-08
4.044010E+03	1.674597E-03	5.721693E-08
4.045269E+03	1.706074E-03	5.829240E-08
4.046529E+03	1.744610E-03	5.960908E-08
4.047789E+03	1.784791E-03	6.098196E-08
4.049048E+03	1.826975E-03	6.242331E-08
4.050307E+03	1.869741E-03	6.388450E-08
4.051567E+03	1.914338E-03	6.540828E-08
4.052827E+03	1.945610E-03	6.647678E-08
4.054086E+03	1.981467E-03	6.770190E-08
4.055346E+03	2.028702E-03	6.931582E-08
4.056605E+03	2.076346E-03	7.094371E-08
4.057864E+03	2.116090E-03	7.230167E-08
4.059124E+03	2.150600E-03	7.348077E-08
4.060384E+03	2.192308E-03	7.490584E-08
4.061642E+03	2.241404E-03	7.658331E-08
4.062902E+03	2.291449E-03	7.829326E-08
4.064162E+03	2.341552E-03	8.000513E-08
4.065421E+03	2.392696E-03	8.175261E-08
4.066681E+03	2.446678E-03	8.359705E-08
4.067940E+03	2.495960E-03	8.528088E-08
4.069199E+03	2.533255E-03	8.655516E-08
4.070459E+03	2.561510E-03	8.752059E-08
4.071719E+03	2.596004E-03	8.869915E-08
4.072978E+03	2.638273E-03	9.014339E-08
4.074237E+03	2.670499E-03	9.124448E-08
4.075497E+03	2.688704E-03	9.186647E-08
4.076756E+03	2.702506E-03	9.233807E-08
4.078016E+03	2.725615E-03	9.312763E-08
4.079276E+03	2.751183E-03	9.400123E-08
4.080534E+03	2.764040E-03	9.444053E-08
4.081794E+03	2.770856E-03	9.467340E-08
4.083054E+03	2.788164E-03	9.526478E-08
4.084313E+03	2.809832E-03	9.600511E-08
4.085572E+03	2.827808E-03	9.661932E-08
4.086832E+03	2.842540E-03	9.712269E-08
4.088092E+03	2.847862E-03	9.730453E-08
4.089351E+03	2.850828E-03	9.740588E-08
4.090610E+03	2.857692E-03	9.764040E-08
4.091870E+03	2.859933E-03	9.771698E-08
4.093129E+03	2.856362E-03	9.759494E-08
4.094389E+03	2.855326E-03	9.755955E-08
4.095649E+03	2.853466E-03	9.749600E-08
4.096907E+03	2.845505E-03	9.722398E-08
4.098167E+03	2.836895E-03	9.692979E-08
4.099427E+03	2.830001E-03	9.669425E-08
4.100686E+03	2.814439E-03	9.616253E-08
4.101946E+03	2.789738E-03	9.531858E-08
4.103205E+03	2.763544E-03	9.442358E-08
4.104464E+03	2.744167E-03	9.376150E-08
4.105724E+03	2.729605E-03	9.326395E-08
4.106984E+03	2.714201E-03	9.273766E-08
4.108242E+03	2.705542E-03	9.244180E-08
4.109502E+03	2.693395E-03	9.202677E-08
4.110762E+03	2.676654E-03	9.145475E-08
4.112021E+03	2.655129E-03	9.071932E-08
4.113281E+03	2.632844E-03	8.995788E-08
4.114540E+03	2.617408E-03	8.943046E-08
4.115799E+03	2.602961E-03	8.893686E-08
4.117059E+03	2.580510E-03	8.816974E-08
4.118319E+03	2.555274E-03	8.730751E-08
4.119578E+03	2.533961E-03	8.657930E-08
4.120837E+03	2.502508E-03	8.550462E-08
4.122097E+03	2.463568E-03	8.417412E-08
4.123356E+03	2.433509E-03	8.314710E-08
4.124616E+03	2.417413E-03	8.259713E-08
4.125876E+03	2.396229E-03	8.187331E-08
4.127135E+03	2.356304E-03	8.050919E-08
4.128394E+03	2.313385E-03	7.904274E-08
4.129654E+03	2.266816E-03	7.745159E-08
4.130914E+03	2.226290E-03	7.606693E-08
4.132172E+03	2.196986E-03	7.506566E-08
4.133432E+03	2.160534E-03	7.382020E-08
4.134692E+03	2.117380E-03	7.234573E-08
4.135951E+03	2.082785E-03	7.116370E-08
4.137211E+03	2.047779E-03	6.996762E-08
4.138470E+03	1.999302E-03	6.831130E-08
4.139729E+03	1.946789E-03	6.651704E-08
4.140989E+03	1.900151E-03	6.492356E-08
4.142249E+03	1.855689E-03	6.340439E-08
4.143507E+03	1.807465E-03	6.175667E-08
4.144767E+03	1.763275E-03	6.024680E-08
4.146027E+03	1.721173E-03	5.880830E-08
4.147286E+03	1.675028E-03	5.723164E-08
4.148546E+03	1.642971E-03	5.613634E-08
4.149805E+03	1.621673E-03	5.540864E-08
4.151064E+03	1.593555E-03	5.444791E-08
4.152324E+03	1.558792E-03	5.326013E-08
4.153584E+03	1.521754E-03	5.199463E-08
4.154843E+03	1.490831E-03	5.093806E-08
4.156102E+03	1.475734E-03	5.042224E-08
4.157362E+03	1.458941E-03	4.984845E-08
4.158621E+03	1.434843E-03	4.902510E-08
4.159881E+03	1.408570E-03	4.812741E-08
4.161140E+03	1.381894E-03	4.721596E-08
4.162399E+03	1.367069E-03	4.670943E-08
4.163659E+03	1.365517E-03	4.665639E-08
4.164919E+03	1.361152E-03	4.650726E-08
4.166178E+03	1.358842E-03	4.642832E-08
4.167437E+03	1.353810E-03	4.625640E-08
4.168697E+03	1.344176E-03	4.592724E-08
4.169957E+03	1.336502E-03	4.566502E-08
4.171216E+03	1.334826E-03	4.560774E-08
4.172475E+03	1.339813E-03	4.577816E-08
4.173735E+03	1.342362E-03	4.586525E-08
4.174994E+03	1.347544E-03	4.604230E-08
4.176254E+03	1.350566E-03	4.614556E-08
4.177514E+03	1.345591E-03	4.597556E-08
4.178772E+03	1.347387E-03	4.603694E-08
4.180032E+03	1.345699E-03	4.597926E-08
4.181292E+03	1.340426E-03	4.579909E-08
4.182551E+03	1.348724E-03	4.608262E-08
4.183810E+03	1.349387E-03	4.610526E-08
4.185070E+03	1.350521E-03	4.614402E-08
4.186329E+03	1.354771E-03	4.628922E-08
4.187589E+03	1.361479E-03	4.651844E-08
4.188849E+03	1.379441E-03	4.713215E-08
4.190107E+03	1.403470E-03	4.795316E-08
4.191367E+03	1.420615E-03	4.853895E-08
4.192627E+03	1.428971E-03	4.882447E-08
4.193886E+03	1.435534E-03	4.904871E-08
4.195146E+03	1.443050E-03	4.930549E-08
4.196405E+03	1.448769E-03	4.950090E-08
4.197664E+03	1.454018E-03	4.968025E-08
4.198924E+03	1.464679E-03	5.004451E-08
4.200184E+03	1.475538E-03	5.041554E-08
4.201443E+03	1.476243E-03	5.043964E-08
4.202702E+03	1.467349E-03	5.013576E-08
4.203962E+03	1.460918E-03	4.991600E-08
4.205222E+03	1.459804E-03	4.987797E-08
4.206481E+03	1.460116E-03	4.988860E-08
4.207740E+03	1.455379E-03	4.972676E-08
4.209000E+03	1.444636E-03	4.935970E-08
4.210259E+03	1.443315E-03	4.931457E-08
4.211519E+03	1.450381E-03	4.955600E-08
4.212779E+03	1.452301E-03	4.962161E-08
4.214037E+03	1.446396E-03	4.941983E-08
4.215297E+03	1.437810E-03	4.912648E-08
4.216557E+03	1.426827E-03	4.875121E-08
4.217816E+03	1.424624E-03	4.867592E-08
4.219076E+03	1.421938E-03	4.858417E-08
4.220335E+03	1.414466E-03	4.832885E-08
4.221594E+03	1.405167E-03	4.801113E-08
4.222854E+03	1.402559E-03	4.792204E-08
4.224114E+03	1.403875E-03	4.796698E-08
4.225372E+03	1.403464E-03	4.795295E-08
4.226632E+03	1.394136E-03	4.763425E-08
4.227892E+03	1.380770E-03	4.717754E-08
4.229151E+03	1.367485E-03	4.672364E-08
4.230410E+03	1.350634E-03	4.614789E-08
4.231670E+03	1.335400E-03	4.562736E-08
4.232929E+03	1.323321E-03	4.521464E-08
4.234189E+03	1.312382E-03	4.484091E-08
4.235449E+03	1.300375E-03	4.443065E-08
4.236707E+03	1.288066E-03	4.401007E-08
4.237967E+03	1.270354E-03	4.340490E-08
4.239227E+03	1.248195E-03	4.264778E-08
4.240486E+03	1.228808E-03	4.198539E-08
4.241746E+03	1.213644E-03	4.146726E-08
4.243005E+03	1.203382E-03	4.111664E-08
4.244265E+03	1.187033E-03	4.055802E-08
4.245524E+03	1.164393E-03	3.978448E-08
4.246784E+03	1.145595E-03	3.914219E-08
4.248043E+03	1.135762E-03	3.880623E-08
4.249302E+03	1.122440E-03	3.835106E-08
4.250562E+03	1.105045E-03	3.775670E-08
4.251822E+03	1.095178E-03	3.741956E-08
4.253081E+03	1.087623E-03	3.716143E-08
4.254340E+03	1.074735E-03	3.672108E-08
4.255600E+03	1.056314E-03	3.609169E-08
4.256859E+03	1.043593E-03	3.565705E-08
4.258119E+03	1.035513E-03	3.538097E-08
4.259378E+03	1.032467E-03	3.527690E-08
4.260637E+03	1.033881E-03	3.532520E-08
4.261897E+03	1.024423E-03	3.500205E-08
4.263157E+03	1.015442E-03	3.469518E-08
4.264416E+03	1.012183E-03	3.458383E-08
4.265675E+03	1.008045E-03	3.444245E-08
4.266935E+03	1.001278E-03	3.421123E-08
4.268194E+03	1.002966E-03	3.426890E-08
4.269454E+03	1.017305E-03	3.475883E-08
4.270714E+03	1.034672E-03	3.535224E-08
4.271972E+03	1.049423E-03	3.585624E-08
4.273232E+03	1.063309E-03	3.633067E-08
4.274492E+03	1.077107E-03	3.680212E-08
4.275751E+03	1.091988E-03	3.731057E-08
4.277011E+03	1.112733E-03	3.801939E-08
4.278270E+03	1.129297E-03	3.858534E-08
4.279529E+03	1.138258E-03	3.889152E-08
4.280789E+03	1.149765E-03	3.928467E-08
4.282049E+03	1.171931E-03	4.004203E-08
4.283308E+03	1.199880E-03	4.099699E-08
4.284567E+03	1.221495E-03	4.173552E-08
4.285827E+03	1.235788E-03	4.222387E-08
4.287087E+03	1.254496E-03	4.286306E-08
4.288346E+03	1.275763E-03	4.358970E-08
4.289605E+03	1.291951E-03	4.414281E-08
4.290865E+03	1.312462E-03	4.484365E-08
4.292124E+03	1.339852E-03	4.577947E-08
4.293384E+03	1.365006E-03	4.663892E-08
4.294644E+03	1.384193E-03	4.729449E-08
4.295902E+03	1.398779E-03	4.779289E-08
4.297162E+03	1.411216E-03	4.821783E-08
4.298422E+03	1.425430E-03	4.870346E-08
4.299681E+03	1.443288E-03	4.931364E-08
4.300940E+03	1.458897E-03	4.984696E-08
4.302200E+03	1.476976E-03	5.046466E-08
4.303459E+03	1.493591E-03	5.103235E-08
4.304719E+03	1.503229E-03	5.136166E-08
4.305978E+03	1.508933E-03	5.155656E-08
4.307237E+03	1.517989E-03	5.186600E-08
4.308497E+03	1.527248E-03	5.218233E-08
4.309757E+03	1.537497E-03	5.253253E-08
4.311016E+03	1.544596E-03	5.277510E-08
4.312275E+03	1.540452E-03	5.263351E-08
4.313535E+03	1.540054E-03	5.261990E-08
4.314794E+03	1.540936E-03	5.265005E-08
4.316054E+03	1.536879E-03	5.251143E-08
4.317314E+03	1.527482E-03	5.219034E-08
4.318572E+03	1.520545E-03	5.195334E-08
4.319832E+03	1.515283E-03	5.177354E-08
4.321092E+03	1.506256E-03	5.146512E-08
4.322352E+03	1.498309E-03	5.119358E-08
4.323610E+03	1.497381E-03	5.116188E-08
4.324870E+03	1.498432E-03	5.119778E-08
4.326130E+03	1.493637E-03	5.103393E-08
4.327389E+03	1.482989E-03	5.067013E-08
4.328649E+03	1.474612E-03	5.038389E-08
4.329908E+03	1.469597E-03	5.021256E-08
4.331167E+03	1.462990E-03	4.998682E-08
4.332427E+03	1.452109E-03	4.961504E-08
4.333687E+03	1.439729E-03	4.919204E-08
4.334946E+03	1.433694E-03	4.898583E-08
4.336205E+03	1.424572E-03	4.867415E-08
4.337465E+03	1.413156E-03	4.828410E-08
4.338724E+03	1.406403E-03	4.805337E-08
4.339984E+03	1.401831E-03	4.789715E-08
4.341243E+03	1.402924E-03	4.793451E-08
4.342502E+03	1.406804E-03	4.806706E-08
4.343762E+03	1.411381E-03	4.822344E-08
4.345022E+03	1.415859E-03	4.837646E-08
4.346281E+03	1.420538E-03	4.853632E-08
4.347540E+03	1.430201E-03	4.886648E-08
4.348800E+03	1.448244E-03	4.948296E-08
4.350059E+03	1.462606E-03	4.997370E-08
4.351319E+03	1.482464E-03	5.065220E-08
4.352579E+03	1.505727E-03	5.144704E-08
4.353837E+03	1.520018E-03	5.193531E-08
4.355097E+03	1.529523E-03	5.226007E-08
4.356357E+03	1.539531E-03	5.260204E-08
4.357617E+03	1.545547E-03	5.280757E-08
4.358876E+03	1.553063E-03	5.306440E-08
4.360135E+03	1.574183E-03	5.378601E-08
4.361395E+03	1.595515E-03	5.451487E-08
4.362654E+03	1.614958E-03	5.517918E-08
4.363914E+03	1.631608E-03	5.574806E-08
4.365173E+03	1.642057E-03	5.610508E-08
4.366432E+03	1.657019E-03	5.661630E-08
4.367692E+03	1.673792E-03	5.718939E-08
4.368952E+03	1.688668E-03	5.769768E-08
4.370211E+03	1.703853E-03	5.821651E-08
4.371470E+03	1.722554E-03	5.885549E-08
4.372730E+03	1.740262E-03	5.946053E-08
4.373989E+03	1.754165E-03	5.993556E-08
4.375249E+03	1.765364E-03	6.031818E-08
4.376508E+03	1.773854E-03	6.060828E-08
4.377767E+03	1.776321E-03	6.069255E-08
4.379027E+03	1.783609E-03	6.094158E-08
4.380287E+03	1.783963E-03	6.095368E-08
4.381546E+03	1.783510E-03	6.093820E-08
4.382805E+03	1.787177E-03	6.106350E-08
4.384065E+03	1.788832E-03	6.112005E-08
4.385324E+03	1.793706E-03	6.128658E-08
4.386584E+03	1.800493E-03	6.151846E-08
4.387843E+03	1.809294E-03	6.181918E-08
4.389102E+03	1.813465E-03	6.196168E-08
4.390362E+03	1.818038E-03	6.211793E-08
4.391622E+03	1.830574E-03	6.254625E-08
4.392881E+03	1.837468E-03	6.278180E-08
4.394140E+03	1.836394E-03	6.274512E-08
4.395400E+03	1.840968E-03	6.290138E-08
4.396660E+03	1.854320E-03	6.335760E-08
4.397919E+03	1.870201E-03	6.390020E-08
4.399178E+03	1.879726E-03	6.422565E-08
4.400438E+03	1.883597E-03	6.435793E-08
4.401697E+03	1.888680E-03	6.453160E-08
4.402957E+03	1.902151E-03	6.499185E-08
4.404217E+03	1.916131E-03	6.546953E-08
4.405475E+03	1.922734E-03	6.569513E-08
4.406735E+03	1.933586E-03	6.606591E-08
4.407995E+03	1.947071E-03	6.652666E-08
4.409254E+03	1.961572E-03	6.702213E-08
4.410514E+03	1.981746E-03	6.771144E-08
4.411773E+03	1.999295E-03	6.831103E-08
4.413032E+03	2.013508E-03	6.879665E-08
4.414292E+03	2.032283E-03	6.943817E-08
4.415552E+03	2.050660E-03	7.006607E-08
4.416811E+03	2.064685E-03	7.054525E-08
