#wls	flux	fluxerr
1.598322E+03	1.351711E-05	1.706895E-06
1.638280E+03	1.357883E-05	1.708295E-06
1.678238E+03	1.364146E-05	1.709614E-06
1.718196E+03	1.370520E-05	1.710872E-06
1.758154E+03	1.377021E-05	1.712086E-06
1.798112E+03	1.383670E-05	1.713277E-06
1.838070E+03	1.391460E-05	1.715668E-06
1.878028E+03	1.399440E-05	1.718070E-06
1.917986E+03	1.407635E-05	1.720509E-06
1.957944E+03	1.416073E-05	1.723016E-06
1.997902E+03	1.424786E-05	1.725624E-06
2.037860E+03	1.434774E-05	1.729533E-06
2.077818E+03	1.444143E-05	1.732448E-06
2.117776E+03	1.454865E-05	1.736735E-06
2.157734E+03	1.466021E-05	1.741279E-06
2.197692E+03	1.478627E-05	1.747272E-06
2.237650E+03	1.490810E-05	1.752489E-06
2.277609E+03	1.504563E-05	1.759270E-06
2.317567E+03	1.518994E-05	1.766547E-06
2.357525E+03	1.534179E-05	1.774403E-06
2.397483E+03	1.550206E-05	1.782926E-06
2.437441E+03	1.568146E-05	1.793330E-06
2.477399E+03	1.586166E-05	1.803496E-06
2.517357E+03	1.606337E-05	1.815773E-06
2.557315E+03	1.627825E-05	1.829189E-06
2.597273E+03	1.650788E-05	1.843901E-06
2.637231E+03	1.676397E-05	1.861192E-06
2.677189E+03	1.702867E-05	1.879049E-06
2.717147E+03	1.732424E-05	1.899912E-06
2.757105E+03	1.764329E-05	1.922927E-06
2.797063E+03	1.799902E-05	1.949497E-06
2.837021E+03	1.837417E-05	1.977710E-06
2.876979E+03	1.879314E-05	2.010162E-06
2.916937E+03	1.923889E-05	2.044983E-06
2.956895E+03	1.973711E-05	2.084866E-06
2.996853E+03	2.029296E-05	2.130287E-06
3.006843E+03	2.043700E-05	2.142088E-06
3.016832E+03	2.058433E-05	2.154198E-06
3.026822E+03	2.073500E-05	2.166622E-06
3.036811E+03	2.088906E-05	2.179365E-06
3.046801E+03	2.104662E-05	2.192436E-06
3.056790E+03	2.120773E-05	2.205841E-06
3.066780E+03	2.137242E-05	2.219582E-06
3.076769E+03	2.155242E-05	2.234873E-06
3.086759E+03	2.172458E-05	2.249313E-06
3.096748E+03	2.190048E-05	2.264104E-06
3.106738E+03	2.208020E-05	2.279251E-06
3.116727E+03	2.226376E-05	2.294757E-06
3.126717E+03	2.246315E-05	2.311856E-06
3.136706E+03	2.265453E-05	2.328090E-06
3.146696E+03	2.284979E-05	2.344687E-06
3.156685E+03	2.304892E-05	2.361642E-06
3.166675E+03	2.326423E-05	2.380216E-06
3.176665E+03	2.347115E-05	2.397893E-06
3.186654E+03	2.368186E-05	2.415919E-06
3.196644E+03	2.389631E-05	2.434291E-06
3.206633E+03	2.412705E-05	2.454284E-06
3.216623E+03	2.434879E-05	2.473324E-06
3.226612E+03	2.457400E-05	2.492681E-06
3.236602E+03	2.481545E-05	2.513649E-06
3.246591E+03	2.504728E-05	2.533606E-06
3.256581E+03	2.529523E-05	2.555159E-06
3.266570E+03	2.553304E-05	2.575654E-06
3.276560E+03	2.577353E-05	2.596388E-06
3.286549E+03	2.602989E-05	2.618689E-06
3.296539E+03	2.627526E-05	2.639854E-06
3.306528E+03	2.653632E-05	2.662565E-06
3.316518E+03	2.678581E-05	2.684089E-06
3.326507E+03	2.703706E-05	2.705764E-06
3.336497E+03	2.730380E-05	2.728965E-06
3.346486E+03	2.755831E-05	2.750920E-06
3.356476E+03	2.782837E-05	2.774408E-06
3.366465E+03	2.808601E-05	2.796638E-06
3.376455E+03	2.835959E-05	2.820439E-06
3.386444E+03	2.862095E-05	2.843008E-06
3.396434E+03	2.889917E-05	2.867240E-06
3.406423E+03	2.916595E-05	2.890325E-06
3.416413E+03	2.945122E-05	2.915232E-06
3.426402E+03	2.972672E-05	2.939165E-06
3.436392E+03	3.002332E-05	2.965178E-06
3.446381E+03	3.032797E-05	2.991979E-06
3.456371E+03	3.062759E-05	3.018278E-06
3.466360E+03	3.095478E-05	3.047292E-06
3.476350E+03	3.128192E-05	3.076297E-06
3.486339E+03	3.164306E-05	3.108641E-06
3.496329E+03	3.202659E-05	3.143180E-06
3.506318E+03	3.242088E-05	3.178768E-06
3.516308E+03	3.286203E-05	3.218945E-06
3.526297E+03	3.332303E-05	3.261056E-06
3.536287E+03	3.384124E-05	3.308754E-06
3.546276E+03	3.440581E-05	3.360968E-06
3.556266E+03	3.500478E-05	3.416525E-06
3.566255E+03	3.567631E-05	3.479143E-06
3.576245E+03	3.640748E-05	3.547551E-06
3.586234E+03	3.718315E-05	3.620266E-06
3.596224E+03	3.804053E-05	3.700908E-06
3.606213E+03	3.896442E-05	3.787986E-06
3.616203E+03	3.995661E-05	3.881670E-06
3.626192E+03	4.099801E-05	3.980101E-06
3.636182E+03	4.212620E-05	4.086925E-06
3.646172E+03	4.331986E-05	4.200068E-06
3.656161E+03	4.457569E-05	4.319210E-06
3.666151E+03	4.586791E-05	4.441855E-06
3.676140E+03	4.723456E-05	4.571692E-06
3.686130E+03	4.864956E-05	4.706199E-06
3.696119E+03	5.010788E-05	4.844894E-06
3.706109E+03	5.160470E-05	4.987322E-06
3.716098E+03	5.311093E-05	5.130674E-06
3.726088E+03	5.467192E-05	5.279341E-06
3.736077E+03	5.626104E-05	5.430757E-06
3.746067E+03	5.787697E-05	5.584802E-06
3.756056E+03	5.951983E-05	5.741495E-06
3.766046E+03	6.116303E-05	5.898280E-06
3.776035E+03	6.286548E-05	6.060847E-06
3.786025E+03	6.460443E-05	6.227009E-06
3.796014E+03	6.638603E-05	6.397367E-06
3.806004E+03	6.821773E-05	6.572646E-06
3.815993E+03	7.010798E-05	6.753667E-06
3.825983E+03	7.206590E-05	6.941319E-06
3.835972E+03	7.410105E-05	7.136528E-06
3.845962E+03	7.618827E-05	7.336880E-06
3.855951E+03	7.840474E-05	7.549817E-06
3.865941E+03	8.072482E-05	7.772878E-06
3.875930E+03	8.315519E-05	8.006718E-06
3.885920E+03	8.570075E-05	8.251819E-06
3.895909E+03	8.836420E-05	8.508454E-06
3.905899E+03	9.114577E-05	8.776656E-06
3.915888E+03	9.404281E-05	9.056187E-06
3.925878E+03	9.704975E-05	9.346523E-06
3.935867E+03	1.001578E-04	9.646838E-06
3.945857E+03	1.033551E-04	9.955998E-06
3.955846E+03	1.066267E-04	1.027257E-05
3.965836E+03	1.099544E-04	1.059485E-05
3.975825E+03	1.133176E-04	1.092084E-05
3.985815E+03	1.166931E-04	1.124832E-05
3.995804E+03	1.200556E-04	1.157487E-05
4.005794E+03	1.233782E-04	1.189790E-05
4.015783E+03	1.266325E-04	1.221468E-05
4.025773E+03	1.297894E-04	1.252241E-05
4.035762E+03	1.328187E-04	1.281818E-05
4.045752E+03	1.356904E-04	1.309908E-05
4.055741E+03	1.383751E-04	1.336227E-05
4.065731E+03	1.408440E-04	1.360496E-05
4.075720E+03	1.430704E-04	1.382455E-05
4.085710E+03	1.450313E-04	1.401880E-05
4.095700E+03	1.467079E-04	1.418586E-05
4.105689E+03	1.480871E-04	1.432444E-05
4.115679E+03	1.491633E-04	1.443397E-05
4.125668E+03	1.499398E-04	1.451471E-05
4.135658E+03	1.504283E-04	1.456779E-05
4.145647E+03	1.506489E-04	1.459509E-05
4.155637E+03	1.506295E-04	1.459929E-05
4.165626E+03	1.504046E-04	1.458370E-05
4.175616E+03	1.500131E-04	1.455207E-05
4.185605E+03	1.494962E-04	1.450835E-05
4.195595E+03	1.488967E-04	1.445668E-05
4.205584E+03	1.482578E-04	1.440126E-05
4.215574E+03	1.476224E-04	1.434622E-05
4.225563E+03	1.470322E-04	1.429561E-05
4.235553E+03	1.465284E-04	1.425345E-05
4.245542E+03	1.461526E-04	1.422378E-05
4.255532E+03	1.459445E-04	1.421049E-05
4.265521E+03	1.459406E-04	1.421714E-05
4.275511E+03	1.461728E-04	1.424689E-05
4.285500E+03	1.466695E-04	1.430252E-05
4.295490E+03	1.474561E-04	1.438653E-05
4.305479E+03	1.486157E-04	1.450709E-05
4.315469E+03	1.500468E-04	1.465434E-05
4.325458E+03	1.518299E-04	1.483616E-05
4.335448E+03	1.539843E-04	1.505452E-05
4.345437E+03	1.565307E-04	1.531148E-05
4.355427E+03	1.594917E-04	1.560930E-05
4.365416E+03	1.628927E-04	1.595055E-05
4.375406E+03	1.667631E-04	1.633816E-05
4.385395E+03	1.711365E-04	1.677549E-05
4.395385E+03	1.760521E-04	1.726647E-05
4.405374E+03	1.815550E-04	1.781558E-05
4.415364E+03	1.876965E-04	1.842798E-05
4.425353E+03	1.945347E-04	1.910944E-05
4.435343E+03	2.021335E-04	1.986636E-05
4.445332E+03	2.105617E-04	2.070561E-05
4.455322E+03	2.198900E-04	2.163426E-05
4.465311E+03	2.301904E-04	2.265955E-05
4.475301E+03	2.416271E-04	2.379776E-05
4.485290E+03	2.540716E-04	2.503640E-05
4.495280E+03	2.676598E-04	2.638902E-05
4.505269E+03	2.824144E-04	2.785801E-05
4.515259E+03	2.983244E-04	2.944244E-05
4.525248E+03	3.153397E-04	3.113751E-05
4.535238E+03	3.333643E-04	3.293389E-05
4.545228E+03	3.522461E-04	3.481665E-05
4.555217E+03	3.717752E-04	3.676515E-05
4.565207E+03	3.916852E-04	3.875308E-05
4.575196E+03	4.116560E-04	4.074879E-05
4.585186E+03	4.313261E-04	4.271643E-05
4.595175E+03	4.503199E-04	4.461872E-05
4.605165E+03	4.682821E-04	4.642029E-05
4.615154E+03	4.848895E-04	4.808891E-05
4.625144E+03	4.998714E-04	4.959749E-05
4.635133E+03	5.130361E-04	5.092676E-05
4.645123E+03	5.242741E-04	5.206554E-05
4.655112E+03	5.335550E-04	5.301053E-05
4.665102E+03	5.409262E-04	5.376615E-05
4.675091E+03	5.465146E-04	5.434476E-05
4.685081E+03	5.505413E-04	5.476808E-05
4.695070E+03	5.533315E-04	5.506830E-05
4.705060E+03	5.552820E-04	5.528471E-05
4.715049E+03	5.568371E-04	5.546147E-05
4.725039E+03	5.584837E-04	5.564702E-05
4.735028E+03	5.607222E-04	5.589126E-05
4.745018E+03	5.640513E-04	5.624393E-05
4.755007E+03	5.687571E-04	5.673370E-05
4.764997E+03	5.757437E-04	5.745090E-05
4.774986E+03	5.852276E-04	5.841736E-05
4.784976E+03	5.975745E-04	5.966979E-05
4.794965E+03	6.130862E-04	6.123862E-05
4.804955E+03	6.319924E-04	6.314701E-05
4.814944E+03	6.544297E-04	6.540891E-05
4.824934E+03	6.804290E-04	6.802762E-05
4.834923E+03	7.098862E-04	7.099297E-05
4.844913E+03	7.425185E-04	7.427688E-05
4.854902E+03	7.775716E-04	7.780400E-05
4.864892E+03	8.150000E-04	8.156987E-05
4.874881E+03	8.538471E-04	8.547875E-05
4.884871E+03	8.933125E-04	8.945048E-05
4.894860E+03	9.324716E-04	9.339233E-05
4.904850E+03	9.703373E-04	9.720526E-05
4.914839E+03	1.005505E-03	1.007483E-04
4.924829E+03	1.037750E-03	1.039987E-04
4.934818E+03	1.066070E-03	1.068556E-04
4.944808E+03	1.090025E-03	1.092746E-04
4.954797E+03	1.108903E-03	1.111840E-04
4.964787E+03	1.123353E-03	1.126487E-04
4.974776E+03	1.132914E-03	1.136220E-04
4.984766E+03	1.137486E-03	1.140938E-04
4.994756E+03	1.136462E-03	1.140028E-04
5.004745E+03	1.130418E-03	1.134067E-04
5.014735E+03	1.118734E-03	1.122433E-04
5.024724E+03	1.100893E-03	1.104604E-04
5.034714E+03	1.077740E-03	1.081429E-04
5.044703E+03	1.049414E-03	1.053047E-04
5.054693E+03	1.016842E-03	1.020389E-04
5.064682E+03	9.823618E-04	9.857997E-05
5.074672E+03	9.471665E-04	9.504798E-05
5.084661E+03	9.124124E-04	9.155903E-05
5.094651E+03	8.800290E-04	8.830688E-05
5.104640E+03	8.506475E-04	8.535493E-05
5.114630E+03	8.246324E-04	8.273987E-05
5.124619E+03	8.029794E-04	8.056161E-05
5.134609E+03	7.852904E-04	7.878021E-05
5.144598E+03	7.720720E-04	7.744647E-05
5.154588E+03	7.625606E-04	7.648369E-05
5.164577E+03	7.569227E-04	7.590849E-05
5.174567E+03	7.540600E-04	7.561062E-05
5.184556E+03	7.538237E-04	7.557503E-05
5.194546E+03	7.550194E-04	7.568187E-05
5.204535E+03	7.576020E-04	7.592654E-05
5.214525E+03	7.605210E-04	7.620367E-05
5.224514E+03	7.638098E-04	7.651658E-05
5.234504E+03	7.665064E-04	7.676887E-05
5.244493E+03	7.687667E-04	7.697617E-05
5.254483E+03	7.697760E-04	7.705694E-05
5.264472E+03	7.696679E-04	7.702464E-05
5.274462E+03	7.686851E-04	7.690365E-05
5.284451E+03	7.663569E-04	7.664695E-05
5.294441E+03	7.630961E-04	7.629595E-05
5.304430E+03	7.593668E-04	7.589714E-05
5.314420E+03	7.548643E-04	7.542014E-05
5.324409E+03	7.500554E-04	7.491166E-05
5.334399E+03	7.451460E-04	7.439231E-05
5.344388E+03	7.406312E-04	7.391153E-05
5.354378E+03	7.363082E-04	7.344907E-05
5.364367E+03	7.327577E-04	7.306280E-05
5.374357E+03	7.302873E-04	7.278331E-05
5.384346E+03	7.294153E-04	7.266207E-05
5.394336E+03	7.298776E-04	7.267258E-05
5.404325E+03	7.320684E-04	7.285385E-05
5.414315E+03	7.359998E-04	7.320682E-05
5.424304E+03	7.415978E-04	7.372382E-05
5.434294E+03	7.487359E-04	7.439201E-05
5.444284E+03	7.572287E-04	7.519265E-05
5.454273E+03	7.668572E-04	7.610376E-05
5.464263E+03	7.774209E-04	7.710517E-05
5.474252E+03	7.887744E-04	7.818227E-05
5.484242E+03	8.007560E-04	7.931881E-05
5.494231E+03	8.129587E-04	8.047433E-05
5.504221E+03	8.245111E-04	8.156251E-05
5.514210E+03	8.342668E-04	8.247010E-05
5.524200E+03	8.410497E-04	8.308124E-05
5.534189E+03	8.437835E-04	8.329026E-05
5.544179E+03	8.416010E-04	8.301249E-05
5.554168E+03	8.341864E-04	8.221790E-05
5.564158E+03	8.220977E-04	8.096266E-05
5.574147E+03	8.063886E-04	7.935162E-05
5.584137E+03	7.879412E-04	7.747243E-05
5.594126E+03	7.683585E-04	7.548333E-05
5.604116E+03	7.483354E-04	7.345292E-05
5.614105E+03	7.285771E-04	7.145056E-05
5.624095E+03	7.091650E-04	6.948427E-05
5.634084E+03	6.906518E-04	6.760814E-05
5.644074E+03	6.726472E-04	6.578387E-05
5.654063E+03	6.546687E-04	6.396426E-05
5.664053E+03	6.359255E-04	6.207222E-05
5.674042E+03	6.163743E-04	6.010384E-05
5.684032E+03	5.953279E-04	5.799252E-05
5.694021E+03	5.731018E-04	5.576950E-05
5.704011E+03	5.497263E-04	5.343823E-05
5.714000E+03	5.256588E-04	5.104360E-05
5.723990E+03	5.020665E-04	4.869916E-05
5.733979E+03	4.795621E-04	4.646426E-05
5.743969E+03	4.595882E-04	4.447828E-05
5.753958E+03	4.429137E-04	4.281483E-05
5.763948E+03	4.306485E-04	4.158004E-05
5.773937E+03	4.230284E-04	4.079520E-05
5.783927E+03	4.205753E-04	4.050903E-05
5.793916E+03	4.237581E-04	4.076479E-05
5.803906E+03	4.325906E-04	4.156178E-05
5.813895E+03	4.475022E-04	4.293908E-05
5.823885E+03	4.689289E-04	4.493613E-05
5.833874E+03	4.967543E-04	4.753920E-05
5.843864E+03	5.311403E-04	5.076114E-05
5.853853E+03	5.717421E-04	5.456633E-05
5.863843E+03	6.177001E-04	5.887011E-05
5.873832E+03	6.668212E-04	6.346137E-05
5.883822E+03	7.168968E-04	6.812865E-05
5.893811E+03	7.652078E-04	7.261324E-05
5.903801E+03	8.088443E-04	7.663985E-05
5.913791E+03	8.452067E-04	7.996427E-05
5.923780E+03	8.727403E-04	8.244253E-05
5.933770E+03	8.908696E-04	8.402403E-05
5.943759E+03	8.997582E-04	8.472823E-05
5.953749E+03	9.002379E-04	8.463740E-05
5.963738E+03	8.936388E-04	8.388019E-05
5.973728E+03	8.815150E-04	8.260552E-05
5.983717E+03	8.654044E-04	8.095991E-05
5.993707E+03	8.468182E-04	7.908646E-05
6.003696E+03	8.272434E-04	7.712510E-05
6.013686E+03	8.080912E-04	7.520775E-05
6.023675E+03	7.906495E-04	7.345398E-05
6.033665E+03	7.757686E-04	7.194189E-05
6.043654E+03	7.647909E-04	7.079455E-05
6.053644E+03	7.581443E-04	7.004958E-05
6.063633E+03	7.563094E-04	6.974912E-05
6.073623E+03	7.592540E-04	6.988771E-05
6.083612E+03	7.674991E-04	7.051069E-05
6.093602E+03	7.807160E-04	7.158505E-05
6.103591E+03	7.983377E-04	7.305615E-05
6.113581E+03	8.203828E-04	7.492318E-05
6.123570E+03	8.457913E-04	7.708698E-05
6.133560E+03	8.744723E-04	7.953724E-05
6.143549E+03	9.052218E-04	8.216266E-05
6.153539E+03	9.379843E-04	8.495687E-05
6.163528E+03	9.717919E-04	8.783102E-05
6.173518E+03	1.006988E-03	9.081528E-05
6.183507E+03	1.042837E-03	9.384236E-05
6.193497E+03	1.080075E-03	9.697788E-05
6.203486E+03	1.118226E-03	1.001780E-04
6.213476E+03	1.157536E-03	1.034640E-04
6.223465E+03	1.197724E-03	1.068098E-04
6.233455E+03	1.236922E-03	1.100486E-04
6.243444E+03	1.273824E-03	1.130646E-04
6.253434E+03	1.306035E-03	1.156471E-04
6.263423E+03	1.331165E-03	1.175877E-04
6.273413E+03	1.345690E-03	1.185804E-04
6.283402E+03	1.347786E-03	1.184715E-04
6.293392E+03	1.335948E-03	1.171370E-04
6.303381E+03	1.309752E-03	1.145495E-04
6.313371E+03	1.270174E-03	1.108036E-04
6.323360E+03	1.219300E-03	1.060900E-04
6.333350E+03	1.160151E-03	1.006789E-04
6.343339E+03	1.096549E-03	9.490725E-05
6.353329E+03	1.032479E-03	8.912231E-05
6.363319E+03	9.717722E-04	8.365463E-05
6.373308E+03	9.180888E-04	7.881650E-05
6.383298E+03	8.746449E-04	7.487858E-05
6.393287E+03	8.442876E-04	7.207689E-05
6.403277E+03	8.296496E-04	7.062627E-05
6.413266E+03	8.344931E-04	7.083477E-05
6.423256E+03	8.626375E-04	7.301134E-05
6.433245E+03	9.197016E-04	7.761276E-05
6.443235E+03	1.013543E-03	8.527825E-05
6.453224E+03	1.156073E-03	9.697893E-05
6.463214E+03	1.361697E-03	1.138817E-04
6.473203E+03	1.649211E-03	1.375045E-04
6.483193E+03	2.043692E-03	1.698670E-04
6.493182E+03	2.571133E-03	2.130374E-04
6.503172E+03	3.254500E-03	2.688060E-04
6.513161E+03	4.107680E-03	3.381892E-04
6.523151E+03	5.112842E-03	4.195841E-04
6.533140E+03	6.211621E-03	5.080894E-04
6.543130E+03	7.284630E-03	5.938900E-04
6.553119E+03	8.176182E-03	6.643504E-04
6.563109E+03	8.723694E-03	7.064474E-04
6.573098E+03	8.812471E-03	7.112044E-04
6.583088E+03	8.450793E-03	6.796667E-04
6.593077E+03	7.741979E-03	6.204926E-04
6.603067E+03	6.826378E-03	5.451867E-04
6.613056E+03	5.853147E-03	4.657991E-04
6.623046E+03	4.933667E-03	3.912165E-04
6.633035E+03	4.130136E-03	3.263123E-04
6.643025E+03	3.457738E-03	2.721864E-04
6.653014E+03	2.913115E-03	2.284654E-04
6.663004E+03	2.480912E-03	1.938411E-04
6.672993E+03	2.141099E-03	1.666578E-04
6.682983E+03	1.874703E-03	1.453645E-04
6.692972E+03	1.665885E-03	1.286740E-04
6.702962E+03	1.501675E-03	1.155377E-04
6.712951E+03	1.371766E-03	1.051263E-04
6.722941E+03	1.268222E-03	9.680391E-05
6.732930E+03	1.185043E-03	9.009053E-05
6.742920E+03	1.117559E-03	8.461444E-05
6.752909E+03	1.062146E-03	8.008820E-05
6.762899E+03	1.015805E-03	7.627570E-05
6.772888E+03	9.770627E-04	7.305846E-05
6.782878E+03	9.439411E-04	7.028229E-05
6.792867E+03	9.152306E-04	6.785234E-05
6.802857E+03	8.897355E-04	6.567631E-05
6.812847E+03	8.672930E-04	6.373928E-05
6.822836E+03	8.471786E-04	6.198543E-05
6.832826E+03	8.288601E-04	6.037383E-05
6.842815E+03	8.127288E-04	5.893121E-05
6.852805E+03	7.984100E-04	5.762845E-05
6.862794E+03	7.866186E-04	5.651521E-05
6.872784E+03	7.771183E-04	5.557215E-05
6.882773E+03	7.706200E-04	5.484760E-05
6.892763E+03	7.668704E-04	5.432063E-05
6.902752E+03	7.664768E-04	5.403130E-05
6.912742E+03	7.690183E-04	5.394664E-05
6.922731E+03	7.749188E-04	5.409321E-05
6.932721E+03	7.836112E-04	5.442812E-05
6.942710E+03	7.951563E-04	5.495262E-05
6.952700E+03	8.095524E-04	5.566356E-05
6.962689E+03	8.259999E-04	5.650316E-05
6.972679E+03	8.443504E-04	5.745907E-05
6.982668E+03	8.641397E-04	5.849775E-05
6.992658E+03	8.848517E-04	5.958281E-05
7.002647E+03	9.062338E-04	6.069624E-05
7.012637E+03	9.272093E-04	6.176548E-05
7.022626E+03	9.475394E-04	6.277506E-05
7.032616E+03	9.668380E-04	6.370016E-05
7.042605E+03	9.848172E-04	6.452295E-05
7.052595E+03	1.001310E-03	6.523396E-05
7.062584E+03	1.016345E-03	6.583652E-05
7.072574E+03	1.030110E-03	6.634447E-05
7.082563E+03	1.043001E-03	6.678441E-05
7.092553E+03	1.055704E-03	6.720094E-05
7.102542E+03	1.068766E-03	6.762895E-05
7.112532E+03	1.083781E-03	6.816815E-05
7.122521E+03	1.101448E-03	6.886005E-05
7.132511E+03	1.122827E-03	6.976742E-05
7.142500E+03	1.149029E-03	7.095456E-05
7.152490E+03	1.180890E-03	7.246715E-05
7.162479E+03	1.220358E-03	7.441729E-05
7.172469E+03	1.268372E-03	7.685300E-05
7.182458E+03	1.325861E-03	7.982001E-05
7.192448E+03	1.394908E-03	8.343177E-05
7.202437E+03	1.476223E-03	8.771669E-05
7.212427E+03	1.569937E-03	9.266777E-05
7.222416E+03	1.676967E-03	9.832394E-05
7.232406E+03	1.795368E-03	1.045559E-04
7.242395E+03	1.923651E-03	1.112637E-04
7.252385E+03	2.056497E-03	1.181297E-04
7.262375E+03	2.189280E-03	1.248845E-04
7.272364E+03	2.313289E-03	1.310342E-04
7.282354E+03	2.421311E-03	1.361837E-04
7.292343E+03	2.503400E-03	1.397966E-04
7.302333E+03	2.553274E-03	1.415557E-04
7.312322E+03	2.566895E-03	1.412779E-04
7.322312E+03	2.540941E-03	1.388255E-04
7.332301E+03	2.478292E-03	1.344028E-04
7.342291E+03	2.383986E-03	1.283255E-04
7.352280E+03	2.265576E-03	1.210361E-04
7.362270E+03	2.129577E-03	1.129094E-04
7.372259E+03	1.984524E-03	1.044160E-04
7.382249E+03	1.837093E-03	9.591576E-05
7.392238E+03	1.692357E-03	8.767449E-05
7.402228E+03	1.553918E-03	7.987434E-05
7.412217E+03	1.423967E-03	7.261934E-05
7.422207E+03	1.303346E-03	6.594196E-05
7.432196E+03	1.192130E-03	5.983458E-05
7.442186E+03	1.089999E-03	5.426988E-05
7.452175E+03	9.963744E-04	4.920829E-05
7.462165E+03	9.106091E-04	4.460771E-05
7.472154E+03	8.321764E-04	4.043299E-05
7.482144E+03	7.607479E-04	3.665940E-05
7.492133E+03	6.960776E-04	3.326664E-05
7.502123E+03	6.380171E-04	3.023948E-05
7.512112E+03	5.865680E-04	2.756997E-05
7.522102E+03	5.415635E-04	2.524237E-05
7.532091E+03	5.033042E-04	2.326283E-05
7.542081E+03	4.715983E-04	2.161451E-05
7.552070E+03	4.464096E-04	2.028803E-05
7.562060E+03	4.275079E-04	1.926538E-05
7.572049E+03	4.150105E-04	1.854453E-05
7.582039E+03	4.086833E-04	1.810779E-05
7.592028E+03	4.083939E-04	1.794238E-05
7.602018E+03	4.144680E-04	1.805584E-05
7.612007E+03	4.268565E-04	1.843913E-05
7.621997E+03	4.461427E-04	1.911056E-05
7.631986E+03	4.725958E-04	2.007440E-05
7.641976E+03	5.064457E-04	2.133312E-05
7.651965E+03	5.479467E-04	2.289009E-05
7.661955E+03	5.956293E-04	2.467718E-05
7.671944E+03	6.473480E-04	2.660078E-05
7.681934E+03	7.001511E-04	2.853750E-05
7.691923E+03	7.499247E-04	3.032106E-05
7.701913E+03	7.930965E-04	3.181229E-05
7.711903E+03	8.257344E-04	3.286212E-05
7.721892E+03	8.463736E-04	3.342357E-05
7.731882E+03	8.551091E-04	3.351213E-05
7.741871E+03	8.521588E-04	3.314747E-05
7.751861E+03	8.391316E-04	3.240221E-05
