#wls	flux	fluxerr
1.600000E+03	2.675786E-16	4.711157E-20
1.640000E+03	2.726688E-16	4.800779E-20
1.680000E+03	2.781157E-16	4.896680E-20
1.720000E+03	2.838838E-16	4.998237E-20
1.760000E+03	2.900355E-16	5.106547E-20
1.800000E+03	2.966004E-16	5.222134E-20
1.840000E+03	3.036079E-16	5.345512E-20
1.880000E+03	3.110877E-16	5.477206E-20
1.920000E+03	3.190368E-16	5.617162E-20
1.960000E+03	3.275174E-16	5.766477E-20
2.000000E+03	3.365912E-16	5.926237E-20
2.040000E+03	3.462887E-16	6.096976E-20
2.080000E+03	3.566402E-16	6.279231E-20
2.120000E+03	3.677729E-16	6.475240E-20
2.160000E+03	3.798139E-16	6.687243E-20
2.200000E+03	3.928914E-16	6.917492E-20
2.240000E+03	4.072923E-16	7.171044E-20
2.280000E+03	4.232409E-16	7.451845E-20
2.320000E+03	4.409000E-16	7.762761E-20
2.360000E+03	4.603715E-16	8.105589E-20
2.400000E+03	4.816363E-16	8.479990E-20
2.440000E+03	5.048694E-16	8.889045E-20
2.480000E+03	5.300952E-16	9.333185E-20
2.520000E+03	5.575026E-16	9.815735E-20
2.560000E+03	5.871959E-16	1.033853E-19
2.600000E+03	6.194155E-16	1.090581E-19
2.640000E+03	6.543205E-16	1.152037E-19
2.680000E+03	6.921164E-16	1.218582E-19
2.720000E+03	7.329939E-16	1.290553E-19
2.760000E+03	7.771942E-16	1.368375E-19
2.800000E+03	8.248540E-16	1.452287E-19
2.840000E+03	8.762890E-16	1.542846E-19
2.880000E+03	9.317764E-16	1.640539E-19
2.920000E+03	9.918728E-16	1.746347E-19
2.960000E+03	1.057292E-15	1.861528E-19
3.000000E+03	1.129013E-15	1.987801E-19
3.010000E+03	1.148070E-15	2.021354E-19
3.020000E+03	1.167576E-15	2.055697E-19
3.030000E+03	1.187569E-15	2.090896E-19
3.040000E+03	1.208087E-15	2.127020E-19
3.050000E+03	1.229134E-15	2.164077E-19
3.060000E+03	1.250719E-15	2.202079E-19
3.070000E+03	1.272911E-15	2.241152E-19
3.080000E+03	1.295688E-15	2.281253E-19
3.090000E+03	1.319054E-15	2.322392E-19
3.100000E+03	1.343083E-15	2.364699E-19
3.110000E+03	1.367784E-15	2.408187E-19
3.120000E+03	1.393198E-15	2.452932E-19
3.130000E+03	1.419268E-15	2.498831E-19
3.140000E+03	1.446138E-15	2.546138E-19
3.150000E+03	1.473750E-15	2.594753E-19
3.160000E+03	1.502152E-15	2.644756E-19
3.170000E+03	1.531390E-15	2.696233E-19
3.180000E+03	1.561479E-15	2.749208E-19
3.190000E+03	1.592471E-15	2.803773E-19
3.200000E+03	1.624387E-15	2.859964E-19
3.210000E+03	1.657287E-15	2.917888E-19
3.220000E+03	1.691202E-15	2.977599E-19
3.230000E+03	1.726206E-15	3.039226E-19
3.240000E+03	1.762352E-15	3.102865E-19
3.250000E+03	1.799713E-15	3.168642E-19
3.260000E+03	1.838423E-15	3.236795E-19
3.270000E+03	1.878628E-15	3.307579E-19
3.280000E+03	1.920581E-15	3.381441E-19
3.290000E+03	1.964600E-15	3.458941E-19
3.300000E+03	2.011159E-15	3.540912E-19
3.310000E+03	2.060913E-15	3.628508E-19
3.320000E+03	2.114769E-15	3.723326E-19
3.330000E+03	2.173787E-15	3.827232E-19
3.340000E+03	2.239079E-15	3.942184E-19
3.350000E+03	2.311582E-15	4.069833E-19
3.360000E+03	2.392023E-15	4.211456E-19
3.370000E+03	2.480834E-15	4.367815E-19
3.380000E+03	2.577615E-15	4.538206E-19
3.390000E+03	2.681427E-15	4.720976E-19
3.400000E+03	2.790557E-15	4.913109E-19
3.410000E+03	2.902169E-15	5.109612E-19
3.420000E+03	3.012873E-15	5.304515E-19
3.430000E+03	3.118576E-15	5.490613E-19
3.440000E+03	3.214783E-15	5.659992E-19
3.450000E+03	3.296984E-15	5.804711E-19
3.460000E+03	3.361891E-15	5.918982E-19
3.470000E+03	3.408738E-15	6.001456E-19
3.480000E+03	3.438463E-15	6.053785E-19
3.490000E+03	3.452856E-15	6.079120E-19
3.500000E+03	3.454674E-15	6.082316E-19
3.510000E+03	3.446902E-15	6.068626E-19
3.520000E+03	3.432253E-15	6.042830E-19
3.530000E+03	3.412633E-15	6.008281E-19
3.540000E+03	3.389219E-15	5.967053E-19
3.550000E+03	3.363105E-15	5.921073E-19
3.560000E+03	3.335699E-15	5.872816E-19
3.570000E+03	3.308356E-15	5.824671E-19
3.580000E+03	3.283758E-15	5.781358E-19
3.590000E+03	3.268078E-15	5.753748E-19
3.600000E+03	3.267041E-15	5.751917E-19
3.610000E+03	3.273957E-15	5.764088E-19
3.620000E+03	3.280367E-15	5.775369E-19
3.630000E+03	3.278007E-15	5.771209E-19
3.640000E+03	3.257770E-15	5.735577E-19
3.650000E+03	3.211571E-15	5.654235E-19
3.660000E+03	3.129902E-15	5.510446E-19
3.670000E+03	3.005274E-15	5.291024E-19
3.680000E+03	2.839196E-15	4.998627E-19
3.690000E+03	2.636812E-15	4.642312E-19
3.700000E+03	2.408386E-15	4.240147E-19
3.710000E+03	2.173307E-15	3.826269E-19
3.720000E+03	1.949459E-15	3.432166E-19
3.730000E+03	1.749262E-15	3.079702E-19
3.740000E+03	1.581909E-15	2.785063E-19
3.750000E+03	1.452016E-15	2.556374E-19
3.760000E+03	1.360540E-15	2.395323E-19
3.770000E+03	1.306817E-15	2.300737E-19
3.780000E+03	1.290137E-15	2.271370E-19
3.790000E+03	1.310880E-15	2.307887E-19
3.800000E+03	1.370958E-15	2.413656E-19
3.810000E+03	1.474172E-15	2.595367E-19
3.820000E+03	1.625688E-15	2.862117E-19
3.830000E+03	1.830591E-15	3.222856E-19
3.840000E+03	2.093700E-15	3.686070E-19
3.850000E+03	2.417830E-15	4.256713E-19
3.860000E+03	2.799865E-15	4.929298E-19
3.870000E+03	3.230977E-15	5.688284E-19
3.880000E+03	3.696271E-15	6.507447E-19
3.890000E+03	4.171667E-15	7.344390E-19
3.900000E+03	4.632265E-15	8.155278E-19
3.910000E+03	5.057956E-15	8.904710E-19
3.920000E+03	5.429495E-15	9.558800E-19
3.930000E+03	5.739229E-15	1.010408E-18
3.940000E+03	5.990387E-15	1.054623E-18
3.950000E+03	6.180489E-15	1.088089E-18
3.960000E+03	6.309287E-15	1.110762E-18
3.970000E+03	6.380796E-15	1.123348E-18
3.980000E+03	6.395213E-15	1.125884E-18
3.990000E+03	6.353397E-15	1.118520E-18
4.000000E+03	6.259442E-15	1.101976E-18
4.010000E+03	6.119598E-15	1.077354E-18
4.020000E+03	5.944767E-15	1.046572E-18
4.030000E+03	5.749265E-15	1.012152E-18
4.040000E+03	5.546627E-15	9.764751E-19
4.050000E+03	5.351149E-15	9.420588E-19
4.060000E+03	5.174257E-15	9.109148E-19
4.070000E+03	5.018628E-15	8.835143E-19
4.080000E+03	4.883635E-15	8.597466E-19
4.090000E+03	4.768575E-15	8.394883E-19
4.100000E+03	4.673196E-15	8.226947E-19
4.110000E+03	4.596889E-15	8.092587E-19
4.120000E+03	4.538512E-15	7.989792E-19
4.130000E+03	4.496917E-15	7.916544E-19
4.140000E+03	4.469807E-15	7.868792E-19
4.150000E+03	4.453934E-15	7.840824E-19
4.160000E+03	4.446108E-15	7.827024E-19
4.170000E+03	4.442061E-15	7.819875E-19
4.180000E+03	4.437326E-15	7.811514E-19
4.190000E+03	4.429481E-15	7.797679E-19
4.200000E+03	4.416099E-15	7.774098E-19
4.210000E+03	4.395696E-15	7.738156E-19
4.220000E+03	4.370608E-15	7.693970E-19
4.230000E+03	4.343754E-15	7.646674E-19
4.240000E+03	4.317973E-15	7.601270E-19
4.250000E+03	4.298836E-15	7.567561E-19
4.260000E+03	4.289857E-15	7.551735E-19
4.270000E+03	4.290313E-15	7.552520E-19
4.280000E+03	4.296372E-15	7.563170E-19
4.290000E+03	4.299642E-15	7.568912E-19
4.300000E+03	4.291037E-15	7.553750E-19
4.310000E+03	4.268186E-15	7.513513E-19
4.320000E+03	4.231646E-15	7.449179E-19
4.330000E+03	4.185186E-15	7.367387E-19
4.340000E+03	4.139593E-15	7.287121E-19
4.350000E+03	4.105521E-15	7.227140E-19
4.360000E+03	4.084411E-15	7.189980E-19
4.370000E+03	4.061311E-15	7.149317E-19
4.380000E+03	4.001526E-15	7.044080E-19
4.390000E+03	3.847460E-15	6.772877E-19
4.400000E+03	3.621339E-15	6.374832E-19
4.410000E+03	3.412482E-15	6.007179E-19
4.420000E+03	3.269675E-15	5.755798E-19
4.430000E+03	3.206587E-15	5.644752E-19
4.440000E+03	3.220657E-15	5.669532E-19
4.450000E+03	3.303661E-15	5.815661E-19
4.460000E+03	3.443794E-15	6.062362E-19
4.470000E+03	3.626443E-15	6.383909E-19
4.480000E+03	3.835706E-15	6.752308E-19
4.490000E+03	4.056750E-15	7.141450E-19
4.500000E+03	4.275846E-15	7.527165E-19
4.510000E+03	4.481407E-15	7.889056E-19
4.520000E+03	4.667078E-15	8.215934E-19
4.530000E+03	4.830112E-15	8.502964E-19
4.540000E+03	4.969495E-15	8.748362E-19
4.550000E+03	5.085753E-15	8.953049E-19
4.560000E+03	5.178919E-15	9.117087E-19
4.570000E+03	5.248414E-15	9.239455E-19
4.580000E+03	5.294109E-15	9.319925E-19
4.590000E+03	5.315270E-15	9.357203E-19
4.600000E+03	5.311361E-15	9.350349E-19
4.610000E+03	5.285450E-15	9.304759E-19
4.620000E+03	5.241011E-15	9.226552E-19
4.630000E+03	5.182099E-15	9.122864E-19
4.640000E+03	5.115451E-15	9.005556E-19
4.650000E+03	5.046860E-15	8.884826E-19
4.660000E+03	4.978826E-15	8.765076E-19
4.670000E+03	4.910629E-15	8.645039E-19
4.680000E+03	4.838233E-15	8.517605E-19
4.690000E+03	4.755312E-15	8.371643E-19
4.700000E+03	4.653783E-15	8.192921E-19
4.710000E+03	4.525288E-15	7.966722E-19
4.720000E+03	4.365383E-15	7.685225E-19
4.730000E+03	4.178628E-15	7.356458E-19
4.740000E+03	3.972903E-15	6.994290E-19
4.750000E+03	3.759268E-15	6.618196E-19
4.760000E+03	3.555238E-15	6.259010E-19
4.770000E+03	3.375871E-15	5.943242E-19
4.780000E+03	3.228724E-15	5.684195E-19
4.790000E+03	3.113916E-15	5.482080E-19
4.800000E+03	3.026294E-15	5.327826E-19
4.810000E+03	2.958487E-15	5.208454E-19
4.820000E+03	2.903793E-15	5.112170E-19
4.830000E+03	2.856168E-15	5.028328E-19
4.840000E+03	2.813474E-15	4.953166E-19
4.850000E+03	2.782282E-15	4.898254E-19
4.860000E+03	2.772567E-15	4.881152E-19
4.870000E+03	2.792510E-15	4.916262E-19
4.880000E+03	2.845580E-15	5.009692E-19
4.890000E+03	2.931520E-15	5.160990E-19
4.900000E+03	3.046155E-15	5.362806E-19
4.910000E+03	3.179383E-15	5.597353E-19
4.920000E+03	3.315728E-15	5.837387E-19
4.930000E+03	3.436446E-15	6.049910E-19
4.940000E+03	3.523429E-15	6.203039E-19
4.950000E+03	3.561533E-15	6.270116E-19
4.960000E+03	3.543350E-15	6.238097E-19
4.970000E+03	3.474227E-15	6.116398E-19
4.980000E+03	3.368294E-15	5.929895E-19
4.990000E+03	3.244640E-15	5.712193E-19
5.000000E+03	3.124933E-15	5.501440E-19
5.010000E+03	3.028330E-15	5.331363E-19
5.020000E+03	2.967440E-15	5.224156E-19
5.030000E+03	2.946919E-15	5.188018E-19
5.040000E+03	2.965746E-15	5.221154E-19
5.050000E+03	3.018815E-15	5.314568E-19
5.060000E+03	3.097348E-15	5.452812E-19
5.070000E+03	3.189684E-15	5.615353E-19
5.080000E+03	3.283590E-15	5.780657E-19
5.090000E+03	3.369441E-15	5.931780E-19
5.100000E+03	3.440385E-15	6.056658E-19
5.110000E+03	3.493105E-15	6.149451E-19
5.120000E+03	3.528914E-15	6.212473E-19
5.130000E+03	3.552243E-15	6.253524E-19
5.140000E+03	3.569078E-15	6.283140E-19
5.150000E+03	3.586861E-15	6.314426E-19
5.160000E+03	3.612448E-15	6.359448E-19
5.170000E+03	3.650734E-15	6.426826E-19
5.180000E+03	3.703428E-15	6.519566E-19
5.190000E+03	3.770034E-15	6.636796E-19
5.200000E+03	3.847744E-15	6.773573E-19
5.210000E+03	3.930824E-15	6.919802E-19
5.220000E+03	4.012105E-15	7.062861E-19
5.230000E+03	4.085035E-15	7.191219E-19
5.240000E+03	4.145539E-15	7.297700E-19
5.250000E+03	4.191218E-15	7.378084E-19
5.260000E+03	4.220911E-15	7.430326E-19
5.270000E+03	4.234758E-15	7.454672E-19
5.280000E+03	4.233884E-15	7.453106E-19
5.290000E+03	4.219851E-15	7.428375E-19
5.300000E+03	4.193842E-15	7.382561E-19
5.310000E+03	4.157469E-15	7.318506E-19
5.320000E+03	4.112941E-15	7.240096E-19
5.330000E+03	4.063212E-15	7.152532E-19
5.340000E+03	4.010982E-15	7.060567E-19
5.350000E+03	3.958847E-15	6.968770E-19
5.360000E+03	3.910090E-15	6.882921E-19
5.370000E+03	3.867268E-15	6.807522E-19
5.380000E+03	3.831029E-15	6.743713E-19
5.390000E+03	3.800322E-15	6.689643E-19
5.400000E+03	3.772911E-15	6.641378E-19
5.410000E+03	3.746257E-15	6.594447E-19
5.420000E+03	3.718280E-15	6.545189E-19
5.430000E+03	3.686786E-15	6.489744E-19
5.440000E+03	3.648522E-15	6.422382E-19
5.450000E+03	3.599185E-15	6.335533E-19
5.460000E+03	3.534737E-15	6.222086E-19
5.470000E+03	3.456657E-15	6.084647E-19
5.480000E+03	3.377855E-15	5.945938E-19
5.490000E+03	3.318448E-15	5.841371E-19
5.500000E+03	3.291512E-15	5.793962E-19
5.510000E+03	3.278466E-15	5.771006E-19
5.520000E+03	3.265816E-15	5.748748E-19
5.530000E+03	3.246147E-15	5.714136E-19
5.540000E+03	3.218156E-15	5.664875E-19
5.550000E+03	3.182710E-15	5.602491E-19
5.560000E+03	3.140084E-15	5.527468E-19
5.570000E+03	3.089032E-15	5.437614E-19
5.580000E+03	3.026621E-15	5.327765E-19
5.590000E+03	2.950555E-15	5.193879E-19
5.600000E+03	2.862425E-15	5.038755E-19
5.610000E+03	2.764127E-15	4.865733E-19
5.620000E+03	2.658611E-15	4.680003E-19
5.630000E+03	2.553126E-15	4.494326E-19
5.640000E+03	2.454882E-15	4.321395E-19
5.650000E+03	2.368785E-15	4.169846E-19
5.660000E+03	2.297947E-15	4.045157E-19
5.670000E+03	2.244086E-15	3.950352E-19
5.680000E+03	2.207428E-15	3.885829E-19
5.690000E+03	2.186771E-15	3.849474E-19
5.700000E+03	2.180441E-15	3.838338E-19
5.710000E+03	2.186560E-15	3.849117E-19
5.720000E+03	2.202704E-15	3.877541E-19
5.730000E+03	2.226796E-15	3.919958E-19
5.740000E+03	2.257455E-15	3.973934E-19
5.750000E+03	2.293635E-15	4.037629E-19
5.760000E+03	2.334757E-15	4.110023E-19
5.770000E+03	2.380396E-15	4.190367E-19
5.780000E+03	2.429802E-15	4.277342E-19
5.790000E+03	2.482082E-15	4.369377E-19
5.800000E+03	2.536098E-15	4.464466E-19
5.810000E+03	2.590238E-15	4.559774E-19
5.820000E+03	2.642638E-15	4.652018E-19
5.830000E+03	2.691179E-15	4.737467E-19
5.840000E+03	2.733441E-15	4.811861E-19
5.850000E+03	2.767459E-15	4.871743E-19
5.860000E+03	2.792354E-15	4.915564E-19
5.870000E+03	2.808731E-15	4.944388E-19
5.880000E+03	2.818610E-15	4.961773E-19
5.890000E+03	2.824325E-15	4.971826E-19
5.900000E+03	2.826903E-15	4.976358E-19
5.910000E+03	2.826836E-15	4.976231E-19
5.920000E+03	2.824290E-15	4.971740E-19
5.930000E+03	2.817814E-15	4.960329E-19
5.940000E+03	2.805832E-15	4.939225E-19
5.950000E+03	2.787892E-15	4.907633E-19
5.960000E+03	2.764537E-15	4.866507E-19
5.970000E+03	2.737340E-15	4.818618E-19
5.980000E+03	2.708200E-15	4.767307E-19
5.990000E+03	2.678685E-15	4.715336E-19
6.000000E+03	2.650269E-15	4.665299E-19
6.010000E+03	2.624136E-15	4.619281E-19
6.020000E+03	2.600746E-15	4.578091E-19
6.030000E+03	2.580398E-15	4.542256E-19
6.040000E+03	2.563420E-15	4.512353E-19
6.050000E+03	2.549489E-15	4.487813E-19
6.060000E+03	2.538110E-15	4.467764E-19
6.070000E+03	2.528668E-15	4.451124E-19
6.080000E+03	2.519901E-15	4.435674E-19
6.090000E+03	2.510367E-15	4.418872E-19
6.100000E+03	2.498388E-15	4.397767E-19
6.110000E+03	2.480959E-15	4.367068E-19
6.120000E+03	2.455368E-15	4.322004E-19
6.130000E+03	2.420403E-15	4.260438E-19
6.140000E+03	2.377159E-15	4.184301E-19
6.150000E+03	2.327871E-15	4.097527E-19
6.160000E+03	2.274858E-15	4.004196E-19
6.170000E+03	2.219683E-15	3.907059E-19
6.180000E+03	2.162381E-15	3.806181E-19
6.190000E+03	2.098183E-15	3.693168E-19
6.200000E+03	2.028469E-15	3.570444E-19
6.202843E+03	2.127598E-15	3.744924E-19
6.207121E+03	2.124775E-15	3.739950E-19
6.211399E+03	2.127610E-15	3.744934E-19
6.215677E+03	2.140216E-15	3.767117E-19
6.219954E+03	2.156964E-15	3.796590E-19
6.224232E+03	2.177715E-15	3.833109E-19
6.228510E+03	2.198624E-15	3.869907E-19
6.232788E+03	2.216672E-15	3.901668E-19
6.237066E+03	2.239544E-15	3.941921E-19
6.241344E+03	2.260513E-15	3.978824E-19
6.245622E+03	2.283423E-15	4.019143E-19
6.249900E+03	2.308272E-15	4.062875E-19
6.254177E+03	2.325863E-15	4.093832E-19
6.258455E+03	2.344432E-15	4.126511E-19
6.262733E+03	2.367270E-15	4.166704E-19
6.267011E+03	2.385868E-15	4.199434E-19
6.271289E+03	2.397343E-15	4.219625E-19
6.275567E+03	2.403888E-15	4.231140E-19
6.279845E+03	2.404952E-15	4.233008E-19
6.284122E+03	2.413573E-15	4.248179E-19
6.288400E+03	2.439638E-15	4.294051E-19
6.292678E+03	2.468181E-15	4.344286E-19
6.296956E+03	2.489593E-15	4.381969E-19
6.301234E+03	2.516229E-15	4.428846E-19
6.305512E+03	2.543829E-15	4.477423E-19
6.309789E+03	2.573083E-15	4.528908E-19
6.314067E+03	2.599593E-15	4.575566E-19
6.318345E+03	2.633520E-15	4.635277E-19
6.322623E+03	2.656461E-15	4.675653E-19
6.326901E+03	2.683110E-15	4.722553E-19
6.331179E+03	2.714425E-15	4.777668E-19
6.335457E+03	2.740106E-15	4.822866E-19
6.339734E+03	2.765917E-15	4.868294E-19
6.344012E+03	2.788837E-15	4.908634E-19
6.348290E+03	2.809139E-15	4.944365E-19
6.352568E+03	2.822011E-15	4.967019E-19
6.356846E+03	2.833497E-15	4.987233E-19
6.361124E+03	2.850601E-15	5.017338E-19
6.365402E+03	2.861920E-15	5.037259E-19
6.369680E+03	2.873909E-15	5.058360E-19
6.373957E+03	2.876811E-15	5.063467E-19
6.378235E+03	2.869801E-15	5.051129E-19
6.382513E+03	2.860296E-15	5.034401E-19
6.386791E+03	2.843626E-15	5.005060E-19
6.391069E+03	2.828031E-15	4.977614E-19
6.395347E+03	2.804720E-15	4.936586E-19
6.399624E+03	2.773966E-15	4.882457E-19
6.403902E+03	2.746211E-15	4.833608E-19
6.408180E+03	2.718843E-15	4.785440E-19
6.412458E+03	2.688566E-15	4.732152E-19
6.416736E+03	2.654281E-15	4.671811E-19
6.421014E+03	2.623819E-15	4.618199E-19
6.425292E+03	2.591825E-15	4.561890E-19
6.429569E+03	2.562004E-15	4.509407E-19
6.433847E+03	2.533263E-15	4.458826E-19
6.438125E+03	2.507796E-15	4.414005E-19
6.442403E+03	2.486426E-15	4.376398E-19
6.446681E+03	2.467918E-15	4.343827E-19
6.450959E+03	2.454740E-15	4.320639E-19
6.455237E+03	2.449358E-15	4.311173E-19
6.459514E+03	2.447108E-15	4.307218E-19
6.463792E+03	2.443050E-15	4.300083E-19
6.468070E+03	2.440749E-15	4.296041E-19
6.472348E+03	2.439658E-15	4.294128E-19
6.476626E+03	2.437034E-15	4.289518E-19
6.480904E+03	2.438770E-15	4.292581E-19
6.485182E+03	2.438699E-15	4.292464E-19
6.489459E+03	2.442709E-15	4.299532E-19
6.493737E+03	2.446419E-15	4.306071E-19
6.498015E+03	2.441754E-15	4.297869E-19
6.502293E+03	2.439119E-15	4.293240E-19
6.506571E+03	2.439605E-15	4.294105E-19
6.510849E+03	2.443620E-15	4.301181E-19
6.515127E+03	2.448566E-15	4.309895E-19
6.519404E+03	2.448562E-15	4.309899E-19
6.523682E+03	2.444847E-15	4.303370E-19
6.527960E+03	2.441519E-15	4.297522E-19
6.532238E+03	2.441444E-15	4.297400E-19
6.536516E+03	2.448438E-15	4.309721E-19
6.540794E+03	2.453355E-15	4.318387E-19
6.545072E+03	2.449657E-15	4.311888E-19
6.549349E+03	2.433808E-15	4.284000E-19
6.553627E+03	2.422579E-15	4.264245E-19
6.557905E+03	2.429850E-15	4.277055E-19
6.562183E+03	2.447569E-15	4.308254E-19
6.566461E+03	2.469192E-15	4.346327E-19
6.570739E+03	2.486421E-15	4.376664E-19
6.575017E+03	2.505238E-15	4.409798E-19
6.579294E+03	2.531347E-15	4.455767E-19
6.583572E+03	2.561342E-15	4.508577E-19
6.587850E+03	2.591418E-15	4.561529E-19
6.592128E+03	2.619402E-15	4.610800E-19
6.596406E+03	2.647196E-15	4.659735E-19
6.600684E+03	2.671681E-15	4.702847E-19
6.604962E+03	2.692863E-15	4.740145E-19
6.609239E+03	2.707362E-15	4.765679E-19
6.613517E+03	2.718706E-15	4.785660E-19
6.617795E+03	2.720276E-15	4.788435E-19
6.622073E+03	2.718708E-15	4.785688E-19
6.626351E+03	2.710497E-15	4.771244E-19
6.630629E+03	2.695924E-15	4.745604E-19
6.634907E+03	2.678914E-15	4.715673E-19
6.639184E+03	2.656774E-15	4.676711E-19
6.643462E+03	2.629918E-15	4.629450E-19
6.647740E+03	2.600378E-15	4.577460E-19
6.652018E+03	2.570580E-15	4.525017E-19
6.656296E+03	2.544960E-15	4.479930E-19
6.660574E+03	2.520289E-15	4.436512E-19
6.664851E+03	2.501800E-15	4.403976E-19
6.669129E+03	2.485995E-15	4.376163E-19
6.673407E+03	2.477961E-15	4.362032E-19
6.677685E+03	2.482239E-15	4.369573E-19
6.681963E+03	2.491707E-15	4.386248E-19
6.686241E+03	2.495381E-15	4.392727E-19
6.690519E+03	2.485788E-15	4.375850E-19
6.694797E+03	2.472308E-15	4.352129E-19
6.699074E+03	2.465898E-15	4.340855E-19
6.703352E+03	2.464939E-15	4.339176E-19
6.707630E+03	2.461289E-15	4.332761E-19
6.711908E+03	2.452691E-15	4.317634E-19
6.716186E+03	2.439556E-15	4.294521E-19
6.720464E+03	2.426680E-15	4.271863E-19
6.724742E+03	2.420043E-15	4.260190E-19
6.729019E+03	2.415117E-15	4.251527E-19
6.733297E+03	2.411367E-15	4.244934E-19
6.737575E+03	2.406138E-15	4.235737E-19
6.741853E+03	2.401686E-15	4.227908E-19
6.746131E+03	2.396818E-15	4.219347E-19
6.750409E+03	2.392857E-15	4.212381E-19
6.754686E+03	2.384518E-15	4.197711E-19
6.758964E+03	2.375375E-15	4.181623E-19
6.763242E+03	2.365564E-15	4.164359E-19
6.767520E+03	2.356270E-15	4.148005E-19
6.771798E+03	2.343677E-15	4.125845E-19
6.776076E+03	2.329899E-15	4.101595E-19
6.780354E+03	2.313229E-15	4.072257E-19
6.784632E+03	2.295516E-15	4.041082E-19
6.788909E+03	2.275713E-15	4.006227E-19
6.793187E+03	2.249768E-15	3.960560E-19
6.797465E+03	2.220839E-15	3.909638E-19
6.801743E+03	2.192727E-15	3.860154E-19
6.806021E+03	2.171565E-15	3.822906E-19
6.810299E+03	2.149507E-15	3.784081E-19
6.814577E+03	2.125515E-15	3.741850E-19
6.818854E+03	2.107274E-15	3.709743E-19
6.823132E+03	2.093206E-15	3.684982E-19
6.827410E+03	2.078495E-15	3.659090E-19
6.831688E+03	2.066515E-15	3.638005E-19
6.835966E+03	2.058296E-15	3.623540E-19
6.840244E+03	2.053437E-15	3.614990E-19
6.844521E+03	2.045591E-15	3.601183E-19
6.848799E+03	2.037223E-15	3.586456E-19
6.853077E+03	2.029496E-15	3.572858E-19
6.857355E+03	2.022408E-15	3.560385E-19
6.861633E+03	2.013643E-15	3.544957E-19
6.865911E+03	2.002047E-15	3.524548E-19
