#wls	flux	fluxerr
1.600000E+03	3.588319E-16	9.084549E-19
1.640000E+03	3.620161E-16	9.165163E-19
1.680000E+03	3.654224E-16	9.251401E-19
1.720000E+03	3.691079E-16	9.344706E-19
1.760000E+03	3.730766E-16	9.445181E-19
1.800000E+03	3.773869E-16	9.554306E-19
1.840000E+03	3.820450E-16	9.672235E-19
1.880000E+03	3.872183E-16	9.803208E-19
1.920000E+03	3.928620E-16	9.946089E-19
1.960000E+03	3.990936E-16	1.010385E-18
2.000000E+03	4.060324E-16	1.027952E-18
2.040000E+03	4.138007E-16	1.047620E-18
2.080000E+03	4.224172E-16	1.069434E-18
2.120000E+03	4.321181E-16	1.093994E-18
2.160000E+03	4.430387E-16	1.121641E-18
2.200000E+03	4.552662E-16	1.152598E-18
2.240000E+03	4.689491E-16	1.187239E-18
2.280000E+03	4.842992E-16	1.226101E-18
2.320000E+03	5.014319E-16	1.269475E-18
2.360000E+03	5.204756E-16	1.317688E-18
2.400000E+03	5.416837E-16	1.371381E-18
2.440000E+03	5.651109E-16	1.430692E-18
2.480000E+03	5.910532E-16	1.496370E-18
2.520000E+03	6.195581E-16	1.568535E-18
2.560000E+03	6.510364E-16	1.648229E-18
2.600000E+03	6.856032E-16	1.735742E-18
2.640000E+03	7.236973E-16	1.832185E-18
2.680000E+03	7.656421E-16	1.938376E-18
2.720000E+03	8.118793E-16	2.055435E-18
2.760000E+03	8.630423E-16	2.184964E-18
2.800000E+03	9.195575E-16	2.328044E-18
2.840000E+03	9.822467E-16	2.486754E-18
2.880000E+03	1.051807E-15	2.662861E-18
2.920000E+03	1.129249E-15	2.858920E-18
2.960000E+03	1.215871E-15	3.078222E-18
3.000000E+03	1.313354E-15	3.325020E-18
3.010000E+03	1.339701E-15	3.391721E-18
3.020000E+03	1.366818E-15	3.460373E-18
3.030000E+03	1.394797E-15	3.531208E-18
3.040000E+03	1.423734E-15	3.604469E-18
3.050000E+03	1.453658E-15	3.680227E-18
3.060000E+03	1.484525E-15	3.758373E-18
3.070000E+03	1.516432E-15	3.839152E-18
3.080000E+03	1.549410E-15	3.922641E-18
3.090000E+03	1.583486E-15	4.008911E-18
3.100000E+03	1.618760E-15	4.098216E-18
3.110000E+03	1.655188E-15	4.190441E-18
3.120000E+03	1.692947E-15	4.286035E-18
3.130000E+03	1.731911E-15	4.384679E-18
3.140000E+03	1.772333E-15	4.487015E-18
3.150000E+03	1.814004E-15	4.592515E-18
3.160000E+03	1.857173E-15	4.701804E-18
3.170000E+03	1.901774E-15	4.814722E-18
3.180000E+03	1.947892E-15	4.931478E-18
3.190000E+03	1.995444E-15	5.051865E-18
3.200000E+03	2.044491E-15	5.176039E-18
3.210000E+03	2.095085E-15	5.304126E-18
3.220000E+03	2.147090E-15	5.435789E-18
3.230000E+03	2.200513E-15	5.571039E-18
3.240000E+03	2.255326E-15	5.709810E-18
3.250000E+03	2.311381E-15	5.851724E-18
3.260000E+03	2.368387E-15	5.996046E-18
3.270000E+03	2.426258E-15	6.142559E-18
3.280000E+03	2.484674E-15	6.290450E-18
3.290000E+03	2.543189E-15	6.438592E-18
3.300000E+03	2.601663E-15	6.586631E-18
3.310000E+03	2.659966E-15	6.734238E-18
3.320000E+03	2.718343E-15	6.882030E-18
3.330000E+03	2.777083E-15	7.030742E-18
3.340000E+03	2.836658E-15	7.181569E-18
3.350000E+03	2.897807E-15	7.336378E-18
3.360000E+03	2.960656E-15	7.495494E-18
3.370000E+03	3.025295E-15	7.659140E-18
3.380000E+03	3.091240E-15	7.826094E-18
3.390000E+03	3.157449E-15	7.993714E-18
3.400000E+03	3.222048E-15	8.157259E-18
3.410000E+03	3.282010E-15	8.309066E-18
3.420000E+03	3.334098E-15	8.440936E-18
3.430000E+03	3.374821E-15	8.544035E-18
3.440000E+03	3.401155E-15	8.610705E-18
3.450000E+03	3.411398E-15	8.636638E-18
3.460000E+03	3.405871E-15	8.622644E-18
3.470000E+03	3.386482E-15	8.573557E-18
3.480000E+03	3.357203E-15	8.499432E-18
3.490000E+03	3.323621E-15	8.414411E-18
3.500000E+03	3.292953E-15	8.336770E-18
3.510000E+03	3.272410E-15	8.284761E-18
3.520000E+03	3.267944E-15	8.273454E-18
3.530000E+03	3.284798E-15	8.316124E-18
3.540000E+03	3.326078E-15	8.420631E-18
3.550000E+03	3.393113E-15	8.590344E-18
3.560000E+03	3.485942E-15	8.825359E-18
3.570000E+03	3.598241E-15	9.109668E-18
3.580000E+03	3.718966E-15	9.415306E-18
3.590000E+03	3.833950E-15	9.706411E-18
3.600000E+03	3.928245E-15	9.945138E-18
3.610000E+03	4.001921E-15	1.013166E-17
3.620000E+03	4.064575E-15	1.029029E-17
3.630000E+03	4.127262E-15	1.044899E-17
3.640000E+03	4.199750E-15	1.063251E-17
3.650000E+03	4.288142E-15	1.085629E-17
3.660000E+03	4.393049E-15	1.112188E-17
3.670000E+03	4.504129E-15	1.140310E-17
3.680000E+03	4.594846E-15	1.163277E-17
3.690000E+03	4.628888E-15	1.171896E-17
3.700000E+03	4.571280E-15	1.157311E-17
3.710000E+03	4.398796E-15	1.113643E-17
3.720000E+03	4.111249E-15	1.040845E-17
3.730000E+03	3.735374E-15	9.456846E-18
3.740000E+03	3.317859E-15	8.399825E-18
3.750000E+03	2.908893E-15	7.364446E-18
3.760000E+03	2.547728E-15	6.450084E-18
3.769171E+03	2.249044E-15	5.693904E-18
3.773414E+03	2.198049E-15	5.564802E-18
3.777657E+03	2.140173E-15	5.418276E-18
3.781900E+03	2.032160E-15	5.144820E-18
3.786143E+03	1.911895E-15	4.840346E-18
3.790386E+03	1.861057E-15	4.711638E-18
3.794630E+03	1.884085E-15	4.769938E-18
3.798873E+03	1.904311E-15	4.821146E-18
3.803116E+03	1.910415E-15	4.836599E-18
3.807359E+03	1.950832E-15	4.938921E-18
3.811602E+03	1.990297E-15	5.038834E-18
3.815845E+03	2.064983E-15	5.227917E-18
3.820089E+03	2.190271E-15	5.545109E-18
3.824332E+03	2.164927E-15	5.480945E-18
3.828575E+03	2.164792E-15	5.480605E-18
3.832818E+03	2.237135E-15	5.663755E-18
3.837061E+03	2.429741E-15	6.151375E-18
3.841305E+03	2.590393E-15	6.558099E-18
3.845548E+03	2.771546E-15	7.016723E-18
3.849791E+03	2.907413E-15	7.360699E-18
3.854034E+03	3.108791E-15	7.870526E-18
3.858277E+03	3.308224E-15	8.375432E-18
3.862521E+03	3.536266E-15	8.952765E-18
3.866764E+03	3.794931E-15	9.607629E-18
3.871007E+03	4.085496E-15	1.034325E-17
3.875250E+03	4.392021E-15	1.111928E-17
3.879493E+03	4.670460E-15	1.182420E-17
3.883736E+03	4.971880E-15	1.258731E-17
3.887980E+03	5.260754E-15	1.331865E-17
3.892223E+03	5.523407E-15	1.398361E-17
3.896466E+03	5.773901E-15	1.461779E-17
3.900709E+03	6.067128E-15	1.536015E-17
3.904952E+03	6.341900E-15	1.605579E-17
3.909196E+03	6.539120E-15	1.655509E-17
3.913439E+03	6.751174E-15	1.709195E-17
3.917682E+03	7.029746E-15	1.779721E-17
3.921925E+03	7.310364E-15	1.850765E-17
3.926168E+03	7.517370E-15	1.903173E-17
3.930412E+03	7.721840E-15	1.954939E-17
3.934655E+03	7.909208E-15	2.002374E-17
3.938898E+03	8.070264E-15	2.043149E-17
3.943141E+03	8.234892E-15	2.084828E-17
3.947384E+03	8.340799E-15	2.111640E-17
3.951627E+03	8.402404E-15	2.127237E-17
3.955871E+03	8.445159E-15	2.138061E-17
3.960114E+03	8.503514E-15	2.152835E-17
3.964357E+03	8.543399E-15	2.162932E-17
3.968600E+03	8.559311E-15	2.166961E-17
3.972843E+03	8.600023E-15	2.177268E-17
3.977086E+03	8.613465E-15	2.180671E-17
3.981330E+03	8.645074E-15	2.188673E-17
3.985573E+03	8.662852E-15	2.193174E-17
3.989816E+03	8.697867E-15	2.202039E-17
3.994059E+03	8.733018E-15	2.210938E-17
3.998302E+03	8.777120E-15	2.222104E-17
4.002546E+03	8.805749E-15	2.229352E-17
4.006789E+03	8.864247E-15	2.244162E-17
4.011032E+03	8.855907E-15	2.242050E-17
4.015275E+03	8.882576E-15	2.248802E-17
4.019518E+03	8.899671E-15	2.253130E-17
4.023762E+03	8.894920E-15	2.251927E-17
4.028005E+03	8.876409E-15	2.247241E-17
4.032248E+03	8.814297E-15	2.231516E-17
4.036491E+03	8.745427E-15	2.214080E-17
4.040734E+03	8.648031E-15	2.189422E-17
4.044977E+03	8.516097E-15	2.156020E-17
4.049221E+03	8.333384E-15	2.109763E-17
4.053464E+03	8.154433E-15	2.064458E-17
4.057707E+03	7.988747E-15	2.022511E-17
4.061950E+03	7.830832E-15	1.982532E-17
4.066193E+03	7.669904E-15	1.941790E-17
4.070437E+03	7.484056E-15	1.894739E-17
4.074680E+03	7.340486E-15	1.858391E-17
4.078923E+03	7.209957E-15	1.825345E-17
4.083166E+03	7.108141E-15	1.799568E-17
4.087409E+03	7.047770E-15	1.784284E-17
4.091653E+03	6.963916E-15	1.763055E-17
4.095896E+03	6.876648E-15	1.740961E-17
4.100139E+03	6.802542E-15	1.722200E-17
4.104382E+03	6.729569E-15	1.703725E-17
4.108625E+03	6.660641E-15	1.686275E-17
4.112868E+03	6.611397E-15	1.673807E-17
4.117112E+03	6.557630E-15	1.660195E-17
4.121355E+03	6.477716E-15	1.639964E-17
4.125598E+03	6.406934E-15	1.622044E-17
4.129841E+03	6.352907E-15	1.608365E-17
4.134084E+03	6.319790E-15	1.599981E-17
4.138328E+03	6.270533E-15	1.587511E-17
4.142571E+03	6.235273E-15	1.578584E-17
4.146814E+03	6.206560E-15	1.571315E-17
4.151057E+03	6.158640E-15	1.559183E-17
4.155300E+03	6.080846E-15	1.539488E-17
4.159543E+03	6.044587E-15	1.530308E-17
4.163787E+03	6.006354E-15	1.520629E-17
4.168030E+03	5.954567E-15	1.507518E-17
4.172273E+03	5.895394E-15	1.492537E-17
4.176516E+03	5.851633E-15	1.481458E-17
4.180760E+03	5.829956E-15	1.475970E-17
4.185003E+03	5.819493E-15	1.473321E-17
4.189246E+03	5.809392E-15	1.470764E-17
4.193489E+03	5.800377E-15	1.468481E-17
4.197732E+03	5.806162E-15	1.469946E-17
4.201975E+03	5.780541E-15	1.463460E-17
4.206219E+03	5.800927E-15	1.468621E-17
4.210462E+03	5.833190E-15	1.476789E-17
4.214705E+03	5.865781E-15	1.485040E-17
4.218948E+03	5.912931E-15	1.496977E-17
4.223191E+03	5.937350E-15	1.503159E-17
4.227435E+03	5.966425E-15	1.510520E-17
4.231678E+03	5.988455E-15	1.516097E-17
4.235921E+03	6.014239E-15	1.522625E-17
4.240164E+03	6.012136E-15	1.522093E-17
4.244407E+03	5.998171E-15	1.518557E-17
4.248650E+03	5.960864E-15	1.509112E-17
4.252894E+03	5.935077E-15	1.502584E-17
4.257137E+03	5.918105E-15	1.498287E-17
4.261380E+03	5.890024E-15	1.491177E-17
4.265623E+03	5.828429E-15	1.475583E-17
4.269866E+03	5.792341E-15	1.466447E-17
4.274109E+03	5.753237E-15	1.456547E-17
4.278353E+03	5.741751E-15	1.453639E-17
4.282596E+03	5.770380E-15	1.460887E-17
4.286839E+03	5.789145E-15	1.465638E-17
4.291082E+03	5.795914E-15	1.467352E-17
4.295325E+03	5.823246E-15	1.474271E-17
4.299569E+03	5.861822E-15	1.484037E-17
4.303812E+03	5.871247E-15	1.486424E-17
4.308055E+03	5.889424E-15	1.491026E-17
4.312298E+03	5.927412E-15	1.500643E-17
4.316541E+03	5.968945E-15	1.511158E-17
4.320785E+03	6.000108E-15	1.519047E-17
4.325028E+03	6.025551E-15	1.525489E-17
4.329271E+03	6.052590E-15	1.532334E-17
4.333514E+03	6.061088E-15	1.534486E-17
4.337757E+03	6.031655E-15	1.527034E-17
4.342001E+03	5.981786E-15	1.514409E-17
4.346244E+03	5.928588E-15	1.500941E-17
4.350487E+03	5.856234E-15	1.482623E-17
4.354730E+03	5.782706E-15	1.464008E-17
4.358973E+03	5.718140E-15	1.447662E-17
4.363216E+03	5.657907E-15	1.432412E-17
4.367460E+03	5.568781E-15	1.409848E-17
4.371703E+03	5.481873E-15	1.387846E-17
4.375946E+03	5.386173E-15	1.363618E-17
4.380189E+03	5.281336E-15	1.337076E-17
4.384432E+03	5.167901E-15	1.308358E-17
4.388676E+03	5.059882E-15	1.281010E-17
4.392919E+03	4.956738E-15	1.254898E-17
4.397162E+03	4.864134E-15	1.231453E-17
4.401405E+03	4.769656E-15	1.207534E-17
4.405648E+03	4.667638E-15	1.181706E-17
4.409891E+03	4.571716E-15	1.157421E-17
4.414135E+03	4.501171E-15	1.139562E-17
4.418378E+03	4.445716E-15	1.125522E-17
4.422621E+03	4.423196E-15	1.119821E-17
4.426864E+03	4.416428E-15	1.118107E-17
4.431107E+03	4.391463E-15	1.111787E-17
4.435351E+03	4.401497E-15	1.114327E-17
4.439594E+03	4.423005E-15	1.119772E-17
4.443837E+03	4.449972E-15	1.126599E-17
4.448080E+03	4.474977E-15	1.132930E-17
4.452323E+03	4.542485E-15	1.150021E-17
4.456566E+03	4.643279E-15	1.175539E-17
4.460810E+03	4.751761E-15	1.203003E-17
4.465053E+03	4.867037E-15	1.232188E-17
4.469296E+03	4.995798E-15	1.264786E-17
4.473539E+03	5.146483E-15	1.302935E-17
4.477782E+03	5.310438E-15	1.344444E-17
4.482026E+03	5.473040E-15	1.385610E-17
4.486269E+03	5.642909E-15	1.428615E-17
4.490512E+03	5.804029E-15	1.469406E-17
4.494755E+03	5.948847E-15	1.506070E-17
4.498998E+03	6.116046E-15	1.548399E-17
4.503242E+03	6.288382E-15	1.592030E-17
4.507485E+03	6.448455E-15	1.632556E-17
4.511728E+03	6.593643E-15	1.669313E-17
4.515971E+03	6.722555E-15	1.701949E-17
4.520214E+03	6.859771E-15	1.736688E-17
4.524458E+03	6.984581E-15	1.768286E-17
4.528701E+03	7.113128E-15	1.800831E-17
4.532944E+03	7.243125E-15	1.833742E-17
4.537187E+03	7.358276E-15	1.862895E-17
4.541430E+03	7.465773E-15	1.890110E-17
4.545673E+03	7.554769E-15	1.912641E-17
4.549917E+03	7.658708E-15	1.938955E-17
4.554160E+03	7.764798E-15	1.965814E-17
4.558403E+03	7.878457E-15	1.994589E-17
4.562646E+03	7.998445E-15	2.024967E-17
4.566889E+03	8.108507E-15	2.052831E-17
4.571132E+03	8.202711E-15	2.076681E-17
4.575376E+03	8.304467E-15	2.102442E-17
4.579619E+03	8.409224E-15	2.128963E-17
4.583862E+03	8.481397E-15	2.147235E-17
4.588105E+03	8.560424E-15	2.167243E-17
4.592349E+03	8.611964E-15	2.180291E-17
4.596592E+03	8.665489E-15	2.193842E-17
4.600835E+03	8.702363E-15	2.203177E-17
4.605078E+03	8.718085E-15	2.207158E-17
4.609321E+03	8.712161E-15	2.205658E-17
4.613564E+03	8.675406E-15	2.196353E-17
4.617808E+03	8.655127E-15	2.191219E-17
4.622051E+03	8.633235E-15	2.185676E-17
4.626294E+03	8.600534E-15	2.177397E-17
4.630537E+03	8.566059E-15	2.168669E-17
4.634780E+03	8.528600E-15	2.159186E-17
4.639024E+03	8.486427E-15	2.148509E-17
4.643267E+03	8.448727E-15	2.138964E-17
4.647510E+03	8.408222E-15	2.128710E-17
4.651753E+03	8.354015E-15	2.114986E-17
4.655996E+03	8.291490E-15	2.099157E-17
4.660239E+03	8.230512E-15	2.083719E-17
4.664483E+03	8.189385E-15	2.073307E-17
4.668726E+03	8.139422E-15	2.060658E-17
4.672969E+03	8.077359E-15	2.044945E-17
4.677212E+03	8.012701E-15	2.028576E-17
4.681455E+03	7.941835E-15	2.010634E-17
4.685699E+03	7.858746E-15	1.989599E-17
4.689942E+03	7.762771E-15	1.965301E-17
4.694185E+03	7.673368E-15	1.942667E-17
4.698428E+03	7.572996E-15	1.917256E-17
4.702671E+03	7.476793E-15	1.892900E-17
4.706914E+03	7.387669E-15	1.870336E-17
4.711158E+03	7.284179E-15	1.844136E-17
4.715401E+03	7.190861E-15	1.820510E-17
4.719644E+03	7.117973E-15	1.802057E-17
4.723887E+03	7.045623E-15	1.783741E-17
4.728130E+03	6.973472E-15	1.765474E-17
4.732374E+03	6.910236E-15	1.749465E-17
4.736617E+03	6.836607E-15	1.730824E-17
4.740860E+03	6.768818E-15	1.713662E-17
4.745103E+03	6.684870E-15	1.692409E-17
4.749346E+03	6.583785E-15	1.666817E-17
4.753590E+03	6.458458E-15	1.635088E-17
4.757833E+03	6.310487E-15	1.597626E-17
4.762076E+03	6.175607E-15	1.563479E-17
4.766319E+03	6.031725E-15	1.527052E-17
4.770562E+03	5.873271E-15	1.486936E-17
4.774805E+03	5.712150E-15	1.446145E-17
4.779049E+03	5.542956E-15	1.403310E-17
4.783292E+03	5.372651E-15	1.360194E-17
4.787535E+03	5.209525E-15	1.318896E-17
4.791778E+03	5.052044E-15	1.279026E-17
4.796021E+03	4.900368E-15	1.240626E-17
4.800265E+03	4.768305E-15	1.207192E-17
4.804508E+03	4.671636E-15	1.182718E-17
4.808751E+03	4.602191E-15	1.165137E-17
4.812994E+03	4.562754E-15	1.155153E-17
4.817237E+03	4.549379E-15	1.151766E-17
4.821480E+03	4.555619E-15	1.153346E-17
4.825724E+03	4.588792E-15	1.161745E-17
4.829967E+03	4.624376E-15	1.170753E-17
4.834210E+03	4.664367E-15	1.180878E-17
4.838453E+03	4.691710E-15	1.187800E-17
4.842696E+03	4.711950E-15	1.192924E-17
4.846940E+03	4.731110E-15	1.197775E-17
4.851183E+03	4.741198E-15	1.200329E-17
4.855426E+03	4.722268E-15	1.195537E-17
4.859669E+03	4.701843E-15	1.190366E-17
4.863912E+03	4.670461E-15	1.182421E-17
4.868155E+03	4.625501E-15	1.171038E-17
4.872399E+03	4.574302E-15	1.158076E-17
4.876642E+03	4.533772E-15	1.147815E-17
4.880885E+03	4.495114E-15	1.138028E-17
4.885128E+03	4.450886E-15	1.126831E-17
4.889371E+03	4.419432E-15	1.118868E-17
4.893615E+03	4.408295E-15	1.116048E-17
4.897858E+03	4.408847E-15	1.116188E-17
4.902101E+03	4.418583E-15	1.118653E-17
4.906344E+03	4.470838E-15	1.131882E-17
4.910587E+03	4.541831E-15	1.149855E-17
4.914831E+03	4.622315E-15	1.170232E-17
4.919074E+03	4.724056E-15	1.195989E-17
4.923317E+03	4.846817E-15	1.227069E-17
4.927560E+03	4.991670E-15	1.263741E-17
4.931803E+03	5.146620E-15	1.302970E-17
4.936047E+03	5.299236E-15	1.341608E-17
4.940290E+03	5.450991E-15	1.380027E-17
4.944533E+03	5.597815E-15	1.417199E-17
4.948776E+03	5.737611E-15	1.452591E-17
4.953019E+03	5.880303E-15	1.488716E-17
4.957262E+03	6.028315E-15	1.526189E-17
4.961506E+03	6.168016E-15	1.561557E-17
4.965749E+03	6.278885E-15	1.589625E-17
4.969992E+03	6.366031E-15	1.611688E-17
4.974235E+03	6.413874E-15	1.623801E-17
4.978478E+03	6.423679E-15	1.626283E-17
4.982721E+03	6.402667E-15	1.620963E-17
4.986965E+03	6.355933E-15	1.609132E-17
4.991208E+03	6.276979E-15	1.589143E-17
4.995451E+03	6.184537E-15	1.565739E-17
4.999694E+03	6.060064E-15	1.534226E-17
5.003938E+03	5.920002E-15	1.498767E-17
5.008181E+03	5.747141E-15	1.455004E-17
5.012424E+03	5.567478E-15	1.409518E-17
5.016667E+03	5.389173E-15	1.364377E-17
5.020910E+03	5.211111E-15	1.319297E-17
5.025153E+03	5.053506E-15	1.279396E-17
5.029397E+03	4.893556E-15	1.238902E-17
5.033640E+03	4.761280E-15	1.205413E-17
5.037883E+03	4.663240E-15	1.180592E-17
5.042126E+03	4.575398E-15	1.158354E-17
5.046369E+03	4.512589E-15	1.142452E-17
5.050613E+03	4.487520E-15	1.136106E-17
5.054856E+03	4.481437E-15	1.134565E-17
5.059099E+03	4.498208E-15	1.138811E-17
5.063342E+03	4.541056E-15	1.149659E-17
5.067585E+03	4.605171E-15	1.165891E-17
5.071828E+03	4.675867E-15	1.183789E-17
5.076072E+03	4.757825E-15	1.204539E-17
5.080315E+03	4.849127E-15	1.227654E-17
5.084558E+03	4.941286E-15	1.250985E-17
5.088801E+03	5.033362E-15	1.274296E-17
5.093044E+03	5.124729E-15	1.297428E-17
5.097288E+03	5.218666E-15	1.321210E-17
5.101531E+03	5.307065E-15	1.343590E-17
5.105774E+03	5.381394E-15	1.362408E-17
5.110017E+03	5.446520E-15	1.378896E-17
5.114260E+03	5.504339E-15	1.393533E-17
5.118503E+03	5.549299E-15	1.404916E-17
5.122747E+03	5.576807E-15	1.411880E-17
5.126990E+03	5.607175E-15	1.419569E-17
5.131233E+03	5.629125E-15	1.425126E-17
5.135476E+03	5.633899E-15	1.426334E-17
5.139719E+03	5.646817E-15	1.429605E-17
5.143963E+03	5.646161E-15	1.429439E-17
5.148206E+03	5.631219E-15	1.425656E-17
5.152449E+03	5.604649E-15	1.418929E-17
5.156692E+03	5.589021E-15	1.414973E-17
5.160935E+03	5.574041E-15	1.411180E-17
5.165178E+03	5.562919E-15	1.408364E-17
5.169422E+03	5.566173E-15	1.409188E-17
5.173665E+03	5.559967E-15	1.407617E-17
5.177908E+03	5.566113E-15	1.409173E-17
5.182151E+03	5.578028E-15	1.412189E-17
5.186394E+03	5.580954E-15	1.412930E-17
5.190638E+03	5.591616E-15	1.415629E-17
5.194881E+03	5.611654E-15	1.420703E-17
5.199124E+03	5.643307E-15	1.428716E-17
5.203367E+03	5.683811E-15	1.438970E-17
5.207610E+03	5.726945E-15	1.449891E-17
5.211854E+03	5.769081E-15	1.460558E-17
5.216097E+03	5.814744E-15	1.472119E-17
5.220340E+03	5.873703E-15	1.487046E-17
5.224583E+03	5.941103E-15	1.504109E-17
5.228826E+03	6.002655E-15	1.519692E-17
5.233069E+03	6.070677E-15	1.536913E-17
5.237313E+03	6.142302E-15	1.555047E-17
5.241556E+03	6.201517E-15	1.570038E-17
5.245799E+03	6.246124E-15	1.581331E-17
5.250042E+03	6.284983E-15	1.591169E-17
5.254285E+03	6.337344E-15	1.604425E-17
5.258529E+03	6.376510E-15	1.614341E-17
5.262772E+03	6.403425E-15	1.621155E-17
5.267015E+03	6.436996E-15	1.629654E-17
5.271258E+03	6.470973E-15	1.638256E-17
5.275501E+03	6.510690E-15	1.648312E-17
5.279744E+03	6.545029E-15	1.657005E-17
5.283988E+03	6.575489E-15	1.664717E-17
5.288231E+03	6.605632E-15	1.672348E-17
5.292474E+03	6.615246E-15	1.674782E-17
5.296717E+03	6.618255E-15	1.675544E-17
5.300960E+03	6.615273E-15	1.674789E-17
5.305204E+03	6.612351E-15	1.674049E-17
5.309447E+03	6.615958E-15	1.674962E-17
5.313690E+03	6.622110E-15	1.676520E-17
5.317933E+03	6.608959E-15	1.673190E-17
5.322176E+03	6.592970E-15	1.669142E-17
5.326420E+03	6.570056E-15	1.663341E-17
5.330663E+03	6.540826E-15	1.655941E-17
5.334906E+03	6.513187E-15	1.648944E-17
5.339149E+03	6.479111E-15	1.640317E-17
5.343392E+03	6.444597E-15	1.631579E-17
5.347636E+03	6.403092E-15	1.621071E-17
5.351879E+03	6.359275E-15	1.609978E-17
5.356122E+03	6.317368E-15	1.599368E-17
5.360365E+03	6.280707E-15	1.590087E-17
5.364608E+03	6.243477E-15	1.580661E-17
5.368851E+03	6.206260E-15	1.571239E-17
5.373095E+03	6.178472E-15	1.564204E-17
5.377338E+03	6.161539E-15	1.559917E-17
5.381581E+03	6.150806E-15	1.557200E-17
5.385824E+03	6.131530E-15	1.552319E-17
5.390067E+03	6.101276E-15	1.544660E-17
5.394310E+03	6.085027E-15	1.540546E-17
5.398554E+03	6.064593E-15	1.535373E-17
5.402797E+03	6.019968E-15	1.524075E-17
5.407040E+03	5.977254E-15	1.513261E-17
5.411283E+03	5.949683E-15	1.506281E-17
5.415526E+03	5.925437E-15	1.500143E-17
5.419770E+03	5.922756E-15	1.499464E-17
5.424013E+03	5.936004E-15	1.502818E-17
5.428256E+03	5.941916E-15	1.504315E-17
5.432499E+03	5.953412E-15	1.507225E-17
5.436742E+03	5.961030E-15	1.509154E-17
5.440986E+03	5.972375E-15	1.512026E-17
5.445229E+03	5.984725E-15	1.515153E-17
5.449472E+03	6.002950E-15	1.519767E-17
5.453715E+03	6.024043E-15	1.525107E-17
5.457958E+03	6.039856E-15	1.529110E-17
5.462202E+03	6.042247E-15	1.529716E-17
