#wls	flux	fluxerr
1.600000E+03	3.035344E-16	1.410102E-17
1.640000E+03	3.045335E-16	1.402514E-17
1.680000E+03	3.056159E-16	1.394972E-17
1.720000E+03	3.068396E-16	1.387722E-17
1.760000E+03	3.083159E-16	1.381240E-17
1.800000E+03	3.099472E-16	1.375053E-17
1.840000E+03	3.118472E-16	1.369635E-17
1.880000E+03	3.140789E-16	1.365217E-17
1.920000E+03	3.166014E-16	1.361569E-17
1.960000E+03	3.195871E-16	1.359377E-17
2.000000E+03	3.229996E-16	1.358412E-17
2.040000E+03	3.269646E-16	1.359124E-17
2.080000E+03	3.316121E-16	1.361956E-17
2.120000E+03	3.369165E-16	1.366688E-17
2.160000E+03	3.430717E-16	1.373982E-17
2.200000E+03	3.502259E-16	1.384275E-17
2.240000E+03	3.583731E-16	1.397369E-17
2.280000E+03	3.675149E-16	1.413089E-17
2.320000E+03	3.778269E-16	1.431915E-17
2.360000E+03	3.892211E-16	1.453300E-17
2.400000E+03	4.018987E-16	1.477774E-17
2.440000E+03	4.158539E-16	1.505067E-17
2.480000E+03	4.312097E-16	1.535364E-17
2.520000E+03	4.481105E-16	1.568889E-17
2.560000E+03	4.666671E-16	1.605713E-17
2.600000E+03	4.871360E-16	1.646363E-17
2.640000E+03	5.097507E-16	1.691224E-17
2.680000E+03	5.347243E-16	1.740550E-17
2.720000E+03	5.624383E-16	1.795071E-17
2.760000E+03	5.933349E-16	1.855603E-17
2.800000E+03	6.279931E-16	1.923261E-17
2.840000E+03	6.670128E-16	1.999066E-17
2.880000E+03	7.106600E-16	2.082893E-17
2.920000E+03	7.596795E-16	2.175914E-17
2.960000E+03	8.145963E-16	2.278484E-17
3.000000E+03	8.762679E-16	2.391721E-17
3.010000E+03	8.927606E-16	2.421586E-17
3.020000E+03	9.098518E-16	2.452484E-17
3.030000E+03	9.273910E-16	2.483980E-17
3.040000E+03	9.454703E-16	2.516297E-17
3.050000E+03	9.640153E-16	2.549211E-17
3.060000E+03	9.831173E-16	2.582938E-17
3.070000E+03	1.002784E-15	2.617467E-17
3.080000E+03	1.023019E-15	2.652785E-17
3.090000E+03	1.043739E-15	2.688640E-17
3.100000E+03	1.065117E-15	2.725459E-17
3.110000E+03	1.087064E-15	2.762975E-17
3.120000E+03	1.109478E-15	2.800906E-17
3.130000E+03	1.132529E-15	2.839654E-17
3.140000E+03	1.156107E-15	2.878914E-17
3.150000E+03	1.180184E-15	2.918591E-17
3.160000E+03	1.204726E-15	2.958577E-17
3.170000E+03	1.229789E-15	2.998981E-17
3.180000E+03	1.255217E-15	3.039410E-17
3.190000E+03	1.281048E-15	3.079930E-17
3.200000E+03	1.307203E-15	3.120336E-17
3.210000E+03	1.333489E-15	3.160158E-17
3.220000E+03	1.359898E-15	3.199369E-17
3.230000E+03	1.386412E-15	3.237930E-17
3.240000E+03	1.412686E-15	3.275033E-17
3.250000E+03	1.438780E-15	3.310833E-17
3.260000E+03	1.464534E-15	3.344978E-17
3.270000E+03	1.489672E-15	3.376863E-17
3.280000E+03	1.514133E-15	3.406388E-17
3.290000E+03	1.537641E-15	3.432974E-17
3.300000E+03	1.560259E-15	3.456816E-17
3.310000E+03	1.581841E-15	3.477640E-17
3.320000E+03	1.602141E-15	3.494968E-17
3.330000E+03	1.621136E-15	3.508822E-17
3.340000E+03	1.638690E-15	3.518981E-17
3.350000E+03	1.654647E-15	3.525193E-17
3.360000E+03	1.668930E-15	3.527377E-17
3.370000E+03	1.681287E-15	3.525100E-17
3.380000E+03	1.691374E-15	3.517745E-17
3.390000E+03	1.698925E-15	3.504886E-17
3.400000E+03	1.703031E-15	3.484797E-17
3.410000E+03	1.702936E-15	3.456118E-17
3.420000E+03	1.697910E-15	3.417598E-17
3.430000E+03	1.687015E-15	3.367613E-17
3.440000E+03	1.669825E-15	3.305618E-17
3.450000E+03	1.646312E-15	3.231868E-17
3.460000E+03	1.617390E-15	3.148460E-17
3.470000E+03	1.584523E-15	3.058486E-17
3.480000E+03	1.550031E-15	2.966576E-17
3.490000E+03	1.516806E-15	2.878299E-17
3.500000E+03	1.488137E-15	2.799776E-17
3.510000E+03	1.467357E-15	2.737004E-17
3.520000E+03	1.456955E-15	2.694200E-17
3.530000E+03	1.458868E-15	2.674416E-17
3.540000E+03	1.474092E-15	2.678880E-17
3.550000E+03	1.502458E-15	2.706661E-17
3.560000E+03	1.542747E-15	2.754967E-17
3.570000E+03	1.592727E-15	2.819300E-17
3.580000E+03	1.649826E-15	2.894712E-17
3.590000E+03	1.711101E-15	2.975774E-17
3.600000E+03	1.774171E-15	3.058210E-17
3.610000E+03	1.837499E-15	3.139332E-17
3.620000E+03	1.900699E-15	3.218499E-17
3.630000E+03	1.964534E-15	3.297022E-17
3.640000E+03	2.030585E-15	3.377519E-17
3.650000E+03	2.101241E-15	3.463853E-17
3.660000E+03	2.177519E-15	3.557506E-17
3.670000E+03	2.257399E-15	3.654981E-17
3.680000E+03	2.333612E-15	3.744482E-17
3.690000E+03	2.394176E-15	3.807136E-17
3.700000E+03	2.423822E-15	3.819566E-17
3.710000E+03	2.407305E-15	3.759300E-17
3.720000E+03	2.335197E-15	3.613704E-17
3.730000E+03	2.209325E-15	3.387910E-17
3.740000E+03	2.044192E-15	3.106179E-17
3.750000E+03	1.861711E-15	2.803097E-17
3.760000E+03	1.684288E-15	2.512761E-17
3.770000E+03	1.530019E-15	2.261661E-17
3.780000E+03	1.410957E-15	2.066458E-17
3.790000E+03	1.333353E-15	1.934754E-17
3.800000E+03	1.299600E-15	1.868285E-17
3.810000E+03	1.311109E-15	1.867279E-17
3.820000E+03	1.369933E-15	1.932812E-17
3.830000E+03	1.479343E-15	2.067578E-17
3.840000E+03	1.644085E-15	2.276155E-17
3.850000E+03	1.869955E-15	2.564334E-17
3.860000E+03	2.162160E-15	2.936821E-17
3.870000E+03	2.523506E-15	3.394846E-17
3.880000E+03	2.951020E-15	3.931816E-17
3.890000E+03	3.432117E-15	4.528629E-17
3.900000E+03	3.944032E-15	5.153552E-17
3.910000E+03	4.456329E-15	5.766103E-17
3.920000E+03	4.935629E-15	6.323586E-17
3.930000E+03	5.354472E-15	6.792500E-17
3.940000E+03	5.696807E-15	7.155048E-17
3.950000E+03	5.960088E-15	7.411008E-17
3.960000E+03	6.154376E-15	7.575781E-17
3.970000E+03	6.296193E-15	7.672114E-17
3.980000E+03	6.401650E-15	7.721425E-17
3.990000E+03	6.482807E-15	7.739481E-17
4.000000E+03	6.543889E-15	7.732191E-17
4.010000E+03	6.578186E-15	7.692463E-17
4.020000E+03	6.574044E-15	7.607807E-17
4.030000E+03	6.519925E-15	7.466418E-17
4.040000E+03	6.408569E-15	7.261883E-17
4.050000E+03	6.240025E-15	6.996313E-17
4.060000E+03	6.023732E-15	6.682210E-17
4.070000E+03	5.774223E-15	6.337198E-17
4.080000E+03	5.509166E-15	5.981603E-17
4.090000E+03	5.243835E-15	5.632337E-17
4.100000E+03	4.986968E-15	5.298651E-17
4.110000E+03	4.743424E-15	4.985316E-17
4.120000E+03	4.516340E-15	4.695088E-17
4.130000E+03	4.307311E-15	4.429006E-17
4.140000E+03	4.117427E-15	4.187527E-17
4.150000E+03	3.948567E-15	3.971862E-17
4.160000E+03	3.802651E-15	3.783187E-17
4.170000E+03	3.682159E-15	3.623160E-17
4.180000E+03	3.589428E-15	3.493205E-17
4.190000E+03	3.526383E-15	3.394268E-17
4.200000E+03	3.494123E-15	3.326443E-17
4.210000E+03	3.491423E-15	3.287621E-17
4.220000E+03	3.513022E-15	3.272005E-17
4.230000E+03	3.551085E-15	3.271671E-17
4.240000E+03	3.596101E-15	3.277498E-17
4.250000E+03	3.637857E-15	3.280128E-17
4.260000E+03	3.667831E-15	3.272106E-17
4.270000E+03	3.681608E-15	3.249925E-17
4.280000E+03	3.680998E-15	3.215664E-17
4.290000E+03	3.672193E-15	3.175110E-17
4.300000E+03	3.663156E-15	3.135327E-17
4.310000E+03	3.660399E-15	3.101874E-17
4.320000E+03	3.667998E-15	3.078048E-17
4.330000E+03	3.685900E-15	3.063593E-17
4.340000E+03	3.708987E-15	3.054100E-17
4.350000E+03	3.728041E-15	3.041987E-17
4.360000E+03	3.732509E-15	3.018865E-17
4.370000E+03	3.712782E-15	2.977385E-17
4.380000E+03	3.662917E-15	2.913342E-17
4.390000E+03	3.583241E-15	2.827576E-17
4.400000E+03	3.481325E-15	2.726538E-17
4.410000E+03	3.370528E-15	2.620939E-17
4.420000E+03	3.267162E-15	2.523407E-17
4.430000E+03	3.187234E-15	2.445980E-17
4.440000E+03	3.145259E-15	2.399276E-17
4.450000E+03	3.153090E-15	2.391692E-17
4.460000E+03	3.220000E-15	2.429556E-17
4.470000E+03	3.352456E-15	2.517042E-17
4.480000E+03	3.552304E-15	2.654875E-17
4.490000E+03	3.813755E-15	2.838180E-17
4.500000E+03	4.122908E-15	3.056232E-17
4.510000E+03	4.460402E-15	3.294505E-17
4.520000E+03	4.805910E-15	3.538006E-17
4.530000E+03	5.141855E-15	3.773968E-17
4.540000E+03	5.457920E-15	3.995072E-17
4.550000E+03	5.754493E-15	4.201869E-17
4.560000E+03	6.039658E-15	4.400475E-17
4.570000E+03	6.320620E-15	4.596294E-17
4.580000E+03	6.595418E-15	4.788014E-17
4.590000E+03	6.852286E-15	4.967214E-17
4.600000E+03	7.072840E-15	5.120709E-17
4.610000E+03	7.236598E-15	5.233829E-17
4.620000E+03	7.326509E-15	5.294399E-17
4.630000E+03	7.334981E-15	5.297052E-17
4.640000E+03	7.267593E-15	5.245884E-17
4.650000E+03	7.140436E-15	5.152510E-17
4.660000E+03	6.972508E-15	5.030587E-17
4.670000E+03	6.781803E-15	4.893012E-17
4.680000E+03	6.582723E-15	4.750078E-17
4.690000E+03	6.387321E-15	4.610388E-17
4.700000E+03	6.204530E-15	4.480306E-17
4.710000E+03	6.040156E-15	4.363960E-17
4.720000E+03	5.896422E-15	4.262910E-17
4.730000E+03	5.771211E-15	4.175595E-17
4.740000E+03	5.657354E-15	4.096804E-17
4.750000E+03	5.541498E-15	4.016805E-17
4.760000E+03	5.406030E-15	3.922721E-17
4.770000E+03	5.236033E-15	3.803579E-17
4.780000E+03	5.027467E-15	3.656271E-17
4.790000E+03	4.791118E-15	3.488476E-17
4.800000E+03	4.548426E-15	3.315686E-17
4.810000E+03	4.325273E-15	3.156717E-17
4.820000E+03	4.146416E-15	3.029668E-17
4.830000E+03	4.028851E-15	2.947047E-17
4.840000E+03	3.975402E-15	2.911042E-17
4.850000E+03	3.973268E-15	2.912386E-17
4.860000E+03	4.000800E-15	2.935271E-17
4.870000E+03	4.037908E-15	2.964964E-17
4.880000E+03	4.073619E-15	2.993380E-17
4.890000E+03	4.107195E-15	3.019932E-17
4.900000E+03	4.147489E-15	3.051093E-17
4.910000E+03	4.210958E-15	3.098940E-17
4.920000E+03	4.316277E-15	3.177194E-17
4.930000E+03	4.477571E-15	3.296215E-17
4.940000E+03	4.699339E-15	3.459248E-17
4.950000E+03	4.973719E-15	3.660399E-17
4.960000E+03	5.277676E-15	3.882573E-17
4.970000E+03	5.570888E-15	4.095964E-17
4.980000E+03	5.800712E-15	4.261776E-17
4.990000E+03	5.916692E-15	4.342966E-17
5.000000E+03	5.887127E-15	4.316464E-17
5.010000E+03	5.711283E-15	4.182085E-17
5.020000E+03	5.421756E-15	3.964145E-17
5.030000E+03	5.075055E-15	3.704380E-17
5.040000E+03	4.731822E-15	3.447325E-17
5.050000E+03	4.439557E-15	3.227645E-17
5.060000E+03	4.226959E-15	3.066048E-17
5.070000E+03	4.106544E-15	2.971289E-17
5.080000E+03	4.077468E-15	2.942313E-17
5.090000E+03	4.127793E-15	2.970016E-17
5.100000E+03	4.238044E-15	3.039920E-17
5.110000E+03	4.384810E-15	3.134853E-17
5.120000E+03	4.544164E-15	3.237466E-17
5.130000E+03	4.693947E-15	3.331887E-17
5.140000E+03	4.816528E-15	3.405690E-17
5.150000E+03	4.901680E-15	3.451871E-17
5.160000E+03	4.947344E-15	3.469302E-17
5.170000E+03	4.959063E-15	3.462219E-17
5.180000E+03	4.947976E-15	3.438703E-17
5.190000E+03	4.928538E-15	3.409007E-17
5.200000E+03	4.914979E-15	3.383050E-17
5.210000E+03	4.919149E-15	3.368928E-17
5.220000E+03	4.949347E-15	3.372152E-17
5.230000E+03	5.009001E-15	3.394809E-17
5.240000E+03	5.096142E-15	3.435292E-17
5.250000E+03	5.204736E-15	3.489290E-17
5.260000E+03	5.326919E-15	3.551366E-17
5.270000E+03	5.454897E-15	3.616251E-17
5.280000E+03	5.581583E-15	3.679263E-17
5.290000E+03	5.700902E-15	3.736500E-17
5.300000E+03	5.807924E-15	3.784908E-17
5.310000E+03	5.898101E-15	3.821759E-17
5.320000E+03	5.966397E-15	3.844086E-17
5.330000E+03	6.007014E-15	3.848509E-17
5.340000E+03	6.014150E-15	3.831727E-17
5.350000E+03	5.983850E-15	3.791682E-17
5.360000E+03	5.916527E-15	3.729104E-17
5.370000E+03	5.817288E-15	3.647642E-17
5.380000E+03	5.696191E-15	3.553937E-17
5.390000E+03	5.568482E-15	3.457701E-17
5.400000E+03	5.451453E-15	3.369714E-17
5.410000E+03	5.361857E-15	3.300223E-17
5.420000E+03	5.313357E-15	3.257426E-17
5.430000E+03	5.313579E-15	3.245734E-17
5.440000E+03	5.360328E-15	3.263568E-17
5.450000E+03	5.440628E-15	3.302884E-17
5.460000E+03	5.532929E-15	3.350593E-17
5.470000E+03	5.613360E-15	3.392353E-17
5.480000E+03	5.660801E-15	3.415506E-17
5.490000E+03	5.660672E-15	3.411313E-17
5.500000E+03	5.607692E-15	3.376607E-17
5.510000E+03	5.508384E-15	3.315266E-17
5.520000E+03	5.378470E-15	3.236636E-17
5.530000E+03	5.236932E-15	3.151980E-17
5.540000E+03	5.101289E-15	3.071680E-17
5.550000E+03	4.986584E-15	3.004651E-17
5.560000E+03	4.902838E-15	2.956827E-17
5.570000E+03	4.852418E-15	2.929568E-17
5.580000E+03	4.830015E-15	2.919633E-17
5.590000E+03	4.822300E-15	2.918927E-17
5.600000E+03	4.807663E-15	2.914306E-17
5.610000E+03	4.761759E-15	2.890890E-17
5.620000E+03	4.665758E-15	2.837063E-17
5.630000E+03	4.512219E-15	2.748075E-17
5.640000E+03	4.308627E-15	2.628252E-17
5.650000E+03	4.076882E-15	2.490774E-17
5.660000E+03	3.847538E-15	2.354214E-17
5.670000E+03	3.649877E-15	2.236495E-17
5.680000E+03	3.503063E-15	2.149440E-17
5.690000E+03	3.413858E-15	2.097315E-17
5.700000E+03	3.379826E-15	2.078734E-17
5.710000E+03	3.393033E-15	2.088901E-17
5.720000E+03	3.441802E-15	2.120668E-17
5.730000E+03	3.513112E-15	2.166016E-17
5.740000E+03	3.595709E-15	2.217978E-17
5.750000E+03	3.682495E-15	2.272130E-17
5.760000E+03	3.770537E-15	2.326604E-17
5.770000E+03	3.859807E-15	2.381329E-17
5.780000E+03	3.951795E-15	2.437163E-17
5.790000E+03	4.047997E-15	2.494970E-17
5.800000E+03	4.147740E-15	2.554272E-17
5.810000E+03	4.247120E-15	2.612602E-17
5.820000E+03	4.339747E-15	2.665979E-17
5.830000E+03	4.418963E-15	2.710283E-17
5.840000E+03	4.480255E-15	2.742748E-17
5.850000E+03	4.522331E-15	2.762614E-17
5.860000E+03	4.548153E-15	2.771741E-17
5.870000E+03	4.565120E-15	2.774688E-17
5.880000E+03	4.582199E-15	2.776931E-17
5.890000E+03	4.606301E-15	2.782644E-17
5.900000E+03	4.639757E-15	2.793193E-17
5.910000E+03	4.680414E-15	2.807229E-17
5.920000E+03	4.722906E-15	2.821499E-17
5.930000E+03	4.759942E-15	2.831659E-17
5.940000E+03	4.783783E-15	2.833178E-17
5.950000E+03	4.788540E-15	2.822712E-17
5.960000E+03	4.771621E-15	2.798933E-17
5.970000E+03	4.733643E-15	2.762431E-17
5.980000E+03	4.677821E-15	2.715318E-17
5.990000E+03	4.609336E-15	2.660814E-17
6.000000E+03	4.534531E-15	2.602748E-17
6.010000E+03	4.460454E-15	2.545273E-17
6.020000E+03	4.394137E-15	2.492440E-17
6.030000E+03	4.340624E-15	2.447084E-17
6.040000E+03	4.301153E-15	2.409832E-17
6.050000E+03	4.272406E-15	2.378759E-17
6.060000E+03	4.248023E-15	2.350301E-17
6.070000E+03	4.221868E-15	2.321111E-17
6.080000E+03	4.190882E-15	2.289610E-17
6.090000E+03	4.155672E-15	2.256249E-17
6.100000E+03	4.121201E-15	2.223826E-17
6.110000E+03	4.096773E-15	2.197397E-17
6.120000E+03	4.092169E-15	2.182161E-17
6.130000E+03	4.112648E-15	2.180805E-17
6.140000E+03	4.156177E-15	2.192135E-17
6.150000E+03	4.212847E-15	2.210871E-17
6.160000E+03	4.266838E-15	2.228773E-17
6.170000E+03	4.299651E-15	2.236370E-17
6.180000E+03	4.293998E-15	2.224952E-17
6.190000E+03	4.240520E-15	2.189980E-17
6.200000E+03	4.142503E-15	2.133419E-17
6.210000E+03	4.013524E-15	2.062406E-17
6.220000E+03	3.871951E-15	1.986364E-17
6.230000E+03	3.736534E-15	1.914805E-17
6.240000E+03	3.622418E-15	1.855353E-17
6.250000E+03	3.537371E-15	1.811865E-17
6.260000E+03	3.481427E-15	1.784279E-17
6.270000E+03	3.449405E-15	1.769912E-17
6.280000E+03	3.435509E-15	1.765792E-17
6.290000E+03	3.436037E-15	1.770041E-17
6.300000E+03	3.448857E-15	1.781603E-17
6.310000E+03	3.472234E-15	1.799636E-17
6.320000E+03	3.505082E-15	1.823642E-17
6.330000E+03	3.546581E-15	1.853270E-17
6.340000E+03	3.595347E-15	1.887881E-17
6.350000E+03	3.648621E-15	1.926110E-17
6.360000E+03	3.703040E-15	1.966244E-17
6.370000E+03	3.754355E-15	2.006064E-17
6.380000E+03	3.796749E-15	2.042445E-17
6.390000E+03	3.823849E-15	2.071867E-17
6.400000E+03	3.829150E-15	2.090616E-17
6.410000E+03	3.806674E-15	2.095129E-17
6.420000E+03	3.754902E-15	2.084172E-17
6.430000E+03	3.679664E-15	2.060552E-17
6.440000E+03	3.593540E-15	2.030934E-17
6.450000E+03	3.512798E-15	2.004294E-17
6.460000E+03	3.451961E-15	1.988959E-17
6.470000E+03	3.419525E-15	1.990101E-17
6.480000E+03	3.418731E-15	2.010030E-17
6.490000E+03	3.447699E-15	2.048126E-17
6.500000E+03	3.499334E-15	2.100617E-17
6.510000E+03	3.563896E-15	2.161969E-17
6.520000E+03	3.631851E-15	2.226536E-17
6.530000E+03	3.695635E-15	2.289647E-17
6.540000E+03	3.751087E-15	2.348561E-17
6.550000E+03	3.796817E-15	2.402181E-17
6.560000E+03	3.832581E-15	2.450099E-17
6.570000E+03	3.859762E-15	2.492954E-17
6.580000E+03	3.880166E-15	2.531695E-17
6.590000E+03	3.893954E-15	2.566239E-17
6.600000E+03	3.900742E-15	2.596143E-17
6.610000E+03	3.900291E-15	2.621059E-17
6.620000E+03	3.891908E-15	2.640329E-17
6.630000E+03	3.875698E-15	2.653825E-17
6.640000E+03	3.853391E-15	2.662557E-17
6.650000E+03	3.826938E-15	2.667735E-17
6.660000E+03	3.799052E-15	2.671159E-17
6.670000E+03	3.771996E-15	2.674381E-17
6.680000E+03	3.746477E-15	2.677897E-17
6.690000E+03	3.722443E-15	2.681673E-17
6.700000E+03	3.699877E-15	2.685703E-17
6.710000E+03	3.678593E-15	2.689855E-17
6.720000E+03	3.658478E-15	2.694050E-17
6.730000E+03	3.639629E-15	2.698364E-17
6.740000E+03	3.621104E-15	2.702097E-17
6.750000E+03	3.601594E-15	2.704261E-17
6.760000E+03	3.579021E-15	2.703263E-17
6.770000E+03	3.550703E-15	2.697018E-17
6.780000E+03	3.514183E-15	2.683576E-17
6.790000E+03	3.468378E-15	2.662010E-17
6.800000E+03	3.413782E-15	2.632609E-17
6.810000E+03	3.352662E-15	2.597051E-17
6.820000E+03	3.288789E-15	2.558228E-17
6.830000E+03	3.226316E-15	2.519389E-17
6.840000E+03	3.169321E-15	2.483774E-17
6.850000E+03	3.121140E-15	2.454078E-17
6.860000E+03	3.083451E-15	2.431719E-17
6.870000E+03	3.056397E-15	2.416905E-17
6.880000E+03	3.039184E-15	2.409086E-17
6.890000E+03	3.030037E-15	2.406915E-17
6.900000E+03	3.026713E-15	2.408652E-17
6.910000E+03	3.027219E-15	2.412731E-17
6.920000E+03	3.029868E-15	2.417819E-17
6.930000E+03	3.033626E-15	2.423093E-17
6.940000E+03	3.037896E-15	2.428074E-17
6.950000E+03	3.042250E-15	2.432419E-17
6.960000E+03	3.046529E-15	2.435998E-17
6.970000E+03	3.050660E-15	2.438751E-17
6.980000E+03	3.054378E-15	2.440469E-17
6.990000E+03	3.057457E-15	2.440970E-17
7.000000E+03	3.059932E-15	2.440286E-17
7.010000E+03	3.061669E-15	2.438317E-17
7.020000E+03	3.063040E-15	2.435363E-17
7.030000E+03	3.064670E-15	2.431929E-17
7.040000E+03	3.067347E-15	2.428644E-17
7.050000E+03	3.071842E-15	2.426117E-17
7.060000E+03	3.078031E-15	2.424249E-17
7.070000E+03	3.084839E-15	2.422187E-17
7.080000E+03	3.090217E-15	2.418333E-17
7.090000E+03	3.092044E-15	2.411052E-17
7.100000E+03	3.088438E-15	2.398924E-17
7.110000E+03	3.078613E-15	2.381407E-17
7.120000E+03	3.063378E-15	2.359205E-17
7.130000E+03	3.045374E-15	2.334421E-17
7.140000E+03	3.028327E-15	2.309955E-17
7.150000E+03	3.015656E-15	2.288418E-17
7.160000E+03	3.009930E-15	2.271721E-17
7.170000E+03	3.012344E-15	2.260701E-17
7.180000E+03	3.023189E-15	2.255490E-17
7.190000E+03	3.041312E-15	2.255139E-17
7.200000E+03	3.064632E-15	2.258033E-17
7.210000E+03	3.090375E-15	2.262082E-17
7.220000E+03	3.115291E-15	2.264909E-17
7.230000E+03	3.136212E-15	2.264257E-17
7.240000E+03	3.150593E-15	2.258387E-17
7.250000E+03	3.157056E-15	2.246447E-17
7.260000E+03	3.155599E-15	2.228594E-17
7.270000E+03	3.147009E-15	2.205540E-17
7.280000E+03	3.132693E-15	2.178419E-17
7.290000E+03	3.114173E-15	2.148416E-17
7.300000E+03	3.092955E-15	2.116672E-17
7.310000E+03	3.069954E-15	2.083897E-17
7.320000E+03	3.045978E-15	2.050708E-17
7.330000E+03	3.022020E-15	2.017828E-17
7.340000E+03	2.999469E-15	1.986222E-17
7.350000E+03	2.979839E-15	1.956905E-17
7.360000E+03	2.964474E-15	1.930750E-17
7.370000E+03	2.954318E-15	1.908344E-17
7.380000E+03	2.949506E-15	1.889737E-17
7.390000E+03	2.949537E-15	1.874578E-17
7.400000E+03	2.952939E-15	1.861918E-17
7.410000E+03	2.958009E-15	1.850694E-17
7.420000E+03	2.962877E-15	1.839778E-17
7.430000E+03	2.966127E-15	1.828359E-17
7.440000E+03	2.966597E-15	1.815805E-17
7.450000E+03	2.963084E-15	1.801478E-17
7.460000E+03	2.953657E-15	1.784310E-17
7.470000E+03	2.935553E-15	1.762745E-17
7.480000E+03	2.904998E-15	1.734637E-17
7.490000E+03	2.857907E-15	1.697689E-17
7.500000E+03	2.792580E-15	1.651036E-17
7.510000E+03	2.710960E-15	1.595945E-17
7.520000E+03	2.616033E-15	1.534210E-17
7.530000E+03	2.510498E-15	1.467394E-17
7.540000E+03	2.401739E-15	1.399750E-17
7.550000E+03	2.303479E-15	1.339162E-17
7.560000E+03	2.229960E-15	1.293748E-17
7.570000E+03	2.189033E-15	1.267889E-17
7.580000E+03	2.178396E-15	1.260106E-17
7.590000E+03	2.185586E-15	1.263099E-17
7.600000E+03	2.189424E-15	1.264588E-17
7.610000E+03	2.167001E-15	1.251327E-17
7.620000E+03	2.110483E-15	1.218770E-17
7.630000E+03	2.036663E-15	1.176564E-17
7.640000E+03	1.972650E-15	1.140315E-17
7.650000E+03	1.939129E-15	1.121954E-17
7.660000E+03	1.944644E-15	1.126448E-17
7.670000E+03	1.986337E-15	1.152206E-17
7.680000E+03	2.052758E-15	1.192667E-17
7.690000E+03	2.129294E-15	1.239409E-17
7.700000E+03	2.204252E-15	1.285665E-17
7.710000E+03	2.270904E-15	1.327511E-17
7.720000E+03	2.326983E-15	1.363605E-17
7.730000E+03	2.374070E-15	1.394841E-17
7.740000E+03	2.415634E-15	1.423235E-17
7.750000E+03	2.454998E-15	1.450733E-17
7.760000E+03	2.494020E-15	1.478439E-17
