#wls	flux	fluxerr
1.600000E+03	4.292335E-17	2.270195E-19
1.640000E+03	4.330005E-17	2.290119E-19
1.680000E+03	4.369724E-17	2.311125E-19
1.720000E+03	4.413927E-17	2.334504E-19
1.760000E+03	4.461320E-17	2.359570E-19
1.800000E+03	4.512880E-17	2.386840E-19
1.840000E+03	4.568087E-17	2.416038E-19
1.880000E+03	4.627965E-17	2.447708E-19
1.920000E+03	4.693585E-17	2.482414E-19
1.960000E+03	4.763696E-17	2.519495E-19
2.000000E+03	4.840204E-17	2.559960E-19
2.040000E+03	4.922680E-17	2.603581E-19
2.080000E+03	5.011504E-17	2.650559E-19
2.120000E+03	5.107901E-17	2.701543E-19
2.160000E+03	5.212323E-17	2.756771E-19
2.200000E+03	5.325248E-17	2.816497E-19
2.240000E+03	5.446314E-17	2.880528E-19
2.280000E+03	5.577742E-17	2.950040E-19
2.320000E+03	5.719211E-17	3.024862E-19
2.360000E+03	5.871251E-17	3.105275E-19
2.400000E+03	6.036216E-17	3.192524E-19
2.440000E+03	6.212845E-17	3.285942E-19
2.480000E+03	6.402562E-17	3.386282E-19
2.520000E+03	6.605842E-17	3.493796E-19
2.560000E+03	6.824075E-17	3.609218E-19
2.600000E+03	7.057628E-17	3.732743E-19
2.640000E+03	7.305714E-17	3.863955E-19
2.680000E+03	7.570463E-17	4.003979E-19
2.720000E+03	7.850774E-17	4.152234E-19
2.760000E+03	8.147447E-17	4.309143E-19
2.800000E+03	8.460030E-17	4.474466E-19
2.840000E+03	8.787843E-17	4.647845E-19
2.880000E+03	9.130011E-17	4.828816E-19
2.920000E+03	9.486717E-17	5.017476E-19
2.960000E+03	9.858214E-17	5.213958E-19
3.000000E+03	1.024248E-16	5.417196E-19
3.010000E+03	1.033973E-16	5.468632E-19
3.020000E+03	1.043846E-16	5.520847E-19
3.030000E+03	1.053866E-16	5.573841E-19
3.040000E+03	1.063908E-16	5.626952E-19
3.050000E+03	1.074100E-16	5.680859E-19
3.060000E+03	1.084317E-16	5.734897E-19
3.070000E+03	1.094687E-16	5.789746E-19
3.080000E+03	1.105087E-16	5.844746E-19
3.090000E+03	1.115516E-16	5.899908E-19
3.100000E+03	1.126240E-16	5.956627E-19
3.110000E+03	1.136873E-16	6.012862E-19
3.120000E+03	1.147812E-16	6.070721E-19
3.130000E+03	1.158670E-16	6.128147E-19
3.140000E+03	1.169850E-16	6.187277E-19
3.150000E+03	1.181096E-16	6.246755E-19
3.160000E+03	1.192415E-16	6.306620E-19
3.170000E+03	1.203954E-16	6.367649E-19
3.180000E+03	1.215725E-16	6.429905E-19
3.190000E+03	1.227605E-16	6.492738E-19
3.200000E+03	1.239748E-16	6.556961E-19
3.210000E+03	1.252030E-16	6.621923E-19
3.220000E+03	1.264611E-16	6.688463E-19
3.230000E+03	1.277371E-16	6.755951E-19
3.240000E+03	1.290474E-16	6.825248E-19
3.250000E+03	1.303942E-16	6.896479E-19
3.260000E+03	1.317666E-16	6.969067E-19
3.270000E+03	1.331815E-16	7.043903E-19
3.280000E+03	1.346426E-16	7.121175E-19
3.290000E+03	1.361391E-16	7.200328E-19
3.300000E+03	1.376895E-16	7.282329E-19
3.310000E+03	1.392839E-16	7.366651E-19
3.320000E+03	1.409414E-16	7.454315E-19
3.330000E+03	1.426674E-16	7.545606E-19
3.340000E+03	1.444535E-16	7.640071E-19
3.350000E+03	1.463206E-16	7.738820E-19
3.360000E+03	1.482610E-16	7.841445E-19
3.370000E+03	1.503123E-16	7.949937E-19
3.380000E+03	1.524379E-16	8.062362E-19
3.390000E+03	1.546927E-16	8.181617E-19
3.400000E+03	1.570564E-16	8.306629E-19
3.410000E+03	1.595555E-16	8.438808E-19
3.420000E+03	1.621867E-16	8.577969E-19
3.430000E+03	1.649949E-16	8.726496E-19
3.440000E+03	1.679469E-16	8.882627E-19
3.450000E+03	1.711068E-16	9.049747E-19
3.460000E+03	1.744590E-16	9.227048E-19
3.470000E+03	1.780386E-16	9.416371E-19
3.480000E+03	1.818487E-16	9.617884E-19
3.490000E+03	1.859445E-16	9.834505E-19
3.500000E+03	1.903142E-16	1.006562E-18
3.510000E+03	1.949809E-16	1.031244E-18
3.520000E+03	2.000047E-16	1.057815E-18
3.530000E+03	2.053746E-16	1.086215E-18
3.540000E+03	2.111140E-16	1.116571E-18
3.550000E+03	2.172841E-16	1.149204E-18
3.560000E+03	2.238677E-16	1.184025E-18
3.570000E+03	2.308800E-16	1.221112E-18
3.580000E+03	2.383723E-16	1.260738E-18
3.590000E+03	2.463035E-16	1.302687E-18
3.600000E+03	2.546722E-16	1.346948E-18
3.610000E+03	2.633737E-16	1.392970E-18
3.620000E+03	2.723254E-16	1.440315E-18
3.630000E+03	2.813250E-16	1.487913E-18
3.640000E+03	2.902057E-16	1.534883E-18
3.650000E+03	2.988743E-16	1.580730E-18
3.660000E+03	3.071456E-16	1.624477E-18
3.670000E+03	3.148945E-16	1.665460E-18
3.680000E+03	3.220947E-16	1.703542E-18
3.690000E+03	3.286388E-16	1.738153E-18
3.700000E+03	3.344726E-16	1.769008E-18
3.710000E+03	3.395890E-16	1.796068E-18
3.720000E+03	3.438740E-16	1.818732E-18
3.730000E+03	3.473177E-16	1.836945E-18
3.740000E+03	3.498986E-16	1.850595E-18
3.750000E+03	3.516784E-16	1.860009E-18
3.760000E+03	3.527356E-16	1.865600E-18
3.770000E+03	3.532365E-16	1.868249E-18
3.780000E+03	3.533607E-16	1.868906E-18
3.781820E+03	4.091972E-16	2.164223E-18
3.783290E+03	4.068687E-16	2.151907E-18
3.784760E+03	4.064637E-16	2.149765E-18
3.786230E+03	4.022368E-16	2.127409E-18
3.787700E+03	3.973374E-16	2.101497E-18
3.789170E+03	3.901253E-16	2.063352E-18
3.790640E+03	3.897840E-16	2.061547E-18
3.792110E+03	3.929312E-16	2.078193E-18
3.793580E+03	3.907431E-16	2.066620E-18
3.795050E+03	3.880637E-16	2.052448E-18
3.796520E+03	3.866117E-16	2.044769E-18
3.797990E+03	3.833500E-16	2.027518E-18
3.799460E+03	3.824663E-16	2.022844E-18
3.800930E+03	3.778204E-16	1.998272E-18
3.802400E+03	3.768587E-16	1.993186E-18
3.803870E+03	3.792595E-16	2.005883E-18
3.805340E+03	3.804840E-16	2.012360E-18
3.806810E+03	3.810883E-16	2.015556E-18
3.808280E+03	3.826113E-16	2.023611E-18
3.809750E+03	3.801240E-16	2.010456E-18
3.811220E+03	3.793316E-16	2.006265E-18
3.812690E+03	3.786556E-16	2.002689E-18
3.814160E+03	3.801023E-16	2.010341E-18
3.815630E+03	3.833749E-16	2.027650E-18
3.817100E+03	3.856258E-16	2.039555E-18
3.818570E+03	3.851971E-16	2.037287E-18
3.820040E+03	3.813236E-16	2.016800E-18
3.821510E+03	3.833296E-16	2.027410E-18
3.822980E+03	3.879918E-16	2.052068E-18
3.824450E+03	3.879655E-16	2.051929E-18
3.825920E+03	3.910362E-16	2.068170E-18
3.827390E+03	3.962461E-16	2.095725E-18
3.828860E+03	3.976341E-16	2.103066E-18
3.830330E+03	3.940711E-16	2.084221E-18
3.831800E+03	3.894441E-16	2.059750E-18
3.833270E+03	3.823916E-16	2.022449E-18
3.834740E+03	3.721471E-16	1.968266E-18
3.836210E+03	3.617962E-16	1.913521E-18
3.837680E+03	3.541018E-16	1.872826E-18
3.839150E+03	3.525806E-16	1.864780E-18
3.840620E+03	3.538746E-16	1.871624E-18
3.842090E+03	3.563239E-16	1.884579E-18
3.843560E+03	3.539721E-16	1.872140E-18
3.845030E+03	3.503866E-16	1.853177E-18
3.846500E+03	3.467484E-16	1.833934E-18
3.847970E+03	3.431741E-16	1.815030E-18
3.849440E+03	3.440011E-16	1.819404E-18
3.850910E+03	3.415685E-16	1.806538E-18
3.852380E+03	3.369532E-16	1.782128E-18
3.853850E+03	3.333241E-16	1.762934E-18
3.855320E+03	3.282647E-16	1.736175E-18
3.856790E+03	3.276872E-16	1.733121E-18
3.858260E+03	3.283573E-16	1.736665E-18
3.859730E+03	3.300545E-16	1.745641E-18
3.861200E+03	3.314663E-16	1.753108E-18
3.862670E+03	3.271056E-16	1.730044E-18
3.864140E+03	3.271782E-16	1.730428E-18
3.865610E+03	3.291366E-16	1.740786E-18
3.867080E+03	3.262698E-16	1.725624E-18
3.868550E+03	3.256659E-16	1.722430E-18
3.870020E+03	3.268965E-16	1.728939E-18
3.871490E+03	3.294029E-16	1.742195E-18
3.872960E+03	3.317798E-16	1.754766E-18
3.874430E+03	3.306950E-16	1.749029E-18
3.875900E+03	3.352341E-16	1.773035E-18
3.877370E+03	3.393187E-16	1.794639E-18
3.878840E+03	3.452929E-16	1.826236E-18
3.880310E+03	3.509953E-16	1.856396E-18
3.881780E+03	3.519188E-16	1.861280E-18
3.883250E+03	3.534679E-16	1.869473E-18
3.884720E+03	3.569069E-16	1.887662E-18
3.886190E+03	3.640350E-16	1.925362E-18
3.887660E+03	3.702920E-16	1.958455E-18
3.889130E+03	3.740999E-16	1.978595E-18
3.890600E+03	3.800864E-16	2.010257E-18
3.892070E+03	3.848359E-16	2.035377E-18
3.893540E+03	3.893130E-16	2.059056E-18
3.895010E+03	3.956826E-16	2.092745E-18
3.896480E+03	4.025759E-16	2.129203E-18
3.897950E+03	4.086363E-16	2.161256E-18
3.899420E+03	4.157815E-16	2.199047E-18
3.900890E+03	4.210365E-16	2.226840E-18
3.902360E+03	4.293473E-16	2.270795E-18
3.903830E+03	4.365771E-16	2.309033E-18
3.905300E+03	4.440831E-16	2.348732E-18
3.906770E+03	4.529887E-16	2.395833E-18
3.908240E+03	4.600684E-16	2.433278E-18
3.909710E+03	4.647336E-16	2.457952E-18
3.911180E+03	4.709679E-16	2.490925E-18
3.912650E+03	4.770212E-16	2.522940E-18
3.914120E+03	4.859381E-16	2.570101E-18
3.915590E+03	4.952628E-16	2.619419E-18
3.917060E+03	5.044725E-16	2.668129E-18
3.918530E+03	5.141033E-16	2.719066E-18
3.920000E+03	5.226909E-16	2.764485E-18
3.921470E+03	5.327064E-16	2.817456E-18
3.922940E+03	5.431827E-16	2.872865E-18
3.924410E+03	5.486648E-16	2.901860E-18
3.925880E+03	5.510347E-16	2.914394E-18
3.927350E+03	5.547662E-16	2.934129E-18
3.928820E+03	5.574254E-16	2.948194E-18
3.930290E+03	5.604782E-16	2.964340E-18
3.931760E+03	5.648541E-16	2.987484E-18
3.933230E+03	5.745338E-16	3.038679E-18
3.934700E+03	5.809032E-16	3.072367E-18
3.936170E+03	5.849827E-16	3.093943E-18
3.937640E+03	5.901504E-16	3.121274E-18
3.939110E+03	5.983982E-16	3.164896E-18
3.940580E+03	6.104088E-16	3.228420E-18
3.942050E+03	6.157134E-16	3.256476E-18
3.943520E+03	6.190404E-16	3.274072E-18
3.944990E+03	6.239676E-16	3.300132E-18
3.946460E+03	6.298401E-16	3.331191E-18
3.947930E+03	6.357272E-16	3.362328E-18
3.949400E+03	6.392687E-16	3.381059E-18
3.950870E+03	6.415126E-16	3.392926E-18
3.952340E+03	6.478105E-16	3.426236E-18
3.953810E+03	6.516043E-16	3.446301E-18
3.955280E+03	6.529716E-16	3.453533E-18
3.956750E+03	6.534468E-16	3.456046E-18
3.958220E+03	6.576103E-16	3.478066E-18
3.959690E+03	6.599241E-16	3.490304E-18
3.961160E+03	6.631442E-16	3.507335E-18
3.962630E+03	6.669168E-16	3.527288E-18
3.964100E+03	6.684709E-16	3.535507E-18
3.965570E+03	6.697888E-16	3.542478E-18
3.967040E+03	6.697671E-16	3.542363E-18
3.968510E+03	6.681029E-16	3.533561E-18
3.969980E+03	6.692634E-16	3.539699E-18
3.971450E+03	6.710024E-16	3.548897E-18
3.972920E+03	6.695739E-16	3.541341E-18
3.974390E+03	6.676717E-16	3.531281E-18
3.975860E+03	6.676491E-16	3.531161E-18
3.977330E+03	6.662060E-16	3.523529E-18
3.978800E+03	6.636446E-16	3.509982E-18
3.980270E+03	6.620557E-16	3.501578E-18
3.981740E+03	6.599531E-16	3.490457E-18
3.983210E+03	6.564684E-16	3.472027E-18
3.984680E+03	6.550615E-16	3.464586E-18
3.986150E+03	6.555494E-16	3.467166E-18
3.987620E+03	6.553003E-16	3.465849E-18
3.989090E+03	6.564332E-16	3.471841E-18
3.990560E+03	6.555518E-16	3.467179E-18
3.992030E+03	6.533268E-16	3.455411E-18
3.993500E+03	6.522338E-16	3.449630E-18
3.994970E+03	6.504817E-16	3.440363E-18
3.996440E+03	6.485444E-16	3.430117E-18
3.997910E+03	6.516662E-16	3.446628E-18
3.999380E+03	6.544328E-16	3.461261E-18
4.000850E+03	6.524422E-16	3.450733E-18
4.002320E+03	6.533377E-16	3.455469E-18
4.003790E+03	6.530336E-16	3.453860E-18
4.005260E+03	6.547465E-16	3.462920E-18
4.006730E+03	6.558401E-16	3.468704E-18
4.008200E+03	6.556808E-16	3.467861E-18
4.009670E+03	6.609560E-16	3.495761E-18
4.011140E+03	6.646098E-16	3.515086E-18
4.012610E+03	6.647942E-16	3.516062E-18
4.014080E+03	6.659156E-16	3.521992E-18
4.015550E+03	6.681325E-16	3.533718E-18
4.017020E+03	6.691355E-16	3.539022E-18
4.018490E+03	6.749176E-16	3.569604E-18
4.019960E+03	6.788923E-16	3.590626E-18
4.021430E+03	6.818775E-16	3.606414E-18
4.022900E+03	6.858143E-16	3.627236E-18
4.024370E+03	6.911521E-16	3.655467E-18
4.025840E+03	6.958967E-16	3.680561E-18
4.027310E+03	6.989512E-16	3.696716E-18
4.028780E+03	7.036978E-16	3.721821E-18
4.030250E+03	7.073486E-16	3.741130E-18
4.031720E+03	7.098899E-16	3.754570E-18
4.033190E+03	7.152607E-16	3.782976E-18
4.034660E+03	7.207254E-16	3.811879E-18
4.036130E+03	7.239698E-16	3.829038E-18
4.037600E+03	7.245830E-16	3.832281E-18
4.039070E+03	7.288733E-16	3.854972E-18
4.040540E+03	7.319608E-16	3.871302E-18
4.042010E+03	7.339242E-16	3.881686E-18
4.043480E+03	7.365628E-16	3.895642E-18
4.044950E+03	7.396256E-16	3.911841E-18
4.046420E+03	7.410211E-16	3.919221E-18
4.047890E+03	7.422447E-16	3.925693E-18
4.049360E+03	7.453087E-16	3.941899E-18
4.050830E+03	7.469432E-16	3.950543E-18
4.052300E+03	7.465784E-16	3.948614E-18
4.053770E+03	7.448755E-16	3.939607E-18
4.055240E+03	7.449337E-16	3.939915E-18
4.056710E+03	7.448194E-16	3.939311E-18
4.058180E+03	7.454205E-16	3.942490E-18
4.059650E+03	7.455444E-16	3.943145E-18
4.061120E+03	7.445549E-16	3.937911E-18
4.062590E+03	7.431540E-16	3.930502E-18
4.064060E+03	7.413150E-16	3.920776E-18
4.065530E+03	7.389582E-16	3.908311E-18
4.067000E+03	7.361232E-16	3.893317E-18
4.068470E+03	7.318021E-16	3.870463E-18
4.069940E+03	7.277182E-16	3.848863E-18
4.071410E+03	7.232882E-16	3.825433E-18
4.072880E+03	7.166147E-16	3.790137E-18
4.074350E+03	7.078164E-16	3.743604E-18
4.075820E+03	7.012981E-16	3.709129E-18
4.077290E+03	6.970208E-16	3.686506E-18
4.078760E+03	6.906583E-16	3.652856E-18
4.080230E+03	6.870553E-16	3.633799E-18
4.081700E+03	6.844071E-16	3.619793E-18
4.083170E+03	6.792483E-16	3.592508E-18
4.084640E+03	6.715381E-16	3.551730E-18
4.086110E+03	6.660705E-16	3.522812E-18
4.087580E+03	6.615444E-16	3.498874E-18
4.089050E+03	6.547055E-16	3.462703E-18
4.090520E+03	6.488743E-16	3.431862E-18
4.091990E+03	6.404768E-16	3.387448E-18
4.093460E+03	6.336187E-16	3.351176E-18
4.094930E+03	6.274631E-16	3.318619E-18
4.096400E+03	6.210400E-16	3.284648E-18
4.097870E+03	6.150006E-16	3.252706E-18
4.099340E+03	6.073107E-16	3.212034E-18
4.100810E+03	6.030897E-16	3.189710E-18
4.102280E+03	6.009954E-16	3.178633E-18
4.103750E+03	5.974373E-16	3.159814E-18
4.105220E+03	5.940777E-16	3.142045E-18
4.106690E+03	5.911561E-16	3.126594E-18
4.108160E+03	5.883268E-16	3.111629E-18
4.109630E+03	5.860023E-16	3.099335E-18
4.111100E+03	5.837702E-16	3.087530E-18
4.112570E+03	5.805125E-16	3.070300E-18
4.114040E+03	5.760422E-16	3.046657E-18
4.115510E+03	5.727025E-16	3.028994E-18
4.116980E+03	5.715323E-16	3.022804E-18
4.118450E+03	5.681909E-16	3.005132E-18
4.119920E+03	5.648884E-16	2.987665E-18
4.121390E+03	5.607191E-16	2.965613E-18
4.122860E+03	5.564553E-16	2.943063E-18
4.124330E+03	5.551350E-16	2.936080E-18
4.125800E+03	5.531746E-16	2.925711E-18
4.127270E+03	5.479350E-16	2.897999E-18
4.128740E+03	5.442536E-16	2.878528E-18
4.130210E+03	5.414774E-16	2.863845E-18
4.131680E+03	5.370608E-16	2.840486E-18
4.133150E+03	5.355494E-16	2.832493E-18
4.134620E+03	5.333709E-16	2.820971E-18
4.136090E+03	5.295514E-16	2.800769E-18
4.137560E+03	5.254106E-16	2.778869E-18
4.139030E+03	5.216022E-16	2.758727E-18
4.140500E+03	5.191269E-16	2.745635E-18
4.141970E+03	5.167442E-16	2.733033E-18
4.143440E+03	5.150814E-16	2.724238E-18
4.144910E+03	5.100016E-16	2.697372E-18
4.146380E+03	5.085108E-16	2.689487E-18
4.147850E+03	5.096625E-16	2.695578E-18
4.149320E+03	5.067560E-16	2.680206E-18
4.150790E+03	5.035281E-16	2.663133E-18
4.152260E+03	5.009269E-16	2.649376E-18
4.153730E+03	4.991262E-16	2.639852E-18
4.155200E+03	4.990212E-16	2.639297E-18
4.156670E+03	4.959774E-16	2.623198E-18
4.158140E+03	4.933201E-16	2.609144E-18
4.159610E+03	4.910763E-16	2.597276E-18
4.161080E+03	4.849301E-16	2.564770E-18
4.162550E+03	4.792234E-16	2.534587E-18
4.164020E+03	4.763486E-16	2.519383E-18
4.165490E+03	4.765206E-16	2.520292E-18
4.166960E+03	4.751818E-16	2.513212E-18
4.168430E+03	4.722518E-16	2.497715E-18
4.169900E+03	4.694145E-16	2.482708E-18
4.171370E+03	4.689299E-16	2.480145E-18
4.172840E+03	4.678298E-16	2.474327E-18
4.174310E+03	4.653919E-16	2.461433E-18
4.175780E+03	4.631672E-16	2.449667E-18
4.177250E+03	4.631761E-16	2.449714E-18
4.178720E+03	4.646432E-16	2.457473E-18
4.180190E+03	4.654546E-16	2.461765E-18
4.181660E+03	4.651287E-16	2.460041E-18
4.183130E+03	4.638122E-16	2.453078E-18
4.184600E+03	4.619331E-16	2.443140E-18
4.186070E+03	4.590227E-16	2.427747E-18
4.187540E+03	4.583874E-16	2.424387E-18
4.189010E+03	4.599074E-16	2.432426E-18
4.190480E+03	4.604368E-16	2.435226E-18
4.191950E+03	4.598545E-16	2.432146E-18
4.193420E+03	4.594595E-16	2.430057E-18
4.194890E+03	4.586490E-16	2.425770E-18
4.196360E+03	4.593251E-16	2.429346E-18
4.197830E+03	4.595055E-16	2.430300E-18
4.199300E+03	4.579574E-16	2.422112E-18
4.200770E+03	4.569180E-16	2.416615E-18
4.202240E+03	4.567895E-16	2.415935E-18
4.203710E+03	4.582959E-16	2.423903E-18
4.205180E+03	4.595210E-16	2.430382E-18
4.206650E+03	4.594592E-16	2.430056E-18
4.208120E+03	4.600542E-16	2.433202E-18
4.209590E+03	4.596437E-16	2.431031E-18
4.211060E+03	4.584551E-16	2.424745E-18
4.212530E+03	4.578427E-16	2.421506E-18
4.214000E+03	4.571496E-16	2.417840E-18
4.215470E+03	4.557722E-16	2.410555E-18
4.216940E+03	4.545956E-16	2.404332E-18
4.218410E+03	4.534320E-16	2.398178E-18
4.219880E+03	4.528583E-16	2.395144E-18
4.221350E+03	4.500973E-16	2.380541E-18
4.222820E+03	4.478186E-16	2.368489E-18
4.224290E+03	4.465056E-16	2.361545E-18
4.225760E+03	4.446420E-16	2.351688E-18
4.227230E+03	4.429523E-16	2.342751E-18
4.228700E+03	4.411951E-16	2.333457E-18
4.230170E+03	4.409544E-16	2.332185E-18
4.231640E+03	4.402436E-16	2.328425E-18
4.233110E+03	4.380823E-16	2.316994E-18
4.234580E+03	4.369813E-16	2.311171E-18
4.236050E+03	4.339192E-16	2.294976E-18
4.237520E+03	4.311786E-16	2.280481E-18
4.238990E+03	4.301435E-16	2.275006E-18
4.240460E+03	4.296319E-16	2.272300E-18
4.241930E+03	4.282065E-16	2.264761E-18
4.243400E+03	4.285811E-16	2.266743E-18
4.244870E+03	4.292245E-16	2.270146E-18
4.246340E+03	4.297737E-16	2.273050E-18
4.247810E+03	4.313579E-16	2.281429E-18
4.249280E+03	4.320416E-16	2.285045E-18
4.250750E+03	4.338410E-16	2.294562E-18
4.252220E+03	4.354523E-16	2.303084E-18
4.253690E+03	4.359209E-16	2.305563E-18
4.255160E+03	4.354751E-16	2.303205E-18
4.256630E+03	4.381758E-16	2.317489E-18
4.258100E+03	4.407692E-16	2.331205E-18
4.259570E+03	4.441161E-16	2.348907E-18
4.261040E+03	4.448406E-16	2.352738E-18
4.262510E+03	4.452959E-16	2.355147E-18
4.263980E+03	4.483477E-16	2.371287E-18
4.265450E+03	4.516958E-16	2.388995E-18
4.266920E+03	4.547482E-16	2.405139E-18
4.268390E+03	4.566842E-16	2.415379E-18
4.269860E+03	4.603699E-16	2.434872E-18
4.271330E+03	4.658325E-16	2.463764E-18
4.272800E+03	4.689405E-16	2.480202E-18
4.274270E+03	4.732737E-16	2.503120E-18
4.275740E+03	4.753459E-16	2.514079E-18
4.277210E+03	4.775124E-16	2.525538E-18
4.278680E+03	4.808102E-16	2.542980E-18
4.280150E+03	4.831119E-16	2.555153E-18
4.281620E+03	4.836496E-16	2.557997E-18
4.283090E+03	4.873926E-16	2.577794E-18
4.284560E+03	4.893716E-16	2.588260E-18
4.286030E+03	4.917280E-16	2.600723E-18
4.287500E+03	4.946502E-16	2.616179E-18
4.288970E+03	4.956463E-16	2.621447E-18
4.290440E+03	4.968580E-16	2.627856E-18
4.291910E+03	4.977462E-16	2.632554E-18
4.293380E+03	4.999820E-16	2.644378E-18
4.294850E+03	5.022180E-16	2.656205E-18
4.296320E+03	5.051550E-16	2.671738E-18
4.297790E+03	5.066365E-16	2.679574E-18
4.299260E+03	5.066489E-16	2.679639E-18
4.300730E+03	5.076586E-16	2.684980E-18
4.302200E+03	5.112838E-16	2.704153E-18
4.303670E+03	5.135476E-16	2.716126E-18
4.305140E+03	5.122249E-16	2.709130E-18
4.306610E+03	5.105242E-16	2.700135E-18
4.308080E+03	5.088501E-16	2.691281E-18
4.309550E+03	5.092389E-16	2.693337E-18
4.311020E+03	5.083599E-16	2.688688E-18
4.312490E+03	5.087484E-16	2.690744E-18
4.313960E+03	5.101081E-16	2.697935E-18
4.315430E+03	5.106854E-16	2.700988E-18
4.316900E+03	5.085643E-16	2.689770E-18
4.318370E+03	5.076029E-16	2.684685E-18
4.319840E+03	5.079367E-16	2.686451E-18
4.321310E+03	5.074203E-16	2.683719E-18
4.322780E+03	5.062287E-16	2.677417E-18
4.324250E+03	5.045104E-16	2.668329E-18
4.325720E+03	5.026028E-16	2.658239E-18
4.327190E+03	5.010052E-16	2.649790E-18
4.328660E+03	4.991506E-16	2.639981E-18
4.330130E+03	4.986188E-16	2.637168E-18
4.331600E+03	4.951703E-16	2.618930E-18
4.333070E+03	4.932064E-16	2.608543E-18
4.334540E+03	4.929976E-16	2.607438E-18
4.336010E+03	4.926805E-16	2.605761E-18
4.337480E+03	4.930115E-16	2.607511E-18
4.338950E+03	4.941932E-16	2.613762E-18
4.340420E+03	4.938486E-16	2.611939E-18
4.341890E+03	4.923151E-16	2.603829E-18
4.343360E+03	4.918349E-16	2.601289E-18
4.344830E+03	4.906114E-16	2.594818E-18
4.346300E+03	4.912251E-16	2.598064E-18
4.347770E+03	4.908118E-16	2.595878E-18
4.349240E+03	4.911685E-16	2.597764E-18
4.350710E+03	4.936736E-16	2.611014E-18
4.352180E+03	4.942330E-16	2.613972E-18
4.353650E+03	4.951571E-16	2.618860E-18
4.355120E+03	4.957567E-16	2.622031E-18
4.356590E+03	4.976809E-16	2.632208E-18
4.358060E+03	4.992673E-16	2.640598E-18
4.359530E+03	5.001642E-16	2.645342E-18
4.361000E+03	5.015073E-16	2.652446E-18
4.362470E+03	5.030126E-16	2.660407E-18
4.363940E+03	5.050587E-16	2.671229E-18
4.365410E+03	5.064424E-16	2.678547E-18
