#wls	flux	fluxerr
1.600000E+03	3.611907E-17	1.472900E-18
1.640000E+03	3.639801E-17	1.477045E-18
1.680000E+03	3.670675E-17	1.482115E-18
1.720000E+03	3.703423E-17	1.487637E-18
1.760000E+03	3.739467E-17	1.494162E-18
1.800000E+03	3.778989E-17	1.501734E-18
1.840000E+03	3.821541E-17	1.510144E-18
1.880000E+03	3.867323E-17	1.519442E-18
1.920000E+03	3.917857E-17	1.530191E-18
1.960000E+03	3.972079E-17	1.541935E-18
2.000000E+03	4.030902E-17	1.554988E-18
2.040000E+03	4.094598E-17	1.569412E-18
2.080000E+03	4.163465E-17	1.585269E-18
2.120000E+03	4.237810E-17	1.602625E-18
2.160000E+03	4.317961E-17	1.621545E-18
2.200000E+03	4.404961E-17	1.642358E-18
2.240000E+03	4.498476E-17	1.664868E-18
2.280000E+03	4.599592E-17	1.689405E-18
2.320000E+03	4.708711E-17	1.716032E-18
2.360000E+03	4.826234E-17	1.744806E-18
2.400000E+03	4.951801E-17	1.775503E-18
2.440000E+03	5.087312E-17	1.808706E-18
2.480000E+03	5.232385E-17	1.844167E-18
2.520000E+03	5.387359E-17	1.881890E-18
2.560000E+03	5.553345E-17	1.922142E-18
2.600000E+03	5.730630E-17	1.964886E-18
2.640000E+03	5.918580E-17	2.009770E-18
2.680000E+03	6.119025E-17	2.057273E-18
2.720000E+03	6.331185E-17	2.106978E-18
2.760000E+03	6.555028E-17	2.158722E-18
2.800000E+03	6.791371E-17	2.212618E-18
2.840000E+03	7.039155E-17	2.268156E-18
2.880000E+03	7.299173E-17	2.325434E-18
2.920000E+03	7.572367E-17	2.384581E-18
2.960000E+03	7.857911E-17	2.445161E-18
3.000000E+03	8.156268E-17	2.507143E-18
3.010000E+03	8.232669E-17	2.522779E-18
3.020000E+03	8.310672E-17	2.538734E-18
3.030000E+03	8.389259E-17	2.554692E-18
3.040000E+03	8.469519E-17	2.570983E-18
3.050000E+03	8.549362E-17	2.586968E-18
3.060000E+03	8.632026E-17	2.603625E-18
3.070000E+03	8.714346E-17	2.619993E-18
3.080000E+03	8.798521E-17	2.636733E-18
3.090000E+03	8.884620E-17	2.653859E-18
3.100000E+03	8.970529E-17	2.670735E-18
3.110000E+03	9.058489E-17	2.688026E-18
3.120000E+03	9.148600E-17	2.705757E-18
3.130000E+03	9.239848E-17	2.723620E-18
3.140000E+03	9.332317E-17	2.741637E-18
3.150000E+03	9.427246E-17	2.760166E-18
3.160000E+03	9.523615E-17	2.778903E-18
3.170000E+03	9.621560E-17	2.797882E-18
3.180000E+03	9.722366E-17	2.817470E-18
3.190000E+03	9.825031E-17	2.837368E-18
3.200000E+03	9.930894E-17	2.857958E-18
3.210000E+03	1.003898E-16	2.878947E-18
3.220000E+03	1.014949E-16	2.900389E-18
3.230000E+03	1.026382E-16	2.922668E-18
3.240000E+03	1.038103E-16	2.945513E-18
3.250000E+03	1.050259E-16	2.969325E-18
3.260000E+03	1.062757E-16	2.993831E-18
3.270000E+03	1.075630E-16	3.019112E-18
3.280000E+03	1.089034E-16	3.045590E-18
3.290000E+03	1.102883E-16	3.073011E-18
3.300000E+03	1.117341E-16	3.101818E-18
3.310000E+03	1.132329E-16	3.131773E-18
3.320000E+03	1.148021E-16	3.163334E-18
3.330000E+03	1.164343E-16	3.196282E-18
3.340000E+03	1.181351E-16	3.230745E-18
3.350000E+03	1.199236E-16	3.267226E-18
3.360000E+03	1.218069E-16	3.305887E-18
3.370000E+03	1.237657E-16	3.346181E-18
3.380000E+03	1.258346E-16	3.389010E-18
3.390000E+03	1.280224E-16	3.434580E-18
3.400000E+03	1.303252E-16	3.482746E-18
3.410000E+03	1.327668E-16	3.534108E-18
3.420000E+03	1.353305E-16	3.588176E-18
3.430000E+03	1.380706E-16	3.646349E-18
3.440000E+03	1.409718E-16	3.708167E-18
3.450000E+03	1.440478E-16	3.773940E-18
3.460000E+03	1.473134E-16	3.843999E-18
3.470000E+03	1.508153E-16	3.919494E-18
3.480000E+03	1.545247E-16	3.999607E-18
3.490000E+03	1.584907E-16	4.085537E-18
3.500000E+03	1.627328E-16	4.177707E-18
3.510000E+03	1.672381E-16	4.275694E-18
3.520000E+03	1.720764E-16	4.381200E-18
3.530000E+03	1.772172E-16	4.493339E-18
3.540000E+03	1.827319E-16	4.613821E-18
3.550000E+03	1.885839E-16	4.741609E-18
3.560000E+03	1.948223E-16	4.877821E-18
3.570000E+03	2.014530E-16	5.022487E-18
3.580000E+03	2.084508E-16	5.174855E-18
3.590000E+03	2.157919E-16	5.334224E-18
3.600000E+03	2.234552E-16	5.499964E-18
3.610000E+03	2.313606E-16	5.670011E-18
3.620000E+03	2.394510E-16	5.842899E-18
3.630000E+03	2.476065E-16	6.015659E-18
3.640000E+03	2.557164E-16	6.185592E-18
3.650000E+03	2.636918E-16	6.350574E-18
3.660000E+03	2.714256E-16	6.508087E-18
3.670000E+03	2.787696E-16	6.654670E-18
3.680000E+03	2.857162E-16	6.790273E-18
3.690000E+03	2.921170E-16	6.911512E-18
3.700000E+03	2.979641E-16	7.018380E-18
3.710000E+03	3.032078E-16	7.109890E-18
3.720000E+03	3.077558E-16	7.184079E-18
3.730000E+03	3.116721E-16	7.242657E-18
3.740000E+03	3.148818E-16	7.284095E-18
3.750000E+03	3.174819E-16	7.310848E-18
3.760000E+03	3.195526E-16	7.324949E-18
3.770000E+03	3.211593E-16	7.328060E-18
3.780000E+03	3.225463E-16	7.325875E-18
3.790000E+03	3.238232E-16	7.320943E-18
3.800000E+03	3.252690E-16	7.319577E-18
3.810000E+03	3.271053E-16	7.326689E-18
3.820000E+03	3.296343E-16	7.348898E-18
3.830000E+03	3.331250E-16	7.391958E-18
3.840000E+03	3.378900E-16	7.462469E-18
3.850000E+03	3.442754E-16	7.567646E-18
3.860000E+03	3.525617E-16	7.713123E-18
3.870000E+03	3.630290E-16	7.904410E-18
3.880000E+03	3.759310E-16	8.146330E-18
3.890000E+03	3.913425E-16	8.439745E-18
3.900000E+03	4.093819E-16	8.786424E-18
3.910000E+03	4.298358E-16	9.181003E-18
3.920000E+03	4.524913E-16	9.618215E-18
3.930000E+03	4.768595E-16	1.008705E-17
3.940000E+03	5.023609E-16	1.057480E-17
3.950000E+03	5.281580E-16	1.106358E-17
3.960000E+03	5.534782E-16	1.153721E-17
3.970000E+03	5.773942E-16	1.197663E-17
3.980000E+03	5.990999E-16	1.236562E-17
3.990000E+03	6.177398E-16	1.268733E-17
4.000000E+03	6.327756E-16	1.293169E-17
4.010000E+03	6.436875E-16	1.308927E-17
4.020000E+03	6.502259E-16	1.315626E-17
4.030000E+03	6.521720E-16	1.312961E-17
4.040000E+03	6.496906E-16	1.301402E-17
4.050000E+03	6.429933E-16	1.281505E-17
4.060000E+03	6.325406E-16	1.254310E-17
4.070000E+03	6.189702E-16	1.221190E-17
4.080000E+03	6.030418E-16	1.183728E-17
4.090000E+03	5.856052E-16	1.143654E-17
4.100000E+03	5.673551E-16	1.102362E-17
4.110000E+03	5.490696E-16	1.061380E-17
4.120000E+03	5.312670E-16	1.021705E-17
4.130000E+03	5.143223E-16	9.840383E-18
4.140000E+03	4.985917E-16	9.490319E-18
4.150000E+03	4.842175E-16	9.169184E-18
4.160000E+03	4.713444E-16	8.879294E-18
4.170000E+03	4.599721E-16	8.620200E-18
4.180000E+03	4.501808E-16	8.392946E-18
4.190000E+03	4.420085E-16	8.197773E-18
4.200000E+03	4.354947E-16	8.034937E-18
4.210000E+03	4.306827E-16	7.904746E-18
4.220000E+03	4.276455E-16	7.808044E-18
4.230000E+03	4.263545E-16	7.743804E-18
4.240000E+03	4.268386E-16	7.712050E-18
4.250000E+03	4.290494E-16	7.711411E-18
4.260000E+03	4.328828E-16	7.739544E-18
4.270000E+03	4.381779E-16	7.793138E-18
4.280000E+03	4.447261E-16	7.868106E-18
4.290000E+03	4.522963E-16	7.960042E-18
4.300000E+03	4.606378E-16	8.064288E-18
4.310000E+03	4.696180E-16	8.178339E-18
4.320000E+03	4.789913E-16	8.297782E-18
4.330000E+03	4.885663E-16	8.419232E-18
4.340000E+03	4.980334E-16	8.537347E-18
4.350000E+03	5.069525E-16	8.644671E-18
4.360000E+03	5.147221E-16	8.731171E-18
4.370000E+03	5.205519E-16	8.783839E-18
4.380000E+03	5.236933E-16	8.790640E-18
4.390000E+03	5.235071E-16	8.741625E-18
4.400000E+03	5.201502E-16	8.640283E-18
4.410000E+03	5.143998E-16	8.500284E-18
4.420000E+03	5.073641E-16	8.340462E-18
4.430000E+03	4.999782E-16	8.176423E-18
4.440000E+03	4.931353E-16	8.022766E-18
4.450000E+03	4.876963E-16	7.893262E-18
4.460000E+03	4.843293E-16	7.798295E-18
4.470000E+03	4.837238E-16	7.748377E-18
4.480000E+03	4.864540E-16	7.751957E-18
4.490000E+03	4.929532E-16	7.815073E-18
4.500000E+03	5.035613E-16	7.942156E-18
4.510000E+03	5.183450E-16	8.133253E-18
4.520000E+03	5.371651E-16	8.385181E-18
4.530000E+03	5.595675E-16	8.689924E-18
4.540000E+03	5.847952E-16	9.034938E-18
4.550000E+03	6.119288E-16	9.405430E-18
4.560000E+03	6.398598E-16	9.784011E-18
4.570000E+03	6.673948E-16	1.015235E-17
4.580000E+03	6.934844E-16	1.049469E-17
4.590000E+03	7.171334E-16	1.079638E-17
4.600000E+03	7.375827E-16	1.104663E-17
4.610000E+03	7.541481E-16	1.123602E-17
4.620000E+03	7.663833E-16	1.135882E-17
4.630000E+03	7.738997E-16	1.141032E-17
4.640000E+03	7.765490E-16	1.138942E-17
4.650000E+03	7.743168E-16	1.129704E-17
4.660000E+03	7.673103E-16	1.113584E-17
4.670000E+03	7.560798E-16	1.091485E-17
4.680000E+03	7.411494E-16	1.064256E-17
4.690000E+03	7.232724E-16	1.033055E-17
4.700000E+03	7.033212E-16	9.991891E-18
4.710000E+03	6.820988E-16	9.638377E-18
4.720000E+03	6.604413E-16	9.282039E-18
4.730000E+03	6.390165E-16	8.932300E-18
4.740000E+03	6.184413E-16	8.597670E-18
4.750000E+03	5.991169E-16	8.283490E-18
4.760000E+03	5.813664E-16	7.993913E-18
4.770000E+03	5.652843E-16	7.729862E-18
4.780000E+03	5.510223E-16	7.493018E-18
4.790000E+03	5.385176E-16	7.282107E-18
4.800000E+03	5.277733E-16	7.096770E-18
4.810000E+03	5.188776E-16	6.937781E-18
4.820000E+03	5.119317E-16	6.806061E-18
4.830000E+03	5.070921E-16	6.703235E-18
4.840000E+03	5.044901E-16	6.630545E-18
4.850000E+03	5.040827E-16	6.586919E-18
4.860000E+03	5.057232E-16	6.569950E-18
4.870000E+03	5.090417E-16	6.574394E-18
4.880000E+03	5.135665E-16	6.593811E-18
4.890000E+03	5.188456E-16	6.622158E-18
4.900000E+03	5.245342E-16	6.654889E-18
4.910000E+03	5.306125E-16	6.691660E-18
4.920000E+03	5.374312E-16	6.736783E-18
4.930000E+03	5.456102E-16	6.797812E-18
4.940000E+03	5.558579E-16	6.883212E-18
4.950000E+03	5.688630E-16	7.000991E-18
4.960000E+03	5.847592E-16	7.152160E-18
4.970000E+03	6.028361E-16	7.327430E-18
4.980000E+03	6.216579E-16	7.508969E-18
4.990000E+03	6.390237E-16	7.670197E-18
5.000000E+03	6.523217E-16	7.780305E-18
5.010000E+03	6.591331E-16	7.811563E-18
5.020000E+03	6.578877E-16	7.746971E-18
5.030000E+03	6.482352E-16	7.584269E-18
5.040000E+03	6.311990E-16	7.337269E-18
5.050000E+03	6.088697E-16	7.031794E-18
5.060000E+03	5.838376E-16	6.698765E-18
5.070000E+03	5.588013E-16	6.369551E-18
5.080000E+03	5.361754E-16	6.071495E-18
5.090000E+03	5.177877E-16	5.824615E-18
5.100000E+03	5.048773E-16	5.641810E-18
5.110000E+03	4.980727E-16	5.528835E-18
5.120000E+03	4.973924E-16	5.484546E-18
5.130000E+03	5.023404E-16	5.502165E-18
5.140000E+03	5.121770E-16	5.572425E-18
5.150000E+03	5.258580E-16	5.682994E-18
5.160000E+03	5.421298E-16	5.819610E-18
5.170000E+03	5.598531E-16	5.969602E-18
5.180000E+03	5.778403E-16	6.120124E-18
5.190000E+03	5.952577E-16	6.262397E-18
5.200000E+03	6.114642E-16	6.389896E-18
5.210000E+03	6.261851E-16	6.500075E-18
5.220000E+03	6.393610E-16	6.592688E-18
5.230000E+03	6.512019E-16	6.670260E-18
5.240000E+03	6.619467E-16	6.735550E-18
5.250000E+03	6.720473E-16	6.793402E-18
5.260000E+03	6.817340E-16	6.846315E-18
5.270000E+03	6.913573E-16	6.897927E-18
5.280000E+03	7.009445E-16	6.948580E-18
5.290000E+03	7.105488E-16	6.998870E-18
5.300000E+03	7.199732E-16	7.046930E-18
5.310000E+03	7.289756E-16	7.090509E-18
5.320000E+03	7.371818E-16	7.126133E-18
5.330000E+03	7.442766E-16	7.150991E-18
5.340000E+03	7.498889E-16	7.161799E-18
5.350000E+03	7.537184E-16	7.156028E-18
5.360000E+03	7.555332E-16	7.131847E-18
5.370000E+03	7.550565E-16	7.087042E-18
5.380000E+03	7.518994E-16	7.018390E-18
5.390000E+03	7.458498E-16	6.924372E-18
5.400000E+03	7.365743E-16	6.802358E-18
5.410000E+03	7.242203E-16	6.654174E-18
5.420000E+03	7.091406E-16	6.483460E-18
5.430000E+03	6.924110E-16	6.300338E-18
5.440000E+03	6.756291E-16	6.119444E-18
5.450000E+03	6.608623E-16	5.959371E-18
5.460000E+03	6.504714E-16	5.841029E-18
5.470000E+03	6.468341E-16	5.785164E-18
5.480000E+03	6.520499E-16	5.809765E-18
5.490000E+03	6.675829E-16	5.927000E-18
5.500000E+03	6.935748E-16	6.137264E-18
5.510000E+03	7.282124E-16	6.423770E-18
5.520000E+03	7.679515E-16	6.754803E-18
5.530000E+03	8.082162E-16	7.090018E-18
5.540000E+03	8.442235E-16	7.387704E-18
5.550000E+03	8.718045E-16	7.611880E-18
5.560000E+03	8.881289E-16	7.738473E-18
5.570000E+03	8.922304E-16	7.759707E-18
5.580000E+03	8.851079E-16	7.684806E-18
5.590000E+03	8.690454E-16	7.533968E-18
5.600000E+03	8.470353E-16	7.333313E-18
5.610000E+03	8.220997E-16	7.109026E-18
5.620000E+03	7.964334E-16	6.879992E-18
5.630000E+03	7.715213E-16	6.658890E-18
5.640000E+03	7.476078E-16	6.447661E-18
5.650000E+03	7.240298E-16	6.240436E-18
5.660000E+03	6.994123E-16	6.025235E-18
5.670000E+03	6.720762E-16	5.787488E-18
5.680000E+03	6.406400E-16	5.515206E-18
5.690000E+03	6.046093E-16	5.204038E-18
5.700000E+03	5.645020E-16	4.858337E-18
5.710000E+03	5.219406E-16	4.491951E-18
5.720000E+03	4.792150E-16	4.124470E-18
5.730000E+03	4.387328E-16	3.776511E-18
5.740000E+03	4.025895E-16	3.466027E-18
5.750000E+03	3.722540E-16	3.205610E-18
5.760000E+03	3.485633E-16	3.002445E-18
5.770000E+03	3.318886E-16	2.859731E-18
5.780000E+03	3.222255E-16	2.777455E-18
5.790000E+03	3.194056E-16	2.754205E-18
5.800000E+03	3.231216E-16	2.787380E-18
5.810000E+03	3.329360E-16	2.873262E-18
5.820000E+03	3.483151E-16	3.007295E-18
5.830000E+03	3.685393E-16	3.183320E-18
5.840000E+03	3.927608E-16	3.394054E-18
5.850000E+03	4.198799E-16	3.630023E-18
5.860000E+03	4.487122E-16	3.880999E-18
5.870000E+03	4.780988E-16	4.136956E-18
5.880000E+03	5.068591E-16	4.387659E-18
5.890000E+03	5.339819E-16	4.624319E-18
5.900000E+03	5.586912E-16	4.840174E-18
5.910000E+03	5.803225E-16	5.029413E-18
5.920000E+03	5.985196E-16	5.188897E-18
5.930000E+03	6.130864E-16	5.316873E-18
5.940000E+03	6.240543E-16	5.413562E-18
5.950000E+03	6.315273E-16	5.479826E-18
5.960000E+03	6.356538E-16	5.516914E-18
5.970000E+03	6.365700E-16	5.525981E-18
5.980000E+03	6.345283E-16	5.509197E-18
5.990000E+03	6.296687E-16	5.467761E-18
6.000000E+03	6.223856E-16	5.405093E-18
6.010000E+03	6.130082E-16	5.324051E-18
6.020000E+03	6.020633E-16	5.229216E-18
6.030000E+03	5.899825E-16	5.124348E-18
6.040000E+03	5.772209E-16	5.013410E-18
6.050000E+03	5.642186E-16	4.900242E-18
6.060000E+03	5.512464E-16	4.787212E-18
6.070000E+03	5.386483E-16	4.677322E-18
6.080000E+03	5.267661E-16	4.573558E-18
6.090000E+03	5.159573E-16	4.479037E-18
6.100000E+03	5.066695E-16	4.397655E-18
6.110000E+03	4.993769E-16	4.333536E-18
6.120000E+03	4.944843E-16	4.290199E-18
6.130000E+03	4.924298E-16	4.271444E-18
6.140000E+03	4.936872E-16	4.281379E-18
6.150000E+03	4.986569E-16	4.323470E-18
6.160000E+03	5.078862E-16	4.402453E-18
6.170000E+03	5.220009E-16	4.523742E-18
6.180000E+03	5.417176E-16	4.693537E-18
6.190000E+03	5.677869E-16	4.918327E-18
6.200000E+03	6.008716E-16	5.203847E-18
6.210000E+03	6.415274E-16	5.554909E-18
6.220000E+03	6.898020E-16	5.971934E-18
6.230000E+03	7.452282E-16	6.450905E-18
6.240000E+03	8.065326E-16	6.980846E-18
6.250000E+03	8.715729E-16	7.543288E-18
6.260000E+03	9.373640E-16	8.112494E-18
6.270000E+03	1.000595E-15	8.659921E-18
6.280000E+03	1.057829E-15	9.155951E-18
6.290000E+03	1.106322E-15	9.576941E-18
6.300000E+03	1.144021E-15	9.905217E-18
6.310000E+03	1.169558E-15	1.012899E-17
6.320000E+03	1.182146E-15	1.024147E-17
6.330000E+03	1.181615E-15	1.024114E-17
6.340000E+03	1.168466E-15	1.013228E-17
6.350000E+03	1.144195E-15	9.927713E-18
6.360000E+03	1.110835E-15	9.644920E-18
6.370000E+03	1.071224E-15	9.308372E-18
6.380000E+03	1.028203E-15	8.942589E-18
6.390000E+03	9.845250E-16	8.571392E-18
6.400000E+03	9.422229E-16	8.212397E-18
6.410000E+03	9.024957E-16	7.876020E-18
6.420000E+03	8.657762E-16	7.566040E-18
6.430000E+03	8.319195E-16	7.281212E-18
6.440000E+03	8.004016E-16	7.016972E-18
6.450000E+03	7.704486E-16	6.766542E-18
6.460000E+03	7.413449E-16	6.523606E-18
6.470000E+03	7.123329E-16	6.281379E-18
6.480000E+03	6.831326E-16	6.037242E-18
6.490000E+03	6.538949E-16	5.792377E-18
6.500000E+03	6.256873E-16	5.556122E-18
6.510000E+03	6.003370E-16	5.344683E-18
6.520000E+03	5.805358E-16	5.182170E-18
6.530000E+03	5.687821E-16	5.091249E-18
6.540000E+03	5.653381E-16	5.074799E-18
6.550000E+03	5.680099E-16	5.113662E-18
6.560000E+03	5.737803E-16	5.181039E-18
6.570000E+03	5.799445E-16	5.252661E-18
6.580000E+03	5.844021E-16	5.309449E-18
6.590000E+03	5.857276E-16	5.338240E-18
6.600000E+03	5.831276E-16	5.331477E-18
6.610000E+03	5.763307E-16	5.286289E-18
6.620000E+03	5.654821E-16	5.203598E-18
6.630000E+03	5.510608E-16	5.087423E-18
6.640000E+03	5.338039E-16	4.944227E-18
6.650000E+03	5.146130E-16	4.782090E-18
6.660000E+03	4.944230E-16	4.609515E-18
6.670000E+03	4.740750E-16	4.434247E-18
6.680000E+03	4.542379E-16	4.262522E-18
6.690000E+03	4.353872E-16	4.098839E-18
6.700000E+03	4.178175E-16	3.946055E-18
6.710000E+03	4.016696E-16	3.805605E-18
6.720000E+03	3.869449E-16	3.677620E-18
6.730000E+03	3.736191E-16	3.561988E-18
6.740000E+03	3.615521E-16	3.457487E-18
6.750000E+03	3.505981E-16	3.362824E-18
6.760000E+03	3.406111E-16	3.276687E-18
6.770000E+03	3.314640E-16	3.197932E-18
6.780000E+03	3.230597E-16	3.125687E-18
6.790000E+03	3.153353E-16	3.059402E-18
6.800000E+03	3.082416E-16	2.998655E-18
6.810000E+03	3.017921E-16	2.943628E-18
6.820000E+03	2.959463E-16	2.893975E-18
6.830000E+03	2.906638E-16	2.849346E-18
6.840000E+03	2.858869E-16	2.809216E-18
6.850000E+03	2.815488E-16	2.772964E-18
6.860000E+03	2.775869E-16	2.740003E-18
6.870000E+03	2.739600E-16	2.709951E-18
6.880000E+03	2.706683E-16	2.682832E-18
6.890000E+03	2.677633E-16	2.659179E-18
6.900000E+03	2.653329E-16	2.639888E-18
6.910000E+03	2.635469E-16	2.626677E-18
6.920000E+03	2.625594E-16	2.621119E-18
6.930000E+03	2.625449E-16	2.624990E-18
6.940000E+03	2.636595E-16	2.639895E-18
6.950000E+03	2.660190E-16	2.667032E-18
6.960000E+03	2.696778E-16	2.706985E-18
6.970000E+03	2.746093E-16	2.759514E-18
6.980000E+03	2.806952E-16	2.823452E-18
6.990000E+03	2.877355E-16	2.896793E-18
7.000000E+03	2.954740E-16	2.976952E-18
7.010000E+03	3.036259E-16	3.061042E-18
7.020000E+03	3.119057E-16	3.146160E-18
7.030000E+03	3.200363E-16	3.229476E-18
7.040000E+03	3.278359E-16	3.309120E-18
7.050000E+03	3.351245E-16	3.383240E-18
7.060000E+03	3.417876E-16	3.450649E-18
7.070000E+03	3.477560E-16	3.510618E-18
7.080000E+03	3.530006E-16	3.562832E-18
7.090000E+03	3.575133E-16	3.607190E-18
7.100000E+03	3.613845E-16	3.644591E-18
7.110000E+03	3.646967E-16	3.675861E-18
7.120000E+03	3.675870E-16	3.702377E-18
7.130000E+03	3.703071E-16	3.726666E-18
7.140000E+03	3.730969E-16	3.751137E-18
7.150000E+03	3.762266E-16	3.778488E-18
7.160000E+03	3.800412E-16	3.812158E-18
7.170000E+03	3.848071E-16	3.854777E-18
7.180000E+03	3.908655E-16	3.909701E-18
7.190000E+03	3.984611E-16	3.979297E-18
7.200000E+03	4.078789E-16	4.066305E-18
7.210000E+03	4.193780E-16	4.173175E-18
7.220000E+03	4.331152E-16	4.301309E-18
7.230000E+03	4.492724E-16	4.452329E-18
7.240000E+03	4.679553E-16	4.627074E-18
7.250000E+03	4.891846E-16	4.825515E-18
7.260000E+03	5.128400E-16	5.046218E-18
7.270000E+03	5.385819E-16	5.285593E-18
7.280000E+03	5.657490E-16	5.536925E-18
7.290000E+03	5.934487E-16	5.791298E-18
7.300000E+03	6.203715E-16	6.035844E-18
7.310000E+03	6.451407E-16	6.257198E-18
7.320000E+03	6.662299E-16	6.440731E-18
7.330000E+03	6.824765E-16	6.575536E-18
7.340000E+03	6.930108E-16	6.653700E-18
7.350000E+03	6.976022E-16	6.673579E-18
7.360000E+03	6.964946E-16	6.638120E-18
7.370000E+03	6.903045E-16	6.553810E-18
7.380000E+03	6.800180E-16	6.430572E-18
7.390000E+03	6.665957E-16	6.277965E-18
7.400000E+03	6.509604E-16	6.105065E-18
7.410000E+03	6.339926E-16	5.920422E-18
7.420000E+03	6.164217E-16	5.731041E-18
7.430000E+03	5.987189E-16	5.541426E-18
7.440000E+03	5.812802E-16	5.355306E-18
7.450000E+03	5.644338E-16	5.175720E-18
7.460000E+03	5.483072E-16	5.003814E-18
7.470000E+03	5.329661E-16	4.840146E-18
7.480000E+03	5.185366E-16	4.685805E-18
7.490000E+03	5.050249E-16	4.540774E-18
7.500000E+03	4.925286E-16	4.405847E-18
7.510000E+03	4.810908E-16	4.281313E-18
7.520000E+03	4.708253E-16	4.168073E-18
7.530000E+03	4.617129E-16	4.065834E-18
7.540000E+03	4.537903E-16	3.974793E-18
7.550000E+03	4.469230E-16	3.893638E-18
7.560000E+03	4.409669E-16	3.821000E-18
7.570000E+03	4.356249E-16	3.754211E-18
7.580000E+03	4.305532E-16	3.690266E-18
7.590000E+03	4.251915E-16	3.624375E-18
7.600000E+03	4.189732E-16	3.551800E-18
7.610000E+03	4.114065E-16	3.468541E-18
7.620000E+03	4.025405E-16	3.375220E-18
7.630000E+03	3.932619E-16	3.279434E-18
7.640000E+03	3.848377E-16	3.191765E-18
7.650000E+03	3.784472E-16	3.121847E-18
7.660000E+03	3.749135E-16	3.076182E-18
7.670000E+03	3.747050E-16	3.058244E-18
7.680000E+03	3.779677E-16	3.068822E-18
7.690000E+03	3.846457E-16	3.107069E-18
7.700000E+03	3.944554E-16	3.170342E-18
7.710000E+03	4.069334E-16	3.254628E-18
7.720000E+03	4.214624E-16	3.354791E-18
7.730000E+03	4.372739E-16	3.464615E-18
7.740000E+03	4.535578E-16	3.577689E-18
7.750000E+03	4.694489E-16	3.687301E-18
7.760000E+03	4.841122E-16	3.787100E-18
