#wls	flux	fluxerr
1.600000E+03	2.997451E-17	6.086026E-19
1.640000E+03	3.023237E-17	6.119817E-19
1.680000E+03	3.051048E-17	6.156926E-19
1.720000E+03	3.081007E-17	6.197545E-19
1.760000E+03	3.113246E-17	6.241873E-19
1.800000E+03	3.148445E-17	6.291203E-19
1.840000E+03	3.185689E-17	6.343625E-19
1.880000E+03	3.226217E-17	6.401529E-19
1.920000E+03	3.270216E-17	6.465191E-19
1.960000E+03	3.317333E-17	6.533807E-19
2.000000E+03	3.367765E-17	6.607661E-19
2.040000E+03	3.422283E-17	6.688155E-19
2.080000E+03	3.480554E-17	6.774504E-19
2.120000E+03	3.543966E-17	6.869273E-19
2.160000E+03	3.611625E-17	6.970570E-19
2.200000E+03	3.684375E-17	7.079864E-19
2.240000E+03	3.762493E-17	7.197510E-19
2.280000E+03	3.846267E-17	7.323863E-19
2.320000E+03	3.935982E-17	7.459260E-19
2.360000E+03	4.031931E-17	7.604031E-19
2.400000E+03	4.135041E-17	7.759685E-19
2.440000E+03	4.244967E-17	7.925303E-19
2.480000E+03	4.361972E-17	8.101110E-19
2.520000E+03	4.486985E-17	8.288532E-19
2.560000E+03	4.620264E-17	8.487726E-19
2.600000E+03	4.761332E-17	8.697477E-19
2.640000E+03	4.911074E-17	8.919059E-19
2.680000E+03	5.070409E-17	9.153760E-19
2.720000E+03	5.238015E-17	9.398790E-19
2.760000E+03	5.414754E-17	9.655309E-19
2.800000E+03	5.601571E-17	9.924566E-19
2.840000E+03	5.797895E-17	1.020509E-18
2.880000E+03	6.004021E-17	1.049695E-18
2.920000E+03	6.221274E-17	1.080197E-18
2.960000E+03	6.450481E-17	1.112102E-18
3.000000E+03	6.692005E-17	1.145416E-18
3.010000E+03	6.754538E-17	1.153996E-18
3.020000E+03	6.817817E-17	1.162655E-18
3.030000E+03	6.882793E-17	1.171555E-18
3.040000E+03	6.948606E-17	1.180546E-18
3.050000E+03	7.015300E-17	1.189636E-18
3.060000E+03	7.082925E-17	1.198831E-18
3.070000E+03	7.152472E-17	1.208299E-18
3.080000E+03	7.223079E-17	1.217891E-18
3.090000E+03	7.294810E-17	1.227618E-18
3.100000E+03	7.367739E-17	1.237489E-18
3.110000E+03	7.442907E-17	1.247679E-18
3.120000E+03	7.518485E-17	1.257879E-18
3.130000E+03	7.597469E-17	1.268588E-18
3.140000E+03	7.677061E-17	1.279336E-18
3.150000E+03	7.758341E-17	1.290303E-18
3.160000E+03	7.842428E-17	1.301672E-18
3.170000E+03	7.928470E-17	1.313298E-18
3.180000E+03	8.017626E-17	1.325371E-18
3.190000E+03	8.108038E-17	1.337582E-18
3.200000E+03	8.201904E-17	1.350289E-18
3.210000E+03	8.298399E-17	1.363355E-18
3.220000E+03	8.398766E-17	1.376980E-18
3.230000E+03	8.501143E-17	1.390854E-18
3.240000E+03	8.607856E-17	1.405355E-18
3.250000E+03	8.718121E-17	1.420351E-18
3.260000E+03	8.833292E-17	1.436058E-18
3.270000E+03	8.951506E-17	1.452167E-18
3.280000E+03	9.075260E-17	1.469081E-18
3.290000E+03	9.204937E-17	1.486853E-18
3.300000E+03	9.338690E-17	1.505180E-18
3.310000E+03	9.479152E-17	1.524481E-18
3.320000E+03	9.625657E-17	1.544642E-18
3.330000E+03	9.778674E-17	1.565729E-18
3.340000E+03	9.938699E-17	1.587817E-18
3.350000E+03	1.010747E-16	1.611172E-18
3.360000E+03	1.028442E-16	1.635695E-18
3.370000E+03	1.047139E-16	1.661670E-18
3.380000E+03	1.066663E-16	1.688806E-18
3.390000E+03	1.087332E-16	1.717600E-18
3.400000E+03	1.109104E-16	1.747968E-18
3.410000E+03	1.132058E-16	1.780024E-18
3.420000E+03	1.156417E-16	1.814104E-18
3.430000E+03	1.182146E-16	1.850138E-18
3.440000E+03	1.209343E-16	1.888261E-18
3.450000E+03	1.238112E-16	1.928619E-18
3.460000E+03	1.268706E-16	1.971587E-18
3.470000E+03	1.301098E-16	2.017103E-18
3.480000E+03	1.335404E-16	2.065323E-18
3.490000E+03	1.371741E-16	2.116408E-18
3.500000E+03	1.410384E-16	2.170756E-18
3.510000E+03	1.451299E-16	2.228286E-18
3.520000E+03	1.494592E-16	2.289139E-18
3.530000E+03	1.540536E-16	2.353699E-18
3.540000E+03	1.588886E-16	2.421562E-18
3.550000E+03	1.640055E-16	2.493329E-18
3.560000E+03	1.694111E-16	2.569069E-18
3.570000E+03	1.750715E-16	2.648235E-18
3.580000E+03	1.810234E-16	2.731350E-18
3.590000E+03	1.872422E-16	2.818008E-18
3.600000E+03	1.937095E-16	2.907900E-18
3.610000E+03	2.003874E-16	3.000430E-18
3.620000E+03	2.072428E-16	3.095078E-18
3.630000E+03	2.141902E-16	3.190547E-18
3.640000E+03	2.211597E-16	3.285785E-18
3.650000E+03	2.280794E-16	3.379723E-18
3.660000E+03	2.349022E-16	3.471671E-18
3.670000E+03	2.415375E-16	3.560302E-18
3.680000E+03	2.479235E-16	3.644726E-18
3.690000E+03	2.540071E-16	3.724197E-18
3.700000E+03	2.597467E-16	3.798137E-18
3.710000E+03	2.651414E-16	3.866572E-18
3.720000E+03	2.701527E-16	3.928985E-18
3.730000E+03	2.747870E-16	3.985513E-18
3.740000E+03	2.790713E-16	4.036587E-18
3.750000E+03	2.830823E-16	4.083356E-18
3.760000E+03	2.868636E-16	4.126480E-18
3.770000E+03	2.905089E-16	4.167327E-18
3.780000E+03	2.941331E-16	4.207559E-18
3.790000E+03	2.978707E-16	4.249095E-18
3.800000E+03	3.019024E-16	4.294491E-18
3.810000E+03	3.063327E-16	4.345194E-18
3.820000E+03	3.113938E-16	4.404438E-18
3.830000E+03	3.172319E-16	4.474209E-18
3.840000E+03	3.240201E-16	4.556847E-18
3.850000E+03	3.319539E-16	4.654975E-18
3.860000E+03	3.411155E-16	4.769602E-18
3.870000E+03	3.516870E-16	4.903116E-18
3.880000E+03	3.637152E-16	5.055994E-18
3.890000E+03	3.772290E-16	5.228455E-18
3.900000E+03	3.921949E-16	5.419853E-18
3.910000E+03	4.085071E-16	5.628549E-18
3.920000E+03	4.260192E-16	5.852362E-18
3.930000E+03	4.443826E-16	6.086369E-18
3.940000E+03	4.633254E-16	6.326748E-18
3.950000E+03	4.823816E-16	6.567080E-18
3.960000E+03	5.010671E-16	6.800778E-18
3.970000E+03	5.188637E-16	7.020871E-18
3.980000E+03	5.352469E-16	7.220394E-18
3.990000E+03	5.497176E-16	7.392806E-18
4.000000E+03	5.618841E-16	7.533092E-18
4.010000E+03	5.712881E-16	7.635414E-18
4.020000E+03	5.777820E-16	7.698146E-18
4.030000E+03	5.811374E-16	7.718622E-18
4.040000E+03	5.814629E-16	7.698669E-18
4.050000E+03	5.788397E-16	7.639740E-18
4.060000E+03	5.734665E-16	7.544821E-18
4.070000E+03	5.657893E-16	7.420108E-18
4.080000E+03	5.561699E-16	7.270621E-18
4.090000E+03	5.450597E-16	7.102491E-18
4.100000E+03	5.329196E-16	6.921893E-18
4.110000E+03	5.201935E-16	6.734709E-18
4.120000E+03	5.072892E-16	6.546274E-18
4.130000E+03	4.945650E-16	6.361224E-18
4.140000E+03	4.823246E-16	6.183432E-18
4.150000E+03	4.708168E-16	6.016018E-18
4.160000E+03	4.602394E-16	5.861410E-18
4.170000E+03	4.507465E-16	5.721447E-18
4.180000E+03	4.424538E-16	5.597460E-18
4.190000E+03	4.354463E-16	5.490367E-18
4.200000E+03	4.297828E-16	5.400747E-18
4.210000E+03	4.254990E-16	5.328877E-18
4.220000E+03	4.226096E-16	5.274765E-18
4.230000E+03	4.211083E-16	5.238159E-18
4.240000E+03	4.209670E-16	5.218532E-18
4.250000E+03	4.221350E-16	5.215088E-18
4.260000E+03	4.245035E-16	5.226320E-18
4.270000E+03	4.280423E-16	5.251706E-18
4.280000E+03	4.325588E-16	5.288745E-18
4.290000E+03	4.379745E-16	5.336354E-18
4.300000E+03	4.440457E-16	5.391463E-18
4.310000E+03	4.506075E-16	5.451993E-18
4.320000E+03	4.574689E-16	5.515581E-18
4.330000E+03	4.643032E-16	5.578265E-18
4.340000E+03	4.708323E-16	5.636720E-18
4.350000E+03	4.768414E-16	5.688426E-18
4.360000E+03	4.820150E-16	5.729697E-18
4.370000E+03	4.860761E-16	5.757364E-18
4.380000E+03	4.889381E-16	5.770546E-18
4.390000E+03	4.904797E-16	5.767971E-18
4.400000E+03	4.908418E-16	5.751460E-18
4.410000E+03	4.902743E-16	5.724081E-18
4.420000E+03	4.891018E-16	5.689731E-18
4.430000E+03	4.878319E-16	5.654369E-18
4.440000E+03	4.868516E-16	5.622477E-18
4.450000E+03	4.866544E-16	5.599694E-18
4.460000E+03	4.876612E-16	5.590749E-18
4.470000E+03	4.902375E-16	5.599662E-18
4.480000E+03	4.946390E-16	5.629146E-18
4.490000E+03	5.011093E-16	5.681733E-18
4.500000E+03	5.097962E-16	5.758831E-18
4.510000E+03	5.205872E-16	5.858898E-18
4.520000E+03	5.334840E-16	5.981688E-18
4.530000E+03	5.481769E-16	6.123477E-18
4.540000E+03	5.643581E-16	6.280616E-18
4.550000E+03	5.815757E-16	6.447909E-18
4.560000E+03	5.992917E-16	6.619285E-18
4.570000E+03	6.168623E-16	6.787598E-18
4.580000E+03	6.337028E-16	6.946461E-18
4.590000E+03	6.491912E-16	7.089174E-18
4.600000E+03	6.627455E-16	7.209576E-18
4.610000E+03	6.738059E-16	7.301845E-18
4.620000E+03	6.820077E-16	7.362354E-18
4.630000E+03	6.870096E-16	7.387793E-18
4.640000E+03	6.887521E-16	7.377926E-18
4.650000E+03	6.871205E-16	7.331932E-18
4.660000E+03	6.822379E-16	7.251542E-18
4.670000E+03	6.744519E-16	7.140842E-18
4.680000E+03	6.640242E-16	7.002950E-18
4.690000E+03	6.514419E-16	6.843314E-18
4.700000E+03	6.371496E-16	6.666850E-18
4.710000E+03	6.217027E-16	6.479557E-18
4.720000E+03	6.056004E-16	6.286763E-18
4.730000E+03	5.893085E-16	6.093362E-18
4.740000E+03	5.732030E-16	5.903247E-18
4.750000E+03	5.576819E-16	5.720480E-18
4.760000E+03	5.430004E-16	5.547593E-18
4.770000E+03	5.294308E-16	5.387251E-18
4.780000E+03	5.171518E-16	5.241131E-18
4.790000E+03	5.062967E-16	5.110415E-18
4.800000E+03	4.969275E-16	4.995555E-18
4.810000E+03	4.891109E-16	4.897034E-18
4.820000E+03	4.829517E-16	4.815708E-18
4.830000E+03	4.783924E-16	4.750803E-18
4.840000E+03	4.754151E-16	4.701949E-18
4.850000E+03	4.740373E-16	4.669125E-18
4.860000E+03	4.741204E-16	4.650778E-18
4.870000E+03	4.755703E-16	4.645817E-18
4.880000E+03	4.783148E-16	4.653372E-18
4.890000E+03	4.822501E-16	4.672286E-18
4.900000E+03	4.872498E-16	4.701197E-18
4.910000E+03	4.932645E-16	4.739508E-18
4.920000E+03	5.002165E-16	4.786357E-18
4.930000E+03	5.079778E-16	4.840415E-18
4.940000E+03	5.164384E-16	4.900549E-18
4.950000E+03	5.253733E-16	4.964553E-18
4.960000E+03	5.344095E-16	5.028867E-18
4.970000E+03	5.431220E-16	5.089502E-18
4.980000E+03	5.509101E-16	5.140898E-18
4.990000E+03	5.571929E-16	5.177772E-18
5.000000E+03	5.613462E-16	5.194528E-18
5.010000E+03	5.629828E-16	5.187852E-18
5.020000E+03	5.617482E-16	5.154789E-18
5.030000E+03	5.577896E-16	5.097019E-18
5.040000E+03	5.513627E-16	5.017184E-18
5.050000E+03	5.430553E-16	4.920895E-18
5.060000E+03	5.337048E-16	4.815923E-18
5.070000E+03	5.240546E-16	4.709063E-18
5.080000E+03	5.150396E-16	4.608715E-18
5.090000E+03	5.073263E-16	4.520745E-18
5.100000E+03	5.015308E-16	4.450474E-18
5.110000E+03	4.980232E-16	4.400957E-18
5.120000E+03	4.970540E-16	4.374148E-18
5.130000E+03	4.986347E-16	4.369871E-18
5.140000E+03	5.027223E-16	4.387478E-18
5.150000E+03	5.089890E-16	4.423853E-18
5.160000E+03	5.172117E-16	4.476841E-18
5.170000E+03	5.269475E-16	4.542423E-18
5.180000E+03	5.377963E-16	4.617016E-18
5.190000E+03	5.494019E-16	4.697473E-18
5.200000E+03	5.614102E-16	4.780712E-18
5.210000E+03	5.735198E-16	4.864152E-18
5.220000E+03	5.854533E-16	4.945456E-18
5.230000E+03	5.970664E-16	5.023445E-18
5.240000E+03	6.081912E-16	5.096760E-18
5.250000E+03	6.187719E-16	5.165004E-18
5.260000E+03	6.286943E-16	5.227296E-18
5.270000E+03	6.379660E-16	5.283782E-18
5.280000E+03	6.463821E-16	5.332850E-18
5.290000E+03	6.539612E-16	5.374754E-18
5.300000E+03	6.604963E-16	5.407890E-18
5.310000E+03	6.658854E-16	5.431542E-18
5.320000E+03	6.699343E-16	5.444250E-18
5.330000E+03	6.725369E-16	5.445289E-18
5.340000E+03	6.735627E-16	5.433748E-18
5.350000E+03	6.728733E-16	5.408661E-18
5.360000E+03	6.704642E-16	5.370149E-18
5.370000E+03	6.663541E-16	5.318512E-18
5.380000E+03	6.606018E-16	5.254364E-18
5.390000E+03	6.534493E-16	5.179758E-18
5.400000E+03	6.451677E-16	5.096946E-18
5.410000E+03	6.362714E-16	5.010063E-18
5.420000E+03	6.272312E-16	4.922846E-18
5.430000E+03	6.187021E-16	4.840424E-18
5.440000E+03	6.114481E-16	4.768708E-18
5.450000E+03	6.062170E-16	4.713416E-18
5.460000E+03	6.037253E-16	4.679953E-18
5.470000E+03	6.045569E-16	4.672644E-18
5.480000E+03	6.092079E-16	4.695093E-18
5.490000E+03	6.178424E-16	4.748323E-18
5.500000E+03	6.303393E-16	4.831169E-18
5.510000E+03	6.459284E-16	4.937519E-18
5.520000E+03	6.635091E-16	5.058816E-18
5.530000E+03	6.817654E-16	5.184957E-18
5.540000E+03	6.992272E-16	5.304774E-18
5.550000E+03	7.144677E-16	5.407536E-18
5.560000E+03	7.262174E-16	5.483794E-18
5.570000E+03	7.336726E-16	5.527687E-18
5.580000E+03	7.362024E-16	5.534693E-18
5.590000E+03	7.338432E-16	5.505324E-18
5.600000E+03	7.267248E-16	5.440772E-18
5.610000E+03	7.153239E-16	5.344799E-18
5.620000E+03	7.001171E-16	5.221124E-18
5.630000E+03	6.817031E-16	5.074339E-18
5.640000E+03	6.604420E-16	4.907218E-18
5.650000E+03	6.367503E-16	4.722930E-18
5.660000E+03	6.109243E-16	4.523724E-18
5.670000E+03	5.833586E-16	4.312557E-18
5.680000E+03	5.544867E-16	4.092648E-18
5.690000E+03	5.248604E-16	3.868069E-18
5.700000E+03	4.951237E-16	3.643543E-18
5.710000E+03	4.660757E-16	3.424903E-18
5.720000E+03	4.385087E-16	3.217906E-18
5.730000E+03	4.131726E-16	3.027965E-18
5.740000E+03	3.906891E-16	2.859536E-18
5.750000E+03	3.715890E-16	2.716388E-18
5.760000E+03	3.562207E-16	2.600951E-18
5.770000E+03	3.447875E-16	2.514593E-18
5.780000E+03	3.373487E-16	2.457633E-18
5.790000E+03	3.339276E-16	2.430132E-18
5.800000E+03	3.343644E-16	2.430831E-18
5.810000E+03	3.385567E-16	2.458896E-18
5.820000E+03	3.462560E-16	2.512446E-18
5.830000E+03	3.571464E-16	2.589122E-18
5.840000E+03	3.708832E-16	2.686370E-18
5.850000E+03	3.870256E-16	2.800954E-18
5.860000E+03	4.050349E-16	2.928945E-18
5.870000E+03	4.243833E-16	3.066506E-18
5.880000E+03	4.443970E-16	3.208763E-18
5.890000E+03	4.644588E-16	3.351260E-18
5.900000E+03	4.839355E-16	3.489443E-18
5.910000E+03	5.022017E-16	3.618824E-18
5.920000E+03	5.187587E-16	3.735835E-18
5.930000E+03	5.332007E-16	3.837588E-18
5.940000E+03	5.451274E-16	3.921234E-18
5.950000E+03	5.543129E-16	3.985185E-18
5.960000E+03	5.607162E-16	4.029180E-18
5.970000E+03	5.642687E-16	4.052757E-18
5.980000E+03	5.651445E-16	4.057196E-18
5.990000E+03	5.634706E-16	4.043432E-18
6.000000E+03	5.595590E-16	4.013724E-18
6.010000E+03	5.537167E-16	3.970287E-18
6.020000E+03	5.463997E-16	3.916404E-18
6.030000E+03	5.379556E-16	3.854569E-18
6.040000E+03	5.288469E-16	3.788099E-18
6.050000E+03	5.195012E-16	3.720055E-18
6.060000E+03	5.103370E-16	3.653427E-18
6.070000E+03	5.017594E-16	3.591110E-18
6.080000E+03	4.941592E-16	3.535892E-18
6.090000E+03	4.878826E-16	3.490241E-18
6.100000E+03	4.833265E-16	3.456986E-18
6.110000E+03	4.808780E-16	3.438885E-18
6.120000E+03	4.808301E-16	3.438024E-18
6.130000E+03	4.835656E-16	3.457133E-18
6.140000E+03	4.894114E-16	3.498542E-18
6.150000E+03	4.987919E-16	3.565278E-18
6.160000E+03	5.120140E-16	3.659534E-18
6.170000E+03	5.295068E-16	3.784377E-18
6.180000E+03	5.515505E-16	3.941812E-18
6.190000E+03	5.784705E-16	4.134173E-18
6.200000E+03	6.104640E-16	4.362881E-18
6.210000E+03	6.475739E-16	4.628260E-18
6.220000E+03	6.896194E-16	4.929040E-18
6.230000E+03	7.360803E-16	5.261528E-18
6.240000E+03	7.862188E-16	5.620482E-18
6.250000E+03	8.387276E-16	5.996587E-18
6.260000E+03	8.921241E-16	6.379276E-18
6.270000E+03	9.444075E-16	6.754271E-18
6.280000E+03	9.935490E-16	7.107085E-18
6.290000E+03	1.037437E-15	7.422627E-18
6.300000E+03	1.074111E-15	7.686860E-18
6.310000E+03	1.101934E-15	7.888061E-18
6.320000E+03	1.119668E-15	8.017331E-18
6.330000E+03	1.126862E-15	8.071387E-18
6.340000E+03	1.123462E-15	8.049784E-18
6.350000E+03	1.110001E-15	7.956263E-18
6.360000E+03	1.087716E-15	7.799617E-18
6.370000E+03	1.057919E-15	7.589173E-18
6.380000E+03	1.022318E-15	7.337099E-18
6.390000E+03	9.825726E-16	7.055242E-18
6.400000E+03	9.402260E-16	6.754628E-18
6.410000E+03	8.966157E-16	6.444815E-18
6.420000E+03	8.528316E-16	6.133603E-18
6.430000E+03	8.097200E-16	5.827057E-18
6.440000E+03	7.679219E-16	5.529772E-18
6.450000E+03	7.279259E-16	5.245256E-18
6.460000E+03	6.901269E-16	4.976349E-18
6.470000E+03	6.548327E-16	4.725271E-18
6.480000E+03	6.224622E-16	4.495057E-18
6.490000E+03	5.932543E-16	4.287455E-18
6.500000E+03	5.675678E-16	4.105090E-18
6.510000E+03	5.455200E-16	3.948852E-18
6.520000E+03	5.272233E-16	3.819605E-18
6.530000E+03	5.124630E-16	3.715844E-18
6.540000E+03	5.009505E-16	3.635529E-18
6.550000E+03	4.921987E-16	3.575175E-18
6.560000E+03	4.855944E-16	3.530367E-18
6.570000E+03	4.803283E-16	3.495252E-18
6.580000E+03	4.756664E-16	3.464501E-18
6.590000E+03	4.709071E-16	3.433006E-18
6.600000E+03	4.654739E-16	3.396554E-18
6.610000E+03	4.589541E-16	3.352109E-18
6.620000E+03	4.511117E-16	3.297918E-18
6.630000E+03	4.418807E-16	3.233467E-18
6.640000E+03	4.313411E-16	3.159306E-18
6.650000E+03	4.196569E-16	3.076608E-18
6.660000E+03	4.071453E-16	2.987671E-18
6.670000E+03	3.940729E-16	2.894434E-18
6.680000E+03	3.807329E-16	2.799039E-18
6.690000E+03	3.673685E-16	2.703266E-18
6.700000E+03	3.542532E-16	2.609129E-18
6.710000E+03	3.415388E-16	2.517750E-18
6.720000E+03	3.293321E-16	2.429925E-18
6.730000E+03	3.177606E-16	2.346605E-18
6.740000E+03	3.068307E-16	2.267850E-18
6.750000E+03	2.966030E-16	2.194122E-18
6.760000E+03	2.870399E-16	2.125154E-18
6.770000E+03	2.781679E-16	2.061158E-18
6.780000E+03	2.699326E-16	2.001743E-18
6.790000E+03	2.623483E-16	1.947028E-18
6.800000E+03	2.553589E-16	1.896608E-18
6.810000E+03	2.489603E-16	1.850465E-18
6.820000E+03	2.431477E-16	1.808574E-18
6.830000E+03	2.378706E-16	1.770568E-18
6.840000E+03	2.331289E-16	1.736457E-18
6.850000E+03	2.289261E-16	1.706277E-18
6.860000E+03	2.252268E-16	1.679772E-18
6.870000E+03	2.220489E-16	1.657082E-18
6.880000E+03	2.194039E-16	1.638303E-18
6.890000E+03	2.173127E-16	1.623597E-18
6.900000E+03	2.158186E-16	1.613295E-18
6.910000E+03	2.149274E-16	1.607448E-18
6.920000E+03	2.146895E-16	1.606438E-18
6.930000E+03	2.151379E-16	1.610521E-18
6.940000E+03	2.162982E-16	1.619892E-18
6.950000E+03	2.181826E-16	1.634650E-18
6.960000E+03	2.207868E-16	1.654765E-18
6.970000E+03	2.240863E-16	1.680059E-18
6.980000E+03	2.280355E-16	1.710191E-18
6.990000E+03	2.325528E-16	1.744550E-18
7.000000E+03	2.375843E-16	1.782733E-18
7.010000E+03	2.430172E-16	1.823891E-18
7.020000E+03	2.487462E-16	1.867233E-18
7.030000E+03	2.546649E-16	1.911954E-18
7.040000E+03	2.606549E-16	1.957164E-18
7.050000E+03	2.666608E-16	2.002442E-18
7.060000E+03	2.725935E-16	2.047115E-18
7.070000E+03	2.783835E-16	2.090655E-18
7.080000E+03	2.840414E-16	2.133139E-18
7.090000E+03	2.895312E-16	2.174293E-18
7.100000E+03	2.949212E-16	2.214625E-18
7.110000E+03	3.002314E-16	2.254283E-18
7.120000E+03	3.055884E-16	2.294213E-18
7.130000E+03	3.110648E-16	2.334958E-18
7.140000E+03	3.168155E-16	2.377676E-18
7.150000E+03	3.229928E-16	2.423505E-18
7.160000E+03	3.297831E-16	2.473838E-18
7.170000E+03	3.373130E-16	2.529617E-18
7.180000E+03	3.457729E-16	2.592262E-18
7.190000E+03	3.553235E-16	2.662965E-18
7.200000E+03	3.661090E-16	2.742793E-18
7.210000E+03	3.782472E-16	2.832615E-18
7.220000E+03	3.918189E-16	2.933015E-18
7.230000E+03	4.068264E-16	3.043991E-18
7.240000E+03	4.232870E-16	3.165652E-18
7.250000E+03	4.410551E-16	3.296886E-18
7.260000E+03	4.598816E-16	3.435808E-18
7.270000E+03	4.794967E-16	3.580386E-18
7.280000E+03	4.993914E-16	3.726803E-18
7.290000E+03	5.190772E-16	3.871404E-18
7.300000E+03	5.378476E-16	4.008921E-18
7.310000E+03	5.550555E-16	4.134540E-18
7.320000E+03	5.700328E-16	4.243307E-18
7.330000E+03	5.821841E-16	4.330824E-18
7.340000E+03	5.910457E-16	4.393685E-18
7.350000E+03	5.963282E-16	4.429794E-18
7.360000E+03	5.979384E-16	4.438519E-18
7.370000E+03	5.959762E-16	4.420665E-18
7.380000E+03	5.906707E-16	4.377995E-18
7.390000E+03	5.825005E-16	4.314118E-18
7.400000E+03	5.718667E-16	4.232059E-18
7.410000E+03	5.593650E-16	4.136274E-18
7.420000E+03	5.454336E-16	4.030041E-18
7.430000E+03	5.305950E-16	3.917252E-18
7.440000E+03	5.152822E-16	3.801124E-18
7.450000E+03	4.998683E-16	3.684423E-18
7.460000E+03	4.846637E-16	3.569445E-18
7.470000E+03	4.699193E-16	3.458037E-18
7.480000E+03	4.558313E-16	3.351640E-18
7.490000E+03	4.425166E-16	3.251107E-18
7.500000E+03	4.301404E-16	3.157641E-18
7.510000E+03	4.187065E-16	3.071256E-18
7.520000E+03	4.082712E-16	2.992354E-18
7.530000E+03	3.988247E-16	2.920849E-18
7.540000E+03	3.903228E-16	2.856403E-18
7.550000E+03	3.826897E-16	2.798450E-18
7.560000E+03	3.758233E-16	2.746233E-18
7.570000E+03	3.695800E-16	2.698694E-18
7.580000E+03	3.638919E-16	2.655332E-18
7.590000E+03	3.586090E-16	2.615046E-18
7.600000E+03	3.537260E-16	2.577797E-18
7.610000E+03	3.492045E-16	2.543300E-18
7.620000E+03	3.451576E-16	2.512380E-18
7.630000E+03	3.417221E-16	2.486027E-18
7.640000E+03	3.391561E-16	2.466115E-18
7.650000E+03	3.376607E-16	2.454101E-18
7.660000E+03	3.374167E-16	2.451292E-18
7.670000E+03	3.386005E-16	2.458964E-18
7.680000E+03	3.413168E-16	2.477872E-18
7.690000E+03	3.455159E-16	2.507656E-18
7.700000E+03	3.511084E-16	2.547668E-18
7.710000E+03	3.579707E-16	2.597019E-18
7.720000E+03	3.658289E-16	2.653734E-18
7.730000E+03	3.743415E-16	2.715350E-18
7.740000E+03	3.831959E-16	2.779619E-18
7.750000E+03	3.919443E-16	2.843313E-18
7.760000E+03	4.002139E-16	2.903748E-18
