#wls	flux	fluxerr
1.600000E+03	1.237734E-17	7.817626E-19
1.640000E+03	1.244623E-17	7.827194E-19
1.680000E+03	1.252098E-17	7.839305E-19
1.720000E+03	1.260426E-17	7.855549E-19
1.760000E+03	1.269202E-17	7.873322E-19
1.800000E+03	1.278699E-17	7.894235E-19
1.840000E+03	1.288969E-17	7.918519E-19
1.880000E+03	1.300298E-17	7.947837E-19
1.920000E+03	1.312285E-17	7.979606E-19
1.960000E+03	1.325462E-17	8.016956E-19
2.000000E+03	1.339664E-17	8.058758E-19
2.040000E+03	1.354729E-17	8.103890E-19
2.080000E+03	1.371218E-17	8.155583E-19
2.120000E+03	1.388984E-17	8.212769E-19
2.160000E+03	1.408123E-17	8.275849E-19
2.200000E+03	1.428745E-17	8.345277E-19
2.240000E+03	1.450967E-17	8.421520E-19
2.280000E+03	1.474922E-17	8.505124E-19
2.320000E+03	1.500752E-17	8.596665E-19
2.360000E+03	1.528891E-17	8.698340E-19
2.400000E+03	1.558979E-17	8.807797E-19
2.440000E+03	1.591768E-17	8.928957E-19
2.480000E+03	1.626924E-17	9.059577E-19
2.520000E+03	1.665273E-17	9.203874E-19
2.560000E+03	1.706519E-17	9.359763E-19
2.600000E+03	1.751591E-17	9.531854E-19
2.640000E+03	1.800569E-17	9.720017E-19
2.680000E+03	1.853880E-17	9.925959E-19
2.720000E+03	1.912016E-17	1.015164E-18
2.760000E+03	1.975547E-17	1.039932E-18
2.800000E+03	2.045121E-17	1.067157E-18
2.840000E+03	2.121490E-17	1.097136E-18
2.880000E+03	2.205523E-17	1.130210E-18
2.920000E+03	2.298225E-17	1.166771E-18
2.960000E+03	2.401176E-17	1.207482E-18
3.000000E+03	2.514890E-17	1.252439E-18
3.010000E+03	2.545240E-17	1.264442E-18
3.020000E+03	2.576410E-17	1.276769E-18
3.030000E+03	2.608884E-17	1.289658E-18
3.040000E+03	2.641781E-17	1.302668E-18
3.050000E+03	2.675582E-17	1.316035E-18
3.060000E+03	2.710319E-17	1.329770E-18
3.070000E+03	2.746021E-17	1.343884E-18
3.080000E+03	2.782720E-17	1.358390E-18
3.090000E+03	2.820452E-17	1.373300E-18
3.100000E+03	2.859250E-17	1.388627E-18
3.110000E+03	2.899659E-17	1.404631E-18
3.120000E+03	2.940704E-17	1.420835E-18
3.130000E+03	2.982927E-17	1.437496E-18
3.140000E+03	3.026366E-17	1.454630E-18
3.150000E+03	3.071061E-17	1.472250E-18
3.160000E+03	3.117055E-17	1.490372E-18
3.170000E+03	3.164391E-17	1.509012E-18
3.180000E+03	3.213677E-17	1.528452E-18
3.190000E+03	3.263839E-17	1.548178E-18
3.200000E+03	3.315481E-17	1.568471E-18
3.210000E+03	3.368650E-17	1.589347E-18
3.220000E+03	3.423395E-17	1.610824E-18
3.230000E+03	3.479769E-17	1.632920E-18
3.240000E+03	3.538442E-17	1.655943E-18
3.250000E+03	3.598241E-17	1.679335E-18
3.260000E+03	3.659827E-17	1.703402E-18
3.270000E+03	3.723260E-17	1.728164E-18
3.280000E+03	3.788594E-17	1.753638E-18
3.290000E+03	3.855889E-17	1.779845E-18
3.300000E+03	3.925892E-17	1.807121E-18
3.310000E+03	3.997301E-17	1.834859E-18
3.320000E+03	4.070853E-17	1.863390E-18
3.330000E+03	4.146612E-17	1.892735E-18
3.340000E+03	4.224640E-17	1.922914E-18
3.350000E+03	4.305754E-17	1.954290E-18
3.360000E+03	4.388528E-17	1.986205E-18
3.370000E+03	4.473767E-17	2.019017E-18
3.380000E+03	4.561536E-17	2.052744E-18
3.390000E+03	4.651901E-17	2.087408E-18
3.400000E+03	4.745757E-17	2.123398E-18
3.410000E+03	4.841529E-17	2.160000E-18
3.420000E+03	4.940094E-17	2.197595E-18
3.430000E+03	5.041519E-17	2.236204E-18
3.440000E+03	5.145866E-17	2.275843E-18
3.450000E+03	5.254116E-17	2.316933E-18
3.460000E+03	5.364516E-17	2.358691E-18
3.470000E+03	5.478023E-17	2.401526E-18
3.480000E+03	5.594697E-17	2.445454E-18
3.490000E+03	5.715587E-17	2.490920E-18
3.500000E+03	5.838776E-17	2.537077E-18
3.510000E+03	5.965289E-17	2.584358E-18
3.520000E+03	6.095172E-17	2.632774E-18
3.530000E+03	6.228466E-17	2.682329E-18
3.540000E+03	6.366316E-17	2.733502E-18
3.550000E+03	6.506564E-17	2.785353E-18
3.560000E+03	6.650321E-17	2.838348E-18
3.570000E+03	6.797611E-17	2.892485E-18
3.580000E+03	6.949659E-17	2.948271E-18
3.590000E+03	7.104092E-17	3.004685E-18
3.600000E+03	7.262103E-17	3.062224E-18
3.610000E+03	7.423707E-17	3.120880E-18
3.620000E+03	7.588927E-17	3.180651E-18
3.630000E+03	7.759125E-17	3.242094E-18
3.640000E+03	7.931646E-17	3.304087E-18
3.650000E+03	8.107821E-17	3.367173E-18
3.660000E+03	8.287653E-17	3.431343E-18
3.670000E+03	8.472611E-17	3.497192E-18
3.680000E+03	8.659783E-17	3.563503E-18
3.690000E+03	8.850594E-17	3.630855E-18
3.700000E+03	9.045027E-17	3.699229E-18
3.710000E+03	9.244661E-17	3.769256E-18
3.720000E+03	9.446284E-17	3.839612E-18
3.730000E+03	9.651437E-17	3.910915E-18
3.740000E+03	9.860065E-17	3.983128E-18
3.750000E+03	1.007211E-16	4.056217E-18
3.760000E+03	1.028928E-16	4.130857E-18
3.770000E+03	1.050797E-16	4.205585E-18
3.780000E+03	1.072984E-16	4.281059E-18
3.790000E+03	1.095478E-16	4.357220E-18
3.800000E+03	1.118461E-16	4.434784E-18
3.810000E+03	1.141536E-16	4.512159E-18
3.820000E+03	1.164877E-16	4.590032E-18
3.830000E+03	1.188467E-16	4.668326E-18
3.840000E+03	1.212287E-16	4.746958E-18
3.850000E+03	1.236530E-16	4.826671E-18
3.860000E+03	1.260749E-16	4.905712E-18
3.870000E+03	1.285131E-16	4.984804E-18
3.880000E+03	1.309647E-16	5.063834E-18
3.890000E+03	1.334499E-16	5.143574E-18
3.900000E+03	1.359203E-16	5.222147E-18
3.910000E+03	1.383949E-16	5.300297E-18
3.920000E+03	1.408709E-16	5.377904E-18
3.930000E+03	1.433445E-16	5.454831E-18
3.940000E+03	1.458375E-16	5.531906E-18
3.950000E+03	1.482966E-16	5.607099E-18
3.960000E+03	1.507431E-16	5.681229E-18
3.970000E+03	1.531734E-16	5.754169E-18
3.980000E+03	1.555841E-16	5.825793E-18
3.990000E+03	1.579995E-16	5.897014E-18
4.000000E+03	1.603622E-16	5.965699E-18
4.010000E+03	1.626963E-16	6.032756E-18
4.020000E+03	1.649992E-16	6.098103E-18
4.030000E+03	1.672686E-16	6.161661E-18
4.040000E+03	1.695315E-16	6.224440E-18
4.050000E+03	1.717282E-16	6.284253E-18
4.060000E+03	1.738862E-16	6.342128E-18
4.070000E+03	1.760045E-16	6.398041E-18
4.080000E+03	1.780820E-16	6.451970E-18
4.090000E+03	1.801497E-16	6.505043E-18
4.100000E+03	1.821454E-16	6.555030E-18
4.110000E+03	1.840999E-16	6.603060E-18
4.120000E+03	1.860137E-16	6.649165E-18
4.130000E+03	1.878873E-16	6.693374E-18
4.140000E+03	1.897211E-16	6.735722E-18
4.150000E+03	1.915489E-16	6.777416E-18
4.160000E+03	1.933060E-16	6.816178E-18
4.170000E+03	1.950259E-16	6.853206E-18
4.180000E+03	1.967092E-16	6.888539E-18
4.190000E+03	1.983568E-16	6.922220E-18
4.200000E+03	1.999693E-16	6.954287E-18
4.210000E+03	2.015473E-16	6.984764E-18
4.220000E+03	2.031261E-16	7.014888E-18
4.230000E+03	2.046363E-16	7.042274E-18
4.240000E+03	2.061129E-16	7.068141E-18
4.250000E+03	2.075559E-16	7.092505E-18
4.260000E+03	2.089654E-16	7.115380E-18
4.270000E+03	2.103412E-16	7.136771E-18
4.280000E+03	2.116834E-16	7.156696E-18
4.290000E+03	2.130285E-16	7.176396E-18
4.300000E+03	2.143041E-16	7.193439E-18
4.310000E+03	2.155469E-16	7.209081E-18
4.320000E+03	2.167577E-16	7.223357E-18
4.330000E+03	2.179375E-16	7.236318E-18
4.340000E+03	2.190881E-16	7.248029E-18
4.350000E+03	2.202112E-16	7.258559E-18
4.360000E+03	2.213090E-16	7.267993E-18
4.370000E+03	2.223838E-16	7.276417E-18
4.380000E+03	2.234378E-16	7.283909E-18
4.390000E+03	2.245112E-16	7.291781E-18
4.400000E+03	2.255254E-16	7.297491E-18
4.410000E+03	2.265142E-16	7.302144E-18
4.420000E+03	2.274721E-16	7.305576E-18
4.430000E+03	2.283936E-16	7.307625E-18
4.440000E+03	2.292732E-16	7.308123E-18
4.450000E+03	2.301055E-16	7.306919E-18
4.460000E+03	2.308861E-16	7.303881E-18
4.470000E+03	2.316104E-16	7.298879E-18
4.480000E+03	2.322745E-16	7.291813E-18
4.490000E+03	2.328752E-16	7.282598E-18
4.500000E+03	2.334093E-16	7.271154E-18
4.510000E+03	2.338744E-16	7.257429E-18
4.520000E+03	2.342683E-16	7.241375E-18
4.530000E+03	2.345892E-16	7.222962E-18
4.540000E+03	2.348359E-16	7.202175E-18
4.550000E+03	2.350075E-16	7.179008E-18
4.560000E+03	2.351032E-16	7.153467E-18
4.570000E+03	2.351231E-16	7.125575E-18
4.580000E+03	2.350674E-16	7.095365E-18
4.590000E+03	2.349367E-16	7.062882E-18
4.600000E+03	2.347325E-16	7.028191E-18
4.610000E+03	2.344561E-16	6.991360E-18
4.620000E+03	2.341098E-16	6.952478E-18
4.630000E+03	2.336962E-16	6.911648E-18
4.640000E+03	2.332184E-16	6.868986E-18
4.650000E+03	2.326799E-16	6.824613E-18
4.660000E+03	2.320849E-16	6.778674E-18
4.670000E+03	2.314377E-16	6.731312E-18
4.680000E+03	2.307432E-16	6.682688E-18
4.690000E+03	2.300065E-16	6.632967E-18
4.700000E+03	2.292331E-16	6.582322E-18
4.710000E+03	2.284285E-16	6.530922E-18
4.720000E+03	2.275988E-16	6.478950E-18
4.730000E+03	2.267111E-16	6.425488E-18
4.740000E+03	2.258488E-16	6.372904E-18
4.750000E+03	2.249789E-16	6.320263E-18
4.760000E+03	2.241071E-16	6.267732E-18
4.770000E+03	2.232391E-16	6.215465E-18
4.780000E+03	2.223799E-16	6.163605E-18
4.790000E+03	2.215347E-16	6.112285E-18
4.800000E+03	2.207080E-16	6.061631E-18
4.810000E+03	2.199039E-16	6.011747E-18
4.820000E+03	2.190891E-16	5.961716E-18
4.830000E+03	2.183413E-16	5.913652E-18
4.840000E+03	2.176261E-16	5.866601E-18
4.850000E+03	2.169458E-16	5.820612E-18
4.860000E+03	2.163024E-16	5.775729E-18
4.870000E+03	2.156973E-16	5.731972E-18
4.880000E+03	2.150950E-16	5.688394E-18
4.890000E+03	2.145691E-16	5.646931E-18
4.900000E+03	2.140835E-16	5.606607E-18
4.910000E+03	2.136378E-16	5.567403E-18
4.920000E+03	2.132318E-16	5.529295E-18
4.930000E+03	2.128287E-16	5.491324E-18
4.940000E+03	2.125000E-16	5.455325E-18
4.950000E+03	2.122085E-16	5.420320E-18
4.960000E+03	2.119531E-16	5.386271E-18
4.970000E+03	2.117326E-16	5.353133E-18
4.980000E+03	2.115099E-16	5.319967E-18
4.990000E+03	2.113555E-16	5.288536E-18
5.000000E+03	2.112323E-16	5.257895E-18
5.010000E+03	2.111391E-16	5.228003E-18
5.020000E+03	2.110390E-16	5.197946E-18
5.030000E+03	2.110024E-16	5.169451E-18
5.040000E+03	2.109924E-16	5.141601E-18
5.050000E+03	2.110080E-16	5.114363E-18
5.060000E+03	2.110124E-16	5.086846E-18
5.070000E+03	2.110763E-16	5.060748E-18
5.080000E+03	2.111627E-16	5.035175E-18
5.090000E+03	2.112349E-16	5.009248E-18
5.100000E+03	2.113632E-16	4.984635E-18
5.110000E+03	2.115108E-16	4.960456E-18
5.120000E+03	2.116406E-16	4.935844E-18
5.130000E+03	2.118227E-16	4.912436E-18
5.140000E+03	2.120198E-16	4.889358E-18
5.150000E+03	2.121943E-16	4.865748E-18
5.160000E+03	2.124160E-16	4.843211E-18
5.170000E+03	2.126472E-16	4.820880E-18
5.180000E+03	2.128498E-16	4.797901E-18
5.190000E+03	2.130934E-16	4.775847E-18
5.200000E+03	2.133396E-16	4.753858E-18
5.210000E+03	2.135500E-16	4.731087E-18
5.220000E+03	2.137943E-16	4.709090E-18
5.230000E+03	2.139976E-16	4.686222E-18
5.240000E+03	2.142296E-16	4.664025E-18
5.250000E+03	2.144520E-16	4.641664E-18
5.260000E+03	2.146260E-16	4.618317E-18
5.270000E+03	2.148217E-16	4.595513E-18
5.280000E+03	2.149647E-16	4.571666E-18
5.290000E+03	2.151253E-16	4.548295E-18
5.300000E+03	2.152294E-16	4.523840E-18
5.310000E+03	2.153479E-16	4.499816E-18
5.320000E+03	2.154069E-16	4.474690E-18
5.330000E+03	2.154781E-16	4.449973E-18
5.340000E+03	2.155240E-16	4.424903E-18
5.350000E+03	2.155080E-16	4.398750E-18
5.360000E+03	2.155024E-16	4.373011E-18
5.370000E+03	2.154343E-16	4.346225E-18
5.380000E+03	2.153768E-16	4.319886E-18
5.390000E+03	2.152574E-16	4.292556E-18
5.400000E+03	2.151495E-16	4.265723E-18
5.410000E+03	2.149814E-16	4.237977E-18
5.420000E+03	2.148269E-16	4.210793E-18
5.430000E+03	2.146144E-16	4.182785E-18
5.440000E+03	2.143820E-16	4.154715E-18
5.450000E+03	2.141669E-16	4.127320E-18
5.460000E+03	2.138983E-16	4.099244E-18
5.470000E+03	2.136493E-16	4.071910E-18
5.480000E+03	2.133488E-16	4.043969E-18
5.490000E+03	2.130685E-16	4.016798E-18
5.500000E+03	2.127361E-16	3.989044E-18
5.510000E+03	2.124226E-16	3.962056E-18
5.520000E+03	2.120556E-16	3.934472E-18
5.530000E+03	2.116693E-16	3.906932E-18
5.540000E+03	2.112977E-16	3.880050E-18
5.550000E+03	2.108682E-16	3.852488E-18
5.560000E+03	2.104510E-16	3.825524E-18
5.570000E+03	2.099746E-16	3.797851E-18
5.580000E+03	2.094748E-16	3.770116E-18
5.590000E+03	2.089879E-16	3.742966E-18
5.600000E+03	2.084451E-16	3.715158E-18
5.610000E+03	2.078842E-16	3.687368E-18
5.620000E+03	2.073437E-16	3.660267E-18
5.630000E+03	2.067578E-16	3.632680E-18
5.640000E+03	2.061660E-16	3.605302E-18
5.650000E+03	2.056084E-16	3.578821E-18
5.660000E+03	2.050216E-16	3.552117E-18
5.670000E+03	2.044467E-16	3.525900E-18
5.680000E+03	2.039247E-16	3.500856E-18
5.690000E+03	2.033936E-16	3.475907E-18
5.700000E+03	2.028950E-16	3.451752E-18
5.710000E+03	2.024699E-16	3.429072E-18
5.720000E+03	2.020571E-16	3.406806E-18
5.730000E+03	2.016975E-16	3.385632E-18
5.740000E+03	2.013974E-16	3.365636E-18
5.750000E+03	2.011969E-16	3.347464E-18
5.760000E+03	2.010339E-16	3.330058E-18
5.770000E+03	2.009470E-16	3.314045E-18
5.780000E+03	2.009412E-16	3.299480E-18
5.790000E+03	2.010540E-16	3.286955E-18
5.800000E+03	2.012209E-16	3.275391E-18
5.810000E+03	2.014784E-16	3.265365E-18
5.820000E+03	2.018285E-16	3.256885E-18
5.830000E+03	2.023068E-16	3.250500E-18
5.840000E+03	2.028456E-16	3.245101E-18
5.850000E+03	2.034795E-16	3.241221E-18
5.860000E+03	2.042080E-16	3.238835E-18
5.870000E+03	2.050307E-16	3.237913E-18
5.880000E+03	2.059810E-16	3.238963E-18
5.890000E+03	2.069887E-16	3.240859E-18
5.900000E+03	2.080868E-16	3.244107E-18
5.910000E+03	2.092739E-16	3.248667E-18
5.920000E+03	2.105484E-16	3.254501E-18
5.930000E+03	2.119092E-16	3.261575E-18
5.940000E+03	2.133906E-16	3.270405E-18
5.950000E+03	2.149203E-16	3.279865E-18
5.960000E+03	2.165329E-16	3.290481E-18
5.970000E+03	2.182281E-16	3.302235E-18
5.980000E+03	2.200057E-16	3.315115E-18
5.990000E+03	2.218656E-16	3.329113E-18
6.000000E+03	2.238081E-16	3.344229E-18
6.010000E+03	2.258719E-16	3.361030E-18
6.020000E+03	2.279818E-16	3.378392E-18
6.030000E+03	2.301762E-16	3.396885E-18
6.040000E+03	2.324556E-16	3.416513E-18
6.050000E+03	2.348205E-16	3.437284E-18
6.060000E+03	2.372709E-16	3.459196E-18
6.070000E+03	2.398062E-16	3.482246E-18
6.080000E+03	2.424253E-16	3.506419E-18
6.090000E+03	2.451261E-16	3.531693E-18
6.100000E+03	2.479057E-16	3.558030E-18
6.110000E+03	2.507596E-16	3.585380E-18
6.120000E+03	2.536822E-16	3.613674E-18
6.130000E+03	2.566664E-16	3.642827E-18
6.140000E+03	2.597031E-16	3.672727E-18
6.150000E+03	2.628259E-16	3.703872E-18
6.160000E+03	2.659342E-16	3.734868E-18
6.170000E+03	2.690576E-16	3.766161E-18
6.180000E+03	2.721790E-16	3.797550E-18
6.190000E+03	2.752805E-16	3.828818E-18
6.200000E+03	2.783415E-16	3.859724E-18
6.210000E+03	2.813403E-16	3.890011E-18
6.220000E+03	2.842534E-16	3.919401E-18
6.230000E+03	2.870561E-16	3.947609E-18
6.240000E+03	2.897228E-16	3.974336E-18
6.250000E+03	2.922274E-16	3.999283E-18
6.260000E+03	2.945436E-16	4.022147E-18
6.270000E+03	2.965954E-16	4.041955E-18
6.280000E+03	2.984568E-16	4.059777E-18
6.290000E+03	3.000544E-16	4.074671E-18
6.300000E+03	3.013657E-16	4.086391E-18
6.310000E+03	3.023704E-16	4.094718E-18
6.320000E+03	3.030509E-16	4.099465E-18
6.330000E+03	3.033924E-16	4.100481E-18
6.340000E+03	3.033833E-16	4.097652E-18
6.350000E+03	3.030157E-16	4.090906E-18
6.360000E+03	3.022851E-16	4.080214E-18
6.370000E+03	3.011909E-16	4.065588E-18
6.380000E+03	2.997362E-16	4.047083E-18
6.390000E+03	2.979275E-16	4.024794E-18
6.400000E+03	2.957750E-16	3.998854E-18
6.410000E+03	2.932919E-16	3.969431E-18
6.420000E+03	2.904457E-16	3.936040E-18
6.430000E+03	2.873535E-16	3.900194E-18
6.440000E+03	2.839872E-16	3.861426E-18
6.450000E+03	2.803690E-16	3.819953E-18
6.460000E+03	2.765227E-16	3.776012E-18
6.470000E+03	2.724728E-16	3.729847E-18
6.480000E+03	2.682440E-16	3.681706E-18
6.490000E+03	2.638605E-16	3.631834E-18
6.500000E+03	2.593027E-16	3.579873E-18
6.510000E+03	2.546813E-16	3.527268E-18
6.520000E+03	2.499737E-16	3.473629E-18
6.530000E+03	2.452002E-16	3.419163E-18
6.540000E+03	2.403810E-16	3.364082E-18
6.550000E+03	2.355375E-16	3.308620E-18
6.560000E+03	2.306501E-16	3.252439E-18
6.570000E+03	2.258147E-16	3.196837E-18
6.580000E+03	2.210077E-16	3.141433E-18
6.590000E+03	2.162430E-16	3.086382E-18
6.600000E+03	2.115334E-16	3.031829E-18
6.610000E+03	2.068551E-16	2.977401E-18
6.620000E+03	2.022890E-16	2.924230E-18
6.630000E+03	1.978084E-16	2.871914E-18
6.640000E+03	1.934214E-16	2.820554E-18
6.650000E+03	1.891354E-16	2.770240E-18
6.660000E+03	1.849254E-16	2.720600E-18
6.670000E+03	1.808601E-16	2.672635E-18
6.680000E+03	1.769129E-16	2.625953E-18
6.690000E+03	1.730879E-16	2.580620E-18
6.700000E+03	1.693605E-16	2.536269E-18
6.710000E+03	1.657914E-16	2.493815E-18
6.720000E+03	1.623542E-16	2.452876E-18
6.730000E+03	1.590511E-16	2.413496E-18
6.740000E+03	1.558577E-16	2.375318E-18
6.750000E+03	1.528284E-16	2.339185E-18
6.760000E+03	1.499372E-16	2.304718E-18
6.770000E+03	1.471849E-16	2.271949E-18
6.780000E+03	1.445472E-16	2.240522E-18
6.790000E+03	1.420735E-16	2.211220E-18
6.800000E+03	1.397383E-16	2.183670E-18
6.810000E+03	1.375413E-16	2.157888E-18
6.820000E+03	1.354588E-16	2.133522E-18
6.830000E+03	1.335352E-16	2.111294E-18
6.840000E+03	1.317466E-16	2.090847E-18
6.850000E+03	1.300693E-16	2.071826E-18
6.860000E+03	1.285454E-16	2.054922E-18
6.870000E+03	1.271514E-16	2.039778E-18
6.880000E+03	1.258633E-16	2.026033E-18
6.890000E+03	1.247219E-16	2.014357E-18
6.900000E+03	1.237033E-16	2.004384E-18
6.910000E+03	1.227841E-16	1.995754E-18
6.920000E+03	1.220033E-16	1.989113E-18
6.930000E+03	1.213371E-16	1.984092E-18
6.940000E+03	1.207621E-16	1.980321E-18
6.950000E+03	1.203160E-16	1.978430E-18
6.960000E+03	1.199751E-16	1.978042E-18
6.970000E+03	1.197159E-16	1.978779E-18
6.980000E+03	1.195749E-16	1.981256E-18
6.990000E+03	1.195285E-16	1.985087E-18
7.000000E+03	1.195525E-16	1.989879E-18
7.010000E+03	1.196831E-16	1.996241E-18
7.020000E+03	1.198758E-16	2.003433E-18
7.030000E+03	1.201666E-16	2.012061E-18
7.040000E+03	1.205306E-16	2.021713E-18
7.050000E+03	1.209428E-16	2.031967E-18
7.060000E+03	1.214389E-16	2.043425E-18
7.070000E+03	1.219934E-16	2.055655E-18
7.080000E+03	1.225801E-16	2.068218E-18
7.090000E+03	1.232348E-16	2.081711E-18
7.100000E+03	1.239099E-16	2.095330E-18
7.110000E+03	1.246413E-16	2.109675E-18
7.120000E+03	1.253807E-16	2.123925E-18
7.130000E+03	1.261636E-16	2.138677E-18
7.140000E+03	1.269622E-16	2.153452E-18
7.150000E+03	1.277481E-16	2.167765E-18
7.160000E+03	1.285572E-16	2.182217E-18
7.170000E+03	1.293387E-16	2.195942E-18
7.180000E+03	1.301290E-16	2.209550E-18
7.190000E+03	1.308766E-16	2.222161E-18
7.200000E+03	1.316181E-16	2.234392E-18
7.210000E+03	1.323240E-16	2.245736E-18
7.220000E+03	1.329643E-16	2.255683E-18
7.230000E+03	1.335768E-16	2.264870E-18
7.240000E+03	1.341094E-16	2.272409E-18
7.250000E+03	1.346008E-16	2.278957E-18
7.260000E+03	1.349993E-16	2.283640E-18
7.270000E+03	1.353450E-16	2.287135E-18
7.280000E+03	1.355871E-16	2.288590E-18
7.290000E+03	1.357673E-16	2.288712E-18
7.300000E+03	1.358366E-16	2.286679E-18
7.310000E+03	1.358380E-16	2.283227E-18
7.320000E+03	1.357247E-16	2.277574E-18
7.330000E+03	1.355420E-16	2.270493E-18
7.340000E+03	1.352447E-16	2.261238E-18
7.350000E+03	1.348806E-16	2.250621E-18
7.360000E+03	1.344068E-16	2.237941E-18
7.370000E+03	1.338729E-16	2.224040E-18
7.380000E+03	1.332388E-16	2.208266E-18
7.390000E+03	1.325557E-16	2.191484E-18
7.400000E+03	1.317856E-16	2.173083E-18
7.410000E+03	1.309809E-16	2.153942E-18
7.420000E+03	1.301057E-16	2.133488E-18
7.430000E+03	1.291914E-16	2.112254E-18
7.440000E+03	1.282692E-16	2.090762E-18
7.450000E+03	1.273053E-16	2.068475E-18
7.460000E+03	1.263528E-16	2.046271E-18
7.470000E+03	1.253789E-16	2.023628E-18
7.480000E+03	1.244363E-16	2.001408E-18
7.490000E+03	1.234922E-16	1.979092E-18
7.500000E+03	1.225983E-16	1.957515E-18
7.510000E+03	1.217218E-16	1.936158E-18
7.520000E+03	1.208922E-16	1.915498E-18
7.530000E+03	1.201380E-16	1.895985E-18
7.540000E+03	1.194259E-16	1.877094E-18
7.550000E+03	1.188032E-16	1.859565E-18
7.560000E+03	1.182358E-16	1.842864E-18
7.570000E+03	1.177492E-16	1.827386E-18
7.580000E+03	1.173682E-16	1.813507E-18
7.590000E+03	1.170568E-16	1.800664E-18
7.600000E+03	1.168580E-16	1.789512E-18
7.610000E+03	1.167346E-16	1.779473E-18
7.620000E+03	1.167081E-16	1.770871E-18
7.630000E+03	1.167994E-16	1.764010E-18
7.640000E+03	1.169690E-16	1.758286E-18
7.650000E+03	1.172363E-16	1.753984E-18
7.660000E+03	1.176197E-16	1.751373E-18
7.670000E+03	1.180777E-16	1.749828E-18
7.680000E+03	1.186474E-16	1.749894E-18
7.690000E+03	1.192853E-16	1.750925E-18
7.700000E+03	1.200071E-16	1.753155E-18
7.710000E+03	1.208287E-16	1.756814E-18
7.720000E+03	1.217033E-16	1.761227E-18
7.730000E+03	1.226455E-16	1.766611E-18
7.740000E+03	1.236691E-16	1.773174E-18
7.750000E+03	1.247250E-16	1.780224E-18
7.760000E+03	1.258257E-16	1.787956E-18
