#wls	flux	fluxerr
1.600000E+03	7.881478E-16	2.909049E-20
1.640000E+03	7.943806E-16	2.932054E-20
1.680000E+03	8.007467E-16	2.955551E-20
1.720000E+03	8.072429E-16	2.979527E-20
1.760000E+03	8.138815E-16	3.004030E-20
1.800000E+03	8.206640E-16	3.029064E-20
1.840000E+03	8.275918E-16	3.054634E-20
1.880000E+03	8.346705E-16	3.080761E-20
1.920000E+03	8.419059E-16	3.107467E-20
1.960000E+03	8.492969E-16	3.134746E-20
2.000000E+03	8.568530E-16	3.162635E-20
2.040000E+03	8.645657E-16	3.191102E-20
2.080000E+03	8.724417E-16	3.220172E-20
2.120000E+03	8.804809E-16	3.249845E-20
2.160000E+03	8.886696E-16	3.280069E-20
2.200000E+03	8.970088E-16	3.310848E-20
2.240000E+03	9.054854E-16	3.342135E-20
2.280000E+03	9.140887E-16	3.373889E-20
2.320000E+03	9.228105E-16	3.406081E-20
2.360000E+03	9.316201E-16	3.438596E-20
2.400000E+03	9.404937E-16	3.471348E-20
2.440000E+03	9.494076E-16	3.504249E-20
2.480000E+03	9.583192E-16	3.537141E-20
2.520000E+03	9.671842E-16	3.569861E-20
2.560000E+03	9.759430E-16	3.602189E-20
2.600000E+03	9.845449E-16	3.633938E-20
2.640000E+03	9.929023E-16	3.664785E-20
2.680000E+03	1.000928E-15	3.694406E-20
2.720000E+03	1.008525E-15	3.722446E-20
2.760000E+03	1.015577E-15	3.748476E-20
2.800000E+03	1.021943E-15	3.771970E-20
2.840000E+03	1.027468E-15	3.792365E-20
2.880000E+03	1.031990E-15	3.809053E-20
2.920000E+03	1.035310E-15	3.821306E-20
2.960000E+03	1.037225E-15	3.828376E-20
3.000000E+03	1.037508E-15	3.829418E-20
3.010000E+03	1.037298E-15	3.828644E-20
3.020000E+03	1.036966E-15	3.827419E-20
3.030000E+03	1.036506E-15	3.825722E-20
3.040000E+03	1.035924E-15	3.823572E-20
3.050000E+03	1.035208E-15	3.820929E-20
3.060000E+03	1.034360E-15	3.817800E-20
3.070000E+03	1.033364E-15	3.814123E-20
3.080000E+03	1.032236E-15	3.809960E-20
3.090000E+03	1.030953E-15	3.805223E-20
3.100000E+03	1.029523E-15	3.799944E-20
3.110000E+03	1.027945E-15	3.794121E-20
3.120000E+03	1.026207E-15	3.787705E-20
3.130000E+03	1.024306E-15	3.780690E-20
3.140000E+03	1.022240E-15	3.773063E-20
3.150000E+03	1.020012E-15	3.764840E-20
3.160000E+03	1.017620E-15	3.756009E-20
3.170000E+03	1.015047E-15	3.746513E-20
3.180000E+03	1.012311E-15	3.736416E-20
3.190000E+03	1.009391E-15	3.725639E-20
3.200000E+03	1.006299E-15	3.714225E-20
3.210000E+03	1.003025E-15	3.702140E-20
3.220000E+03	9.995776E-16	3.689416E-20
3.230000E+03	9.959548E-16	3.676044E-20
3.240000E+03	9.921434E-16	3.661976E-20
3.250000E+03	9.881578E-16	3.647265E-20
3.260000E+03	9.839993E-16	3.631916E-20
3.270000E+03	9.796630E-16	3.615911E-20
3.280000E+03	9.751515E-16	3.599259E-20
3.290000E+03	9.704750E-16	3.581998E-20
3.300000E+03	9.656311E-16	3.564119E-20
3.310000E+03	9.606317E-16	3.545666E-20
3.320000E+03	9.554763E-16	3.526638E-20
3.330000E+03	9.501788E-16	3.507085E-20
3.340000E+03	9.447413E-16	3.487015E-20
3.350000E+03	9.391801E-16	3.466488E-20
3.360000E+03	9.334998E-16	3.445522E-20
3.370000E+03	9.277198E-16	3.424189E-20
3.380000E+03	9.218483E-16	3.402517E-20
3.390000E+03	9.159013E-16	3.380567E-20
3.400000E+03	9.099038E-16	3.358430E-20
3.410000E+03	9.038760E-16	3.336181E-20
3.420000E+03	8.978342E-16	3.313881E-20
3.430000E+03	8.918099E-16	3.291645E-20
3.440000E+03	8.858244E-16	3.269553E-20
3.450000E+03	8.799145E-16	3.247740E-20
3.460000E+03	8.741071E-16	3.226305E-20
3.470000E+03	8.684446E-16	3.205404E-20
3.480000E+03	8.629594E-16	3.185158E-20
3.490000E+03	8.576990E-16	3.165743E-20
3.500000E+03	8.527067E-16	3.147316E-20
3.510000E+03	8.480206E-16	3.130020E-20
3.520000E+03	8.436848E-16	3.114016E-20
3.530000E+03	8.397478E-16	3.099485E-20
3.540000E+03	8.362473E-16	3.086565E-20
3.550000E+03	8.332153E-16	3.075373E-20
3.560000E+03	8.306605E-16	3.065943E-20
3.570000E+03	8.285605E-16	3.058192E-20
3.580000E+03	8.268912E-16	3.052031E-20
3.590000E+03	8.255994E-16	3.047263E-20
3.600000E+03	8.246413E-16	3.043727E-20
3.610000E+03	8.239785E-16	3.041280E-20
3.620000E+03	8.235680E-16	3.039765E-20
3.630000E+03	8.233692E-16	3.039031E-20
3.640000E+03	8.233381E-16	3.038916E-20
3.650000E+03	8.234471E-16	3.039318E-20
3.660000E+03	8.236593E-16	3.040101E-20
3.670000E+03	8.239535E-16	3.041187E-20
3.680000E+03	8.243063E-16	3.042489E-20
3.690000E+03	8.246966E-16	3.043930E-20
3.700000E+03	8.251002E-16	3.045419E-20
3.710000E+03	8.255078E-16	3.046923E-20
3.720000E+03	8.259058E-16	3.048392E-20
3.730000E+03	8.262821E-16	3.049781E-20
3.740000E+03	8.266204E-16	3.051030E-20
3.750000E+03	8.269171E-16	3.052125E-20
3.760000E+03	8.271632E-16	3.053033E-20
3.770000E+03	8.273435E-16	3.053698E-20
3.780000E+03	8.274613E-16	3.054133E-20
3.790000E+03	8.274937E-16	3.054253E-20
3.800000E+03	9.044191E-16	3.338182E-20
3.803041E+03	8.969829E-16	3.310735E-20
3.806083E+03	8.868765E-16	3.273433E-20
3.809124E+03	8.747982E-16	3.228852E-20
3.812166E+03	8.662425E-16	3.197273E-20
3.815207E+03	8.584361E-16	3.168460E-20
3.818249E+03	8.480967E-16	3.130297E-20
3.821290E+03	8.371973E-16	3.090068E-20
3.824331E+03	8.285101E-16	3.058004E-20
3.827373E+03	8.233944E-16	3.039122E-20
3.830414E+03	8.175312E-16	3.017481E-20
3.833456E+03	8.145417E-16	3.006447E-20
3.836497E+03	8.123344E-16	2.998300E-20
3.839538E+03	8.148014E-16	3.007405E-20
3.842580E+03	8.158910E-16	3.011427E-20
3.845621E+03	8.177619E-16	3.018332E-20
3.848663E+03	8.204988E-16	3.028434E-20
3.851704E+03	8.258858E-16	3.048318E-20
3.854745E+03	8.276187E-16	3.054714E-20
3.857787E+03	8.304553E-16	3.065183E-20
3.860828E+03	8.337667E-16	3.077406E-20
3.863870E+03	8.367546E-16	3.088434E-20
3.866911E+03	8.437331E-16	3.114191E-20
3.869952E+03	8.476701E-16	3.128722E-20
3.872994E+03	8.491948E-16	3.134350E-20
3.876035E+03	8.501754E-16	3.137970E-20
3.879077E+03	8.462148E-16	3.123351E-20
3.882118E+03	8.484004E-16	3.131418E-20
3.885160E+03	8.410277E-16	3.104206E-20
3.888201E+03	8.323660E-16	3.072235E-20
3.891242E+03	8.302910E-16	3.064577E-20
3.894284E+03	8.322215E-16	3.071702E-20
3.897325E+03	8.277705E-16	3.055273E-20
3.900367E+03	8.222510E-16	3.034901E-20
3.903408E+03	8.243334E-16	3.042587E-20
3.906449E+03	8.232935E-16	3.038749E-20
3.909491E+03	8.179785E-16	3.019131E-20
3.912532E+03	8.150389E-16	3.008281E-20
3.915574E+03	8.233617E-16	3.039001E-20
3.918615E+03	8.285283E-16	3.058070E-20
3.921656E+03	8.271139E-16	3.052850E-20
3.924698E+03	8.233086E-16	3.038804E-20
3.927739E+03	8.200970E-16	3.026951E-20
3.930781E+03	8.163094E-16	3.012971E-20
3.933822E+03	8.099793E-16	2.989606E-20
3.936863E+03	8.044977E-16	2.969374E-20
3.939905E+03	8.098638E-16	2.989180E-20
3.942946E+03	8.090601E-16	2.986213E-20
3.945988E+03	8.180337E-16	3.019335E-20
3.949029E+03	8.224813E-16	3.035751E-20
3.952070E+03	8.211335E-16	3.030776E-20
3.955112E+03	8.178712E-16	3.018735E-20
3.958153E+03	8.191321E-16	3.023389E-20
3.961195E+03	8.165645E-16	3.013912E-20
3.964236E+03	8.075445E-16	2.980619E-20
3.967278E+03	7.975606E-16	2.943769E-20
3.970319E+03	7.909987E-16	2.919549E-20
3.973360E+03	7.918536E-16	2.922705E-20
3.976402E+03	7.913876E-16	2.920985E-20
3.979443E+03	7.954073E-16	2.935821E-20
3.982485E+03	7.936879E-16	2.929475E-20
3.985526E+03	7.940840E-16	2.930937E-20
3.988567E+03	7.844614E-16	2.895420E-20
3.991609E+03	7.753481E-16	2.861783E-20
3.994650E+03	7.706523E-16	2.844451E-20
3.997692E+03	7.650435E-16	2.823749E-20
4.000733E+03	7.553926E-16	2.788128E-20
4.003774E+03	7.496674E-16	2.766997E-20
4.006816E+03	7.458712E-16	2.752985E-20
4.009857E+03	7.478929E-16	2.760447E-20
4.012899E+03	7.541919E-16	2.783696E-20
4.015940E+03	7.576150E-16	2.796331E-20
4.018981E+03	7.600060E-16	2.805156E-20
4.022023E+03	7.629878E-16	2.816162E-20
4.025064E+03	7.656982E-16	2.826166E-20
4.028106E+03	7.722948E-16	2.850514E-20
4.031147E+03	7.773182E-16	2.869055E-20
4.034189E+03	7.829825E-16	2.889961E-20
4.037230E+03	7.932406E-16	2.927824E-20
4.040271E+03	7.979722E-16	2.945288E-20
4.043313E+03	8.016382E-16	2.958819E-20
4.046354E+03	8.084447E-16	2.983941E-20
4.049396E+03	8.149285E-16	3.007873E-20
4.052437E+03	8.180503E-16	3.019395E-20
4.055479E+03	8.216775E-16	3.032783E-20
4.058520E+03	8.264686E-16	3.050467E-20
4.061561E+03	8.302792E-16	3.064531E-20
4.064603E+03	8.309490E-16	3.067004E-20
4.067644E+03	8.259308E-16	3.048482E-20
4.070686E+03	8.199513E-16	3.026412E-20
4.073727E+03	8.127916E-16	2.999986E-20
4.076768E+03	8.069999E-16	2.978608E-20
4.079810E+03	8.012428E-16	2.957359E-20
4.082851E+03	8.005639E-16	2.954853E-20
4.085893E+03	7.993283E-16	2.950293E-20
4.088934E+03	7.901495E-16	2.916414E-20
4.091975E+03	7.855083E-16	2.899283E-20
4.095017E+03	7.774115E-16	2.869398E-20
4.098058E+03	7.668885E-16	2.830558E-20
4.101100E+03	7.546987E-16	2.785566E-20
4.104141E+03	7.444159E-16	2.747613E-20
4.107182E+03	7.359216E-16	2.716261E-20
4.110224E+03	7.302431E-16	2.695302E-20
4.113265E+03	7.276490E-16	2.685727E-20
4.116307E+03	7.276832E-16	2.685853E-20
4.119348E+03	7.326360E-16	2.704134E-20
4.122390E+03	7.338819E-16	2.708732E-20
4.125431E+03	7.339819E-16	2.709101E-20
4.128472E+03	7.323134E-16	2.702943E-20
4.131514E+03	7.333894E-16	2.706914E-20
4.134555E+03	7.300709E-16	2.694666E-20
4.137596E+03	7.323415E-16	2.703047E-20
4.140638E+03	7.399301E-16	2.731056E-20
4.143679E+03	7.468097E-16	2.756448E-20
4.146721E+03	7.531488E-16	2.779845E-20
4.149762E+03	7.593010E-16	2.802553E-20
4.152804E+03	7.686479E-16	2.837052E-20
4.155845E+03	7.822816E-16	2.887373E-20
4.158886E+03	7.916564E-16	2.921975E-20
4.161928E+03	7.999691E-16	2.952657E-20
4.164969E+03	8.057740E-16	2.974083E-20
4.168011E+03	8.111903E-16	2.994074E-20
4.171052E+03	8.204211E-16	3.028145E-20
4.174093E+03	8.262370E-16	3.049611E-20
4.177135E+03	8.255804E-16	3.047187E-20
4.180176E+03	8.268898E-16	3.052020E-20
4.183218E+03	8.271062E-16	3.052819E-20
4.186259E+03	8.250205E-16	3.045121E-20
4.189301E+03	8.251020E-16	3.045422E-20
4.192342E+03	8.219246E-16	3.033694E-20
4.195383E+03	8.146162E-16	3.006719E-20
4.198425E+03	8.071749E-16	2.979253E-20
4.201466E+03	8.014812E-16	2.958238E-20
4.204508E+03	7.910210E-16	2.919630E-20
4.207549E+03	7.801936E-16	2.879666E-20
4.210590E+03	7.704093E-16	2.843553E-20
4.213632E+03	7.578582E-16	2.797227E-20
4.216673E+03	7.504611E-16	2.769925E-20
4.219715E+03	7.471259E-16	2.757614E-20
4.222756E+03	7.412246E-16	2.735833E-20
4.225797E+03	7.318524E-16	2.701241E-20
4.228839E+03	7.239246E-16	2.671979E-20
4.231880E+03	7.178934E-16	2.649718E-20
4.234922E+03	7.137078E-16	2.634269E-20
4.237963E+03	7.096905E-16	2.619442E-20
4.241005E+03	7.071323E-16	2.609999E-20
4.244046E+03	7.073900E-16	2.610951E-20
4.247087E+03	7.085355E-16	2.615178E-20
4.250129E+03	7.107694E-16	2.623424E-20
4.253170E+03	7.190836E-16	2.654111E-20
4.256212E+03	7.285679E-16	2.689117E-20
4.259253E+03	7.293233E-16	2.691905E-20
4.262294E+03	7.288389E-16	2.690118E-20
4.265336E+03	7.274837E-16	2.685115E-20
4.268377E+03	7.235001E-16	2.670412E-20
4.271419E+03	7.219109E-16	2.664546E-20
4.274460E+03	7.190330E-16	2.653924E-20
4.277501E+03	7.155866E-16	2.641204E-20
4.280543E+03	7.088446E-16	2.616319E-20
4.283584E+03	7.060859E-16	2.606137E-20
4.286626E+03	7.050169E-16	2.602191E-20
4.289667E+03	7.023592E-16	2.592382E-20
4.292708E+03	6.984976E-16	2.578129E-20
4.295750E+03	6.931990E-16	2.558572E-20
4.298791E+03	6.889881E-16	2.543030E-20
4.301833E+03	6.869679E-16	2.535573E-20
4.304874E+03	6.813211E-16	2.514731E-20
4.307916E+03	6.783828E-16	2.503886E-20
4.310957E+03	6.750439E-16	2.491562E-20
4.313998E+03	6.748297E-16	2.490771E-20
4.317040E+03	6.756509E-16	2.493802E-20
4.320081E+03	6.702085E-16	2.473714E-20
4.323123E+03	6.660031E-16	2.458193E-20
4.326164E+03	6.684103E-16	2.467078E-20
4.329205E+03	6.712672E-16	2.477622E-20
4.332247E+03	6.757421E-16	2.494139E-20
4.335288E+03	6.787300E-16	2.505167E-20
4.338330E+03	6.778620E-16	2.501963E-20
4.341371E+03	6.768104E-16	2.498082E-20
4.344412E+03	6.769097E-16	2.498448E-20
4.347454E+03	6.755743E-16	2.493520E-20
4.350495E+03	6.709704E-16	2.476526E-20
4.353537E+03	6.681516E-16	2.466122E-20
4.356578E+03	6.664336E-16	2.459781E-20
4.359619E+03	6.641490E-16	2.451349E-20
4.362661E+03	6.659148E-16	2.457867E-20
4.365702E+03	6.658634E-16	2.457677E-20
4.368744E+03	6.634289E-16	2.448691E-20
4.371785E+03	6.573466E-16	2.426242E-20
4.374827E+03	6.554466E-16	2.419229E-20
4.377868E+03	6.578102E-16	2.427952E-20
4.380909E+03	6.604391E-16	2.437656E-20
4.383951E+03	6.642989E-16	2.451902E-20
4.386992E+03	6.750819E-16	2.491702E-20
4.390034E+03	6.856782E-16	2.530812E-20
4.393075E+03	6.940742E-16	2.561802E-20
4.396116E+03	7.046634E-16	2.600886E-20
4.399158E+03	7.181103E-16	2.650518E-20
4.402199E+03	7.296730E-16	2.693195E-20
4.405241E+03	7.391197E-16	2.728063E-20
4.408282E+03	7.527531E-16	2.778383E-20
4.411323E+03	7.647693E-16	2.822734E-20
4.414365E+03	7.779613E-16	2.871426E-20
4.417406E+03	7.899024E-16	2.915500E-20
4.420448E+03	7.947436E-16	2.933368E-20
4.423489E+03	8.000648E-16	2.953009E-20
4.426530E+03	8.017293E-16	2.959152E-20
4.429572E+03	8.060669E-16	2.975162E-20
4.432613E+03	8.088749E-16	2.985526E-20
4.435655E+03	8.097721E-16	2.988838E-20
4.438696E+03	8.071992E-16	2.979342E-20
4.441738E+03	7.981700E-16	2.946015E-20
4.444779E+03	7.889443E-16	2.911963E-20
4.447820E+03	7.788916E-16	2.874859E-20
4.450862E+03	7.648603E-16	2.823070E-20
4.453903E+03	7.526579E-16	2.778031E-20
4.456945E+03	7.408073E-16	2.734292E-20
4.459986E+03	7.318292E-16	2.701153E-20
4.463027E+03	7.182281E-16	2.650952E-20
4.466069E+03	7.053771E-16	2.603520E-20
4.469110E+03	6.946847E-16	2.564055E-20
4.472152E+03	6.853709E-16	2.529678E-20
4.475193E+03	6.777002E-16	2.501365E-20
4.478234E+03	6.695678E-16	2.471349E-20
4.481276E+03	6.623655E-16	2.444765E-20
4.484317E+03	6.583778E-16	2.430047E-20
4.487359E+03	6.548546E-16	2.417043E-20
4.490400E+03	6.521933E-16	2.407220E-20
4.493441E+03	6.502111E-16	2.399904E-20
4.496483E+03	6.488250E-16	2.394788E-20
4.499524E+03	6.504007E-16	2.400604E-20
4.502566E+03	6.514295E-16	2.404401E-20
4.505607E+03	6.529374E-16	2.409967E-20
4.508649E+03	6.532043E-16	2.410952E-20
4.511690E+03	6.527765E-16	2.409373E-20
4.514731E+03	6.518194E-16	2.405840E-20
4.517773E+03	6.466148E-16	2.386630E-20
4.520814E+03	6.451794E-16	2.381332E-20
4.523856E+03	6.428850E-16	2.372864E-20
4.526897E+03	6.402113E-16	2.362995E-20
4.529938E+03	6.371254E-16	2.351605E-20
4.532980E+03	6.360878E-16	2.347776E-20
4.536021E+03	6.351660E-16	2.344373E-20
4.539063E+03	6.344587E-16	2.341763E-20
4.542104E+03	6.341806E-16	2.340736E-20
4.545145E+03	6.317571E-16	2.331791E-20
4.548187E+03	6.284434E-16	2.319560E-20
4.551228E+03	6.268131E-16	2.313543E-20
4.554270E+03	6.255129E-16	2.308744E-20
4.557311E+03	6.226464E-16	2.298164E-20
4.560352E+03	6.194510E-16	2.286370E-20
4.563394E+03	6.161741E-16	2.274275E-20
4.566435E+03	6.125190E-16	2.260784E-20
4.569477E+03	6.127868E-16	2.261772E-20
4.572518E+03	6.143721E-16	2.267623E-20
4.575560E+03	6.170602E-16	2.277545E-20
4.578601E+03	6.207186E-16	2.291048E-20
4.581642E+03	6.221362E-16	2.296280E-20
4.584684E+03	6.218903E-16	2.295373E-20
4.587725E+03	6.213974E-16	2.293553E-20
4.590767E+03	6.222209E-16	2.296593E-20
4.593808E+03	6.181078E-16	2.281411E-20
4.596850E+03	6.152133E-16	2.270728E-20
4.599891E+03	6.169907E-16	2.277289E-20
4.602932E+03	6.189317E-16	2.284453E-20
4.605974E+03	6.191288E-16	2.285180E-20
4.609015E+03	6.167449E-16	2.276381E-20
4.612056E+03	6.162188E-16	2.274439E-20
4.615098E+03	6.127020E-16	2.261459E-20
4.618139E+03	6.093999E-16	2.249271E-20
4.621181E+03	6.066244E-16	2.239027E-20
4.624222E+03	6.040305E-16	2.229453E-20
4.627264E+03	6.005833E-16	2.216729E-20
4.630305E+03	5.966120E-16	2.202071E-20
4.633346E+03	5.928225E-16	2.188084E-20
4.636388E+03	5.908393E-16	2.180764E-20
4.639429E+03	5.906450E-16	2.180047E-20
4.642471E+03	5.900569E-16	2.177877E-20
4.645512E+03	5.924703E-16	2.186784E-20
4.648553E+03	5.942100E-16	2.193206E-20
4.651595E+03	5.964081E-16	2.201319E-20
4.654636E+03	5.977690E-16	2.206342E-20
4.657678E+03	5.986049E-16	2.209427E-20
4.660719E+03	5.996695E-16	2.213357E-20
4.663761E+03	5.978503E-16	2.206642E-20
4.666802E+03	5.970470E-16	2.203677E-20
4.669843E+03	5.955725E-16	2.198234E-20
4.672885E+03	5.983388E-16	2.208445E-20
4.675926E+03	5.997780E-16	2.213757E-20
4.678967E+03	6.020183E-16	2.222025E-20
4.682009E+03	6.058610E-16	2.236209E-20
4.685050E+03	6.085732E-16	2.246220E-20
4.688092E+03	6.077348E-16	2.243125E-20
4.691133E+03	6.059643E-16	2.236590E-20
4.694175E+03	6.034586E-16	2.227342E-20
4.697216E+03	6.022123E-16	2.222742E-20
4.700257E+03	5.987436E-16	2.209939E-20
4.703299E+03	5.913542E-16	2.182665E-20
4.706340E+03	5.865815E-16	2.165049E-20
4.709382E+03	5.848978E-16	2.158834E-20
4.712423E+03	5.846026E-16	2.157745E-20
4.715465E+03	5.865606E-16	2.164972E-20
4.718506E+03	5.869178E-16	2.166290E-20
4.721547E+03	5.852019E-16	2.159957E-20
4.724589E+03	5.857383E-16	2.161937E-20
4.727630E+03	5.843165E-16	2.156689E-20
4.730672E+03	5.839554E-16	2.155356E-20
4.733713E+03	5.821102E-16	2.148546E-20
4.736754E+03	5.786350E-16	2.135719E-20
4.739796E+03	5.756012E-16	2.124521E-20
4.742837E+03	5.787129E-16	2.136006E-20
4.745879E+03	5.822632E-16	2.149110E-20
4.748920E+03	5.838080E-16	2.154812E-20
4.751961E+03	5.841954E-16	2.156242E-20
4.755003E+03	5.855108E-16	2.161097E-20
4.758044E+03	5.867115E-16	2.165529E-20
4.761086E+03	5.864953E-16	2.164731E-20
4.764127E+03	5.833981E-16	2.153299E-20
4.767168E+03	5.801231E-16	2.141211E-20
4.770210E+03	5.774024E-16	2.131169E-20
4.773251E+03	5.703234E-16	2.105041E-20
4.776293E+03	5.665809E-16	2.091227E-20
4.779334E+03	5.623357E-16	2.075558E-20
4.782376E+03	5.582058E-16	2.060315E-20
4.785417E+03	5.553614E-16	2.049817E-20
4.788458E+03	5.517544E-16	2.036503E-20
4.791500E+03	5.509916E-16	2.033688E-20
4.794541E+03	5.481661E-16	2.023259E-20
4.797583E+03	5.450819E-16	2.011875E-20
4.800624E+03	5.434112E-16	2.005709E-20
4.803665E+03	5.414002E-16	1.998286E-20
4.806707E+03	5.408668E-16	1.996317E-20
4.809748E+03	5.394572E-16	1.991115E-20
4.812790E+03	5.392647E-16	1.990404E-20
4.815831E+03	5.404507E-16	1.994782E-20
4.818872E+03	5.437442E-16	2.006938E-20
4.821914E+03	5.430317E-16	2.004308E-20
4.824955E+03	5.426435E-16	2.002875E-20
4.827997E+03	5.427252E-16	2.003177E-20
4.831038E+03	5.433254E-16	2.005392E-20
4.834079E+03	5.413008E-16	1.997919E-20
4.837121E+03	5.396170E-16	1.991705E-20
4.840162E+03	5.397959E-16	1.992365E-20
4.843204E+03	5.415449E-16	1.998820E-20
4.846245E+03	5.400559E-16	1.993324E-20
4.849287E+03	5.370625E-16	1.982276E-20
4.852328E+03	5.375648E-16	1.984130E-20
4.855369E+03	5.374844E-16	1.983833E-20
4.858411E+03	5.361587E-16	1.978940E-20
4.861452E+03	5.344776E-16	1.972735E-20
4.864494E+03	5.307604E-16	1.959015E-20
4.867535E+03	5.274971E-16	1.946971E-20
4.870576E+03	5.254632E-16	1.939463E-20
4.873618E+03	5.218790E-16	1.926234E-20
4.876659E+03	5.190714E-16	1.915872E-20
4.879701E+03	5.164588E-16	1.906228E-20
4.882742E+03	5.147350E-16	1.899866E-20
4.885783E+03	5.154653E-16	1.902562E-20
4.888825E+03	5.171796E-16	1.908889E-20
4.891866E+03	5.178603E-16	1.911401E-20
4.894908E+03	5.205893E-16	1.921474E-20
4.897949E+03	5.246718E-16	1.936542E-20
4.900990E+03	5.300260E-16	1.956305E-20
4.904032E+03	5.340883E-16	1.971298E-20
4.907073E+03	5.399377E-16	1.992888E-20
4.910115E+03	5.431902E-16	2.004893E-20
4.913156E+03	5.517737E-16	2.036574E-20
4.916198E+03	5.617708E-16	2.073473E-20
4.919239E+03	5.719083E-16	2.110890E-20
4.922280E+03	5.867908E-16	2.165821E-20
4.925322E+03	5.997513E-16	2.213658E-20
4.928363E+03	6.150558E-16	2.270146E-20
4.931405E+03	6.305948E-16	2.327500E-20
4.934446E+03	6.451619E-16	2.381266E-20
4.937487E+03	6.567956E-16	2.424206E-20
4.940529E+03	6.660604E-16	2.458402E-20
4.943570E+03	6.777485E-16	2.501542E-20
4.946612E+03	6.920192E-16	2.554214E-20
4.949653E+03	7.055120E-16	2.604016E-20
4.952694E+03	7.170391E-16	2.646562E-20
4.955736E+03	7.260393E-16	2.679781E-20
4.958777E+03	7.321450E-16	2.702317E-20
4.961819E+03	7.328695E-16	2.704991E-20
4.964860E+03	7.313784E-16	2.699488E-20
4.967901E+03	7.255228E-16	2.677875E-20
4.970943E+03	7.169100E-16	2.646086E-20
4.973984E+03	7.057022E-16	2.604718E-20
4.977026E+03	6.934085E-16	2.559342E-20
4.980067E+03	6.799817E-16	2.509784E-20
4.983109E+03	6.666086E-16	2.460425E-20
4.986150E+03	6.526162E-16	2.408780E-20
4.989191E+03	6.378446E-16	2.354258E-20
4.992233E+03	6.234157E-16	2.301002E-20
4.995274E+03	6.096176E-16	2.250074E-20
4.998316E+03	5.978751E-16	2.206733E-20
5.001357E+03	5.846488E-16	2.157915E-20
5.004398E+03	5.712040E-16	2.108290E-20
