#wls	flux	fluxerr
1.600000E+03	1.643897E-16	1.127368E-16
1.640000E+03	1.720133E-16	1.109083E-16
1.680000E+03	1.796178E-16	1.082608E-16
1.720000E+03	1.875347E-16	1.049811E-16
1.760000E+03	1.957485E-16	1.010318E-16
1.800000E+03	2.042864E-16	9.641690E-17
1.840000E+03	2.136862E-16	9.138179E-17
1.880000E+03	2.239421E-16	8.591027E-17
1.920000E+03	2.357112E-16	8.027515E-17
1.960000E+03	2.493603E-16	7.464046E-17
2.000000E+03	2.648504E-16	6.912933E-17
2.040000E+03	2.827289E-16	6.414892E-17
2.080000E+03	3.028200E-16	6.001321E-17
2.120000E+03	3.252857E-16	5.705918E-17
2.160000E+03	3.489411E-16	5.515570E-17
2.200000E+03	3.735872E-16	5.455996E-17
2.240000E+03	3.980274E-16	5.600114E-17
2.280000E+03	4.212250E-16	6.033122E-17
2.320000E+03	4.435065E-16	6.701783E-17
2.360000E+03	4.650653E-16	7.404228E-17
2.400000E+03	4.868537E-16	7.946265E-17
2.440000E+03	5.090399E-16	8.172440E-17
2.480000E+03	5.320285E-16	7.994772E-17
2.520000E+03	5.542864E-16	7.387888E-17
2.560000E+03	5.749638E-16	6.519983E-17
2.600000E+03	5.915973E-16	5.899460E-17
2.640000E+03	6.025449E-16	6.299249E-17
2.680000E+03	6.076368E-16	7.730330E-17
2.720000E+03	6.069434E-16	9.527071E-17
2.760000E+03	6.017310E-16	1.123065E-16
2.800000E+03	5.928768E-16	1.262779E-16
2.840000E+03	5.813637E-16	1.364028E-16
2.880000E+03	5.679698E-16	1.425315E-16
2.920000E+03	5.541680E-16	1.450467E-16
2.960000E+03	5.412856E-16	1.444871E-16
3.000000E+03	5.312295E-16	1.416008E-16
3.010000E+03	5.294464E-16	1.406170E-16
3.020000E+03	5.279045E-16	1.395188E-16
3.030000E+03	5.267894E-16	1.383562E-16
3.040000E+03	5.259472E-16	1.370890E-16
3.050000E+03	5.255547E-16	1.357626E-16
3.060000E+03	5.256186E-16	1.343769E-16
3.070000E+03	5.259883E-16	1.328911E-16
3.080000E+03	5.268271E-16	1.313438E-16
3.090000E+03	5.281360E-16	1.297308E-16
3.100000E+03	5.299138E-16	1.280468E-16
3.110000E+03	5.321574E-16	1.262851E-16
3.120000E+03	5.348609E-16	1.244380E-16
3.130000E+03	5.381598E-16	1.225294E-16
3.140000E+03	5.417546E-16	1.204833E-16
3.150000E+03	5.459175E-16	1.183536E-16
3.160000E+03	5.506280E-16	1.161262E-16
3.170000E+03	5.557254E-16	1.137585E-16
3.180000E+03	5.613245E-16	1.112666E-16
3.190000E+03	5.672618E-16	1.086107E-16
3.200000E+03	5.737778E-16	1.058305E-16
3.210000E+03	5.805696E-16	1.028633E-16
3.220000E+03	5.878676E-16	9.974722E-17
3.230000E+03	5.954992E-16	9.644926E-17
3.240000E+03	6.034230E-16	9.296414E-17
3.250000E+03	6.117248E-16	8.930877E-17
3.260000E+03	6.203566E-16	8.548184E-17
3.270000E+03	6.291429E-16	8.147053E-17
3.280000E+03	6.382890E-16	7.731821E-17
3.290000E+03	6.476183E-16	7.302325E-17
3.300000E+03	6.570833E-16	6.860926E-17
3.310000E+03	6.666391E-16	6.410851E-17
3.320000E+03	6.764869E-16	5.958455E-17
3.330000E+03	6.863429E-16	5.506529E-17
3.340000E+03	6.962957E-16	5.062604E-17
3.350000E+03	7.064367E-16	4.635292E-17
3.360000E+03	7.166275E-16	4.233034E-17
3.370000E+03	7.269743E-16	3.867159E-17
3.380000E+03	7.374711E-16	3.548500E-17
3.390000E+03	7.481141E-16	3.286112E-17
3.400000E+03	7.588950E-16	3.084211E-17
3.410000E+03	7.699079E-16	2.940400E-17
3.420000E+03	7.810220E-16	2.844719E-17
3.430000E+03	7.924396E-16	2.784218E-17
3.440000E+03	8.039274E-16	2.743320E-17
3.450000E+03	8.156569E-16	2.709907E-17
3.460000E+03	8.275304E-16	2.674812E-17
3.470000E+03	8.392931E-16	2.632537E-17
3.480000E+03	8.508690E-16	2.581542E-17
3.490000E+03	8.621695E-16	2.522803E-17
3.500000E+03	8.728854E-16	2.459184E-17
3.510000E+03	8.829647E-16	2.396893E-17
3.520000E+03	8.919424E-16	2.342732E-17
3.530000E+03	8.996859E-16	2.304777E-17
3.540000E+03	9.062189E-16	2.289974E-17
3.550000E+03	9.116864E-16	2.301075E-17
3.560000E+03	9.167707E-16	2.336251E-17
3.570000E+03	9.223901E-16	2.390633E-17
3.580000E+03	9.293229E-16	2.457906E-17
3.590000E+03	9.382843E-16	2.531148E-17
3.600000E+03	9.497261E-16	2.602730E-17
3.610000E+03	9.638396E-16	2.664710E-17
3.620000E+03	9.803510E-16	2.708590E-17
3.630000E+03	9.985322E-16	2.726643E-17
3.640000E+03	1.017473E-15	2.714661E-17
3.650000E+03	1.035914E-15	2.673438E-17
3.660000E+03	1.052354E-15	2.610733E-17
3.670000E+03	1.065357E-15	2.542719E-17
3.680000E+03	1.073664E-15	2.492943E-17
3.690000E+03	1.076482E-15	2.486234E-17
3.700000E+03	1.073344E-15	2.533934E-17
3.710000E+03	1.064882E-15	2.625746E-17
3.720000E+03	1.051879E-15	2.735330E-17
3.730000E+03	1.035761E-15	2.837199E-17
3.740000E+03	1.017789E-15	2.913885E-17
3.750000E+03	9.993324E-16	2.958359E-17
3.760000E+03	9.814677E-16	2.971145E-17
3.770000E+03	9.651069E-16	2.957890E-17
3.780000E+03	9.509465E-16	2.926548E-17
3.790000E+03	9.395052E-16	2.885089E-17
3.800000E+03	9.311260E-16	2.839945E-17
3.810000E+03	9.261191E-16	2.796150E-17
3.820000E+03	9.247174E-16	2.757303E-17
3.830000E+03	9.272706E-16	2.726182E-17
3.840000E+03	9.339029E-16	2.703847E-17
3.850000E+03	9.448998E-16	2.690614E-17
3.860000E+03	9.603545E-16	2.685014E-17
3.870000E+03	9.802745E-16	2.685053E-17
3.880000E+03	1.004598E-15	2.689452E-17
3.890000E+03	1.033116E-15	2.698504E-17
3.900000E+03	1.065425E-15	2.715055E-17
3.910000E+03	1.100828E-15	2.744609E-17
3.920000E+03	1.138450E-15	2.794850E-17
3.930000E+03	1.177195E-15	2.873026E-17
3.940000E+03	1.216031E-15	2.981224E-17
3.950000E+03	1.254262E-15	3.112750E-17
3.960000E+03	1.291461E-15	3.254043E-17
3.970000E+03	1.327376E-15	3.389419E-17
3.980000E+03	1.362052E-15	3.504952E-17
3.990000E+03	1.395559E-15	3.590528E-17
4.000000E+03	1.427903E-15	3.641460E-17
4.010000E+03	1.458904E-15	3.658583E-17
4.020000E+03	1.488271E-15	3.647843E-17
4.030000E+03	1.515620E-15	3.618267E-17
4.040000E+03	1.540576E-15	3.580039E-17
4.050000E+03	1.562911E-15	3.543586E-17
4.060000E+03	1.582688E-15	3.517615E-17
4.070000E+03	1.600261E-15	3.507779E-17
4.080000E+03	1.616243E-15	3.517892E-17
4.090000E+03	1.631052E-15	3.547670E-17
4.100000E+03	1.644834E-15	3.591146E-17
4.110000E+03	1.657172E-15	3.640393E-17
4.120000E+03	1.667180E-15	3.689987E-17
4.130000E+03	1.673565E-15	3.737522E-17
4.140000E+03	1.674959E-15	3.783689E-17
4.150000E+03	1.670200E-15	3.829003E-17
4.160000E+03	1.658785E-15	3.870000E-17
4.170000E+03	1.640784E-15	3.899416E-17
4.180000E+03	1.616870E-15	3.908552E-17
4.190000E+03	1.588139E-15	3.888400E-17
4.200000E+03	1.555975E-15	3.832691E-17
4.210000E+03	1.521811E-15	3.740689E-17
4.220000E+03	1.486990E-15	3.618210E-17
4.230000E+03	1.452742E-15	3.477719E-17
4.240000E+03	1.420003E-15	3.336527E-17
4.250000E+03	1.389436E-15	3.214380E-17
4.260000E+03	1.361497E-15	3.129729E-17
4.270000E+03	1.336540E-15	3.093124E-17
4.280000E+03	1.314917E-15	3.103243E-17
4.290000E+03	1.297073E-15	3.150990E-17
4.300000E+03	1.283513E-15	3.224909E-17
4.310000E+03	1.274860E-15	3.313424E-17
4.320000E+03	1.271634E-15	3.405249E-17
4.330000E+03	1.274071E-15	3.489403E-17
4.340000E+03	1.281975E-15	3.554925E-17
4.350000E+03	1.294809E-15	3.592454E-17
4.360000E+03	1.311648E-15	3.596258E-17
4.370000E+03	1.331430E-15	3.566531E-17
4.380000E+03	1.353042E-15	3.509642E-17
4.390000E+03	1.375674E-15	3.436184E-17
4.400000E+03	1.398940E-15	3.356840E-17
4.410000E+03	1.422969E-15	3.280567E-17
4.420000E+03	1.448114E-15	3.215064E-17
4.430000E+03	1.474673E-15	3.167875E-17
4.440000E+03	1.502651E-15	3.144825E-17
4.450000E+03	1.531440E-15	3.145194E-17
4.460000E+03	1.559926E-15	3.161835E-17
4.470000E+03	1.586671E-15	3.187504E-17
4.480000E+03	1.610304E-15	3.217752E-17
4.490000E+03	1.630109E-15	3.251444E-17
4.500000E+03	1.646024E-15	3.292699E-17
4.510000E+03	1.658827E-15	3.347044E-17
4.520000E+03	1.670015E-15	3.413744E-17
4.530000E+03	1.681472E-15	3.487793E-17
4.540000E+03	1.695160E-15	3.565242E-17
4.550000E+03	1.712802E-15	3.643886E-17
4.560000E+03	1.735506E-15	3.723553E-17
4.570000E+03	1.763499E-15	3.805637E-17
4.580000E+03	1.795902E-15	3.891061E-17
4.590000E+03	1.830804E-15	3.979663E-17
4.600000E+03	1.865437E-15	4.067998E-17
4.610000E+03	1.896689E-15	4.148031E-17
4.620000E+03	1.921403E-15	4.210815E-17
4.630000E+03	1.936838E-15	4.251307E-17
4.640000E+03	1.941190E-15	4.270511E-17
4.650000E+03	1.933615E-15	4.275073E-17
4.660000E+03	1.914303E-15	4.272795E-17
4.670000E+03	1.884369E-15	4.267107E-17
4.680000E+03	1.845519E-15	4.256760E-17
4.690000E+03	1.799914E-15	4.236824E-17
4.700000E+03	1.749881E-15	4.198664E-17
4.710000E+03	1.697691E-15	4.133850E-17
4.720000E+03	1.645479E-15	4.038894E-17
4.730000E+03	1.595187E-15	3.916776E-17
4.740000E+03	1.548336E-15	3.776071E-17
4.750000E+03	1.506158E-15	3.629345E-17
4.760000E+03	1.469521E-15	3.490731E-17
4.770000E+03	1.438938E-15	3.374275E-17
4.780000E+03	1.414633E-15	3.291754E-17
4.790000E+03	1.396653E-15	3.252106E-17
4.800000E+03	1.384956E-15	3.263471E-17
4.810000E+03	1.379588E-15	3.333111E-17
4.820000E+03	1.380795E-15	3.464840E-17
4.830000E+03	1.388802E-15	3.657608E-17
4.840000E+03	1.403612E-15	3.904058E-17
4.850000E+03	1.424809E-15	4.188412E-17
4.860000E+03	1.451548E-15	4.487966E-17
4.870000E+03	1.482660E-15	4.777126E-17
4.880000E+03	1.516725E-15	5.030753E-17
4.890000E+03	1.552237E-15	5.226977E-17
4.900000E+03	1.587656E-15	5.349294E-17
4.910000E+03	1.621651E-15	5.388932E-17
4.920000E+03	1.653131E-15	5.346122E-17
4.930000E+03	1.681375E-15	5.230756E-17
4.940000E+03	1.706126E-15	5.061651E-17
4.950000E+03	1.727429E-15	4.863457E-17
4.960000E+03	1.745555E-15	4.662335E-17
4.970000E+03	1.760918E-15	4.482006E-17
4.980000E+03	1.773922E-15	4.340954E-17
4.990000E+03	1.784891E-15	4.249360E-17
5.000000E+03	1.793980E-15	4.207686E-17
5.010000E+03	1.801082E-15	4.208624E-17
5.020000E+03	1.805738E-15	4.237156E-17
5.030000E+03	1.807177E-15	4.270425E-17
5.040000E+03	1.804481E-15	4.283676E-17
5.050000E+03	1.796934E-15	4.258432E-17
5.060000E+03	1.784235E-15	4.187090E-17
5.070000E+03	1.766737E-15	4.074755E-17
5.080000E+03	1.745474E-15	3.937581E-17
5.090000E+03	1.722064E-15	3.798437E-17
5.100000E+03	1.698470E-15	3.680164E-17
5.110000E+03	1.676686E-15	3.596497E-17
5.120000E+03	1.658483E-15	3.548818E-17
5.130000E+03	1.645244E-15	3.532993E-17
5.140000E+03	1.637996E-15	3.545435E-17
5.150000E+03	1.637275E-15	3.583130E-17
5.160000E+03	1.643143E-15	3.642897E-17
5.170000E+03	1.655105E-15	3.718099E-17
5.180000E+03	1.672140E-15	3.795326E-17
5.190000E+03	1.692800E-15	3.857043E-17
5.200000E+03	1.715466E-15	3.887644E-17
5.210000E+03	1.738485E-15	3.878068E-17
5.220000E+03	1.760456E-15	3.829972E-17
5.230000E+03	1.780372E-15	3.757374E-17
5.240000E+03	1.797718E-15	3.684468E-17
5.250000E+03	1.812368E-15	3.636763E-17
5.260000E+03	1.824453E-15	3.625897E-17
5.270000E+03	1.834180E-15	3.644566E-17
5.280000E+03	1.841818E-15	3.679579E-17
5.290000E+03	1.847684E-15	3.720698E-17
5.300000E+03	1.852100E-15	3.758254E-17
5.310000E+03	1.855464E-15	3.784090E-17
5.320000E+03	1.858034E-15	3.793995E-17
5.330000E+03	1.859983E-15	3.787870E-17
5.340000E+03	1.861322E-15	3.769205E-17
5.350000E+03	1.861937E-15	3.742264E-17
5.360000E+03	1.861602E-15	3.709269E-17
5.370000E+03	1.860032E-15	3.671991E-17
5.380000E+03	1.857010E-15	3.631810E-17
5.390000E+03	1.852392E-15	3.588789E-17
5.400000E+03	1.846202E-15	3.544193E-17
5.410000E+03	1.838505E-15	3.498852E-17
5.420000E+03	1.829479E-15	3.451645E-17
5.430000E+03	1.819437E-15	3.403223E-17
5.440000E+03	1.809000E-15	3.354785E-17
5.450000E+03	1.799065E-15	3.305826E-17
5.460000E+03	1.790628E-15	3.259819E-17
5.470000E+03	1.784554E-15	3.223597E-17
5.480000E+03	1.781409E-15	3.202439E-17
5.490000E+03	1.781329E-15	3.202596E-17
5.500000E+03	1.784073E-15	3.227455E-17
5.510000E+03	1.788957E-15	3.269652E-17
5.520000E+03	1.794869E-15	3.317586E-17
5.530000E+03	1.800262E-15	3.362948E-17
5.540000E+03	1.803221E-15	3.401388E-17
5.550000E+03	1.801674E-15	3.434670E-17
5.560000E+03	1.793703E-15	3.466082E-17
5.570000E+03	1.777815E-15	3.492138E-17
5.580000E+03	1.753074E-15	3.506296E-17
5.590000E+03	1.719167E-15	3.505317E-17
5.600000E+03	1.676546E-15	3.488981E-17
5.610000E+03	1.626498E-15	3.459062E-17
5.620000E+03	1.571213E-15	3.416994E-17
5.630000E+03	1.513725E-15	3.361184E-17
5.640000E+03	1.457419E-15	3.289345E-17
5.650000E+03	1.405538E-15	3.202453E-17
5.660000E+03	1.360827E-15	3.105425E-17
5.670000E+03	1.325178E-15	3.005240E-17
5.680000E+03	1.299494E-15	2.908257E-17
5.690000E+03	1.283534E-15	2.818427E-17
5.700000E+03	1.276029E-15	2.738424E-17
5.710000E+03	1.274786E-15	2.670690E-17
5.720000E+03	1.276964E-15	2.618073E-17
5.730000E+03	1.279544E-15	2.582882E-17
5.740000E+03	1.280091E-15	2.562314E-17
5.750000E+03	1.277386E-15	2.547553E-17
5.760000E+03	1.271595E-15	2.531195E-17
5.770000E+03	1.264275E-15	2.512136E-17
5.780000E+03	1.258049E-15	2.494271E-17
5.790000E+03	1.255905E-15	2.484891E-17
5.800000E+03	1.260508E-15	2.490840E-17
5.810000E+03	1.273675E-15	2.515210E-17
5.820000E+03	1.296193E-15	2.559878E-17
5.830000E+03	1.327824E-15	2.626824E-17
5.840000E+03	1.367349E-15	2.718361E-17
5.850000E+03	1.412828E-15	2.841351E-17
5.860000E+03	1.462132E-15	3.004668E-17
5.870000E+03	1.513213E-15	3.207689E-17
5.880000E+03	1.564152E-15	3.436980E-17
5.890000E+03	1.612975E-15	3.671875E-17
5.900000E+03	1.657470E-15	3.888817E-17
5.910000E+03	1.695391E-15	4.065033E-17
5.920000E+03	1.724770E-15	4.181909E-17
5.930000E+03	1.744262E-15	4.227591E-17
5.940000E+03	1.753339E-15	4.199298E-17
5.950000E+03	1.752440E-15	4.104535E-17
5.960000E+03	1.742886E-15	3.959951E-17
5.970000E+03	1.726541E-15	3.788230E-17
5.980000E+03	1.705521E-15	3.613258E-17
5.990000E+03	1.681927E-15	3.455357E-17
6.000000E+03	1.657505E-15	3.326604E-17
6.010000E+03	1.633679E-15	3.227114E-17
6.020000E+03	1.611442E-15	3.150287E-17
6.030000E+03	1.591410E-15	3.093109E-17
6.040000E+03	1.573995E-15	3.053332E-17
6.050000E+03	1.559377E-15	3.024670E-17
6.060000E+03	1.547506E-15	3.004191E-17
6.070000E+03	1.537998E-15	2.992137E-17
6.080000E+03	1.530197E-15	2.984676E-17
6.090000E+03	1.523273E-15	2.977205E-17
6.100000E+03	1.516580E-15	2.968140E-17
6.110000E+03	1.509770E-15	2.956986E-17
6.120000E+03	1.502848E-15	2.946168E-17
6.130000E+03	1.496084E-15	2.938538E-17
6.140000E+03	1.489881E-15	2.932265E-17
6.150000E+03	1.484594E-15	2.924548E-17
6.160000E+03	1.480328E-15	2.914771E-17
6.170000E+03	1.476889E-15	2.903478E-17
6.180000E+03	1.473902E-15	2.893422E-17
6.190000E+03	1.470995E-15	2.886328E-17
6.200000E+03	1.467946E-15	2.879413E-17
6.210000E+03	1.464726E-15	2.870337E-17
6.220000E+03	1.461350E-15	2.859010E-17
6.230000E+03	1.457764E-15	2.846775E-17
6.240000E+03	1.453620E-15	2.839553E-17
6.250000E+03	1.448112E-15	2.842305E-17
6.260000E+03	1.440051E-15	2.850672E-17
6.270000E+03	1.428300E-15	2.858194E-17
6.280000E+03	1.412334E-15	2.864202E-17
6.290000E+03	1.392618E-15	2.871162E-17
6.300000E+03	1.370358E-15	2.882373E-17
6.310000E+03	1.346952E-15	2.899857E-17
6.320000E+03	1.323622E-15	2.920625E-17
6.330000E+03	1.301197E-15	2.938183E-17
6.340000E+03	1.280123E-15	2.947455E-17
6.350000E+03	1.260403E-15	2.946852E-17
6.360000E+03	1.241870E-15	2.938423E-17
6.370000E+03	1.224291E-15	2.925319E-17
6.380000E+03	1.207539E-15	2.909305E-17
6.390000E+03	1.191815E-15	2.890821E-17
6.400000E+03	1.177718E-15	2.869381E-17
6.410000E+03	1.166306E-15	2.843961E-17
6.420000E+03	1.158998E-15	2.814427E-17
6.430000E+03	1.157465E-15	2.782845E-17
6.440000E+03	1.163495E-15	2.753770E-17
6.450000E+03	1.178783E-15	2.734182E-17
6.460000E+03	1.204876E-15	2.733406E-17
6.470000E+03	1.242888E-15	2.763030E-17
6.480000E+03	1.293336E-15	2.837964E-17
6.490000E+03	1.355874E-15	2.976140E-17
6.500000E+03	1.429128E-15	3.199340E-17
6.510000E+03	1.510810E-15	3.535176E-17
6.520000E+03	1.598278E-15	4.009103E-17
6.530000E+03	1.688931E-15	4.626355E-17
6.540000E+03	1.780398E-15	5.364059E-17
6.550000E+03	1.870320E-15	6.178186E-17
6.560000E+03	1.956307E-15	7.014567E-17
6.570000E+03	2.035876E-15	7.816376E-17
6.580000E+03	2.106630E-15	8.529269E-17
6.590000E+03	2.166429E-15	9.105059E-17
6.600000E+03	2.213472E-15	9.504648E-17
6.610000E+03	2.246507E-15	9.701155E-17
6.620000E+03	2.264876E-15	9.681781E-17
6.630000E+03	2.268634E-15	9.449250E-17
6.640000E+03	2.258350E-15	9.020887E-17
6.650000E+03	2.235079E-15	8.427634E-17
6.660000E+03	2.200248E-15	7.712111E-17
6.670000E+03	2.155410E-15	6.925690E-17
6.680000E+03	2.102114E-15	6.125772E-17
6.690000E+03	2.041939E-15	5.372555E-17
6.700000E+03	1.976381E-15	4.723037E-17
6.710000E+03	1.906913E-15	4.221118E-17
6.720000E+03	1.834910E-15	3.880227E-17
6.730000E+03	1.761619E-15	3.669649E-17
6.740000E+03	1.688113E-15	3.530448E-17
6.750000E+03	1.615422E-15	3.412547E-17
6.760000E+03	1.544706E-15	3.291981E-17
6.770000E+03	1.477145E-15	3.163664E-17
6.780000E+03	1.413999E-15	3.031682E-17
6.790000E+03	1.356418E-15	2.902311E-17
6.800000E+03	1.305344E-15	2.780689E-17
6.810000E+03	1.261469E-15	2.671848E-17
6.820000E+03	1.225087E-15	2.581472E-17
6.830000E+03	1.196119E-15	2.516230E-17
6.840000E+03	1.174139E-15	2.482909E-17
6.850000E+03	1.158433E-15	2.481678E-17
6.860000E+03	1.148007E-15	2.500146E-17
6.870000E+03	1.141683E-15	2.519150E-17
6.880000E+03	1.138221E-15	2.523418E-17
6.890000E+03	1.136308E-15	2.506713E-17
6.900000E+03	1.134760E-15	2.471642E-17
6.910000E+03	1.132580E-15	2.425643E-17
6.920000E+03	1.129125E-15	2.377598E-17
6.930000E+03	1.124111E-15	2.335494E-17
6.940000E+03	1.117697E-15	2.302802E-17
6.950000E+03	1.110368E-15	2.277913E-17
6.960000E+03	1.102883E-15	2.259758E-17
6.970000E+03	1.095971E-15	2.248728E-17
6.980000E+03	1.090254E-15	2.243889E-17
6.990000E+03	1.086161E-15	2.244031E-17
7.000000E+03	1.083991E-15	2.248458E-17
7.010000E+03	1.083833E-15	2.255183E-17
7.020000E+03	1.085777E-15	2.262691E-17
7.030000E+03	1.089803E-15	2.271323E-17
7.040000E+03	1.095949E-15	2.283475E-17
7.050000E+03	1.104129E-15	2.303020E-17
7.060000E+03	1.114004E-15	2.331930E-17
7.070000E+03	1.124960E-15	2.367019E-17
7.080000E+03	1.136036E-15	2.402212E-17
7.090000E+03	1.146012E-15	2.431701E-17
7.100000E+03	1.153561E-15	2.450691E-17
7.110000E+03	1.157512E-15	2.456861E-17
7.120000E+03	1.157248E-15	2.450793E-17
7.130000E+03	1.152861E-15	2.434835E-17
7.140000E+03	1.145177E-15	2.413023E-17
7.150000E+03	1.135467E-15	2.388492E-17
7.160000E+03	1.125294E-15	2.361441E-17
7.170000E+03	1.116078E-15	2.331585E-17
7.180000E+03	1.108924E-15	2.301343E-17
7.190000E+03	1.104344E-15	2.275990E-17
7.200000E+03	1.102375E-15	2.262392E-17
7.210000E+03	1.102634E-15	2.263135E-17
7.220000E+03	1.104521E-15	2.273213E-17
7.230000E+03	1.107347E-15	2.285340E-17
7.240000E+03	1.110520E-15	2.295012E-17
7.250000E+03	1.113742E-15	2.300812E-17
7.260000E+03	1.116893E-15	2.303966E-17
7.270000E+03	1.119930E-15	2.306210E-17
7.280000E+03	1.122859E-15	2.307699E-17
7.290000E+03	1.125602E-15	2.308487E-17
7.300000E+03	1.127963E-15	2.308705E-17
7.310000E+03	1.129611E-15	2.307460E-17
7.320000E+03	1.130200E-15	2.304863E-17
7.330000E+03	1.129366E-15	2.301258E-17
7.340000E+03	1.126909E-15	2.295742E-17
7.350000E+03	1.122832E-15	2.288568E-17
7.360000E+03	1.117335E-15	2.280749E-17
7.370000E+03	1.110795E-15	2.271399E-17
7.380000E+03	1.103706E-15	2.259902E-17
7.390000E+03	1.096478E-15	2.247011E-17
7.400000E+03	1.089422E-15	2.233688E-17
7.410000E+03	1.082696E-15	2.221802E-17
7.420000E+03	1.076426E-15	2.212824E-17
7.430000E+03	1.070690E-15	2.205136E-17
7.440000E+03	1.065585E-15	2.196532E-17
7.450000E+03	1.061158E-15	2.186122E-17
7.460000E+03	1.057445E-15	2.173930E-17
7.470000E+03	1.054415E-15	2.161268E-17
7.480000E+03	1.051970E-15	2.149689E-17
7.490000E+03	1.049942E-15	2.140477E-17
7.500000E+03	1.048190E-15	2.136882E-17
7.510000E+03	1.046627E-15	2.141057E-17
7.520000E+03	1.045219E-15	2.150063E-17
7.530000E+03	1.044065E-15	2.160316E-17
7.540000E+03	1.043289E-15	2.170705E-17
7.550000E+03	1.042998E-15	2.180721E-17
7.560000E+03	1.043195E-15	2.190377E-17
7.570000E+03	1.043696E-15	2.199542E-17
7.580000E+03	1.044126E-15	2.206232E-17
7.590000E+03	1.043959E-15	2.208192E-17
7.600000E+03	1.042714E-15	2.204427E-17
7.610000E+03	1.040099E-15	2.195668E-17
7.620000E+03	1.036060E-15	2.185097E-17
7.630000E+03	1.030827E-15	2.174372E-17
7.640000E+03	1.024923E-15	2.160819E-17
7.650000E+03	1.018880E-15	2.142161E-17
7.660000E+03	1.013125E-15	2.119365E-17
7.670000E+03	1.007813E-15	2.094993E-17
7.680000E+03	1.002859E-15	2.073910E-17
7.690000E+03	9.981266E-16	2.060268E-17
7.700000E+03	9.935470E-16	2.052344E-17
7.710000E+03	9.890881E-16	2.045563E-17
7.720000E+03	9.848072E-16	2.037568E-17
7.730000E+03	9.807245E-16	2.028465E-17
7.740000E+03	9.769450E-16	2.020888E-17
7.750000E+03	9.736217E-16	2.017502E-17
7.760000E+03	9.709821E-16	2.018111E-17
