#wls	flux	fluxerr
1.600000E+03	2.057779E-16	2.511160E-16
1.640000E+03	2.069134E-16	2.494968E-16
1.680000E+03	2.081227E-16	2.478546E-16
1.720000E+03	2.094960E-16	2.462900E-16
1.760000E+03	2.110323E-16	2.447920E-16
1.800000E+03	2.127308E-16	2.433494E-16
1.840000E+03	2.146811E-16	2.420531E-16
1.880000E+03	2.168819E-16	2.408864E-16
1.920000E+03	2.193317E-16	2.398321E-16
1.960000E+03	2.219384E-16	2.387752E-16
2.000000E+03	2.247910E-16	2.377984E-16
2.040000E+03	2.279781E-16	2.369773E-16
2.080000E+03	2.314976E-16	2.362876E-16
2.120000E+03	2.352570E-16	2.356144E-16
2.160000E+03	2.392542E-16	2.349381E-16
2.200000E+03	2.436668E-16	2.344118E-16
2.240000E+03	2.484021E-16	2.339195E-16
2.280000E+03	2.535469E-16	2.335177E-16
2.320000E+03	2.590086E-16	2.330935E-16
2.360000E+03	2.647843E-16	2.326207E-16
2.400000E+03	2.709604E-16	2.321495E-16
2.440000E+03	2.775336E-16	2.316477E-16
2.480000E+03	2.844120E-16	2.310113E-16
2.520000E+03	2.916817E-16	2.302850E-16
2.560000E+03	2.994282E-16	2.295058E-16
2.600000E+03	3.075601E-16	2.285715E-16
2.640000E+03	3.161632E-16	2.275165E-16
2.680000E+03	3.254107E-16	2.264284E-16
2.720000E+03	3.351245E-16	2.251434E-16
2.760000E+03	3.454784E-16	2.237435E-16
2.800000E+03	3.565582E-16	2.222407E-16
2.840000E+03	3.683631E-16	2.205884E-16
2.880000E+03	3.808941E-16	2.187436E-16
2.920000E+03	3.943267E-16	2.167619E-16
2.960000E+03	4.087509E-16	2.146406E-16
3.000000E+03	4.241728E-16	2.123305E-16
3.010000E+03	4.282389E-16	2.117450E-16
3.020000E+03	4.323897E-16	2.111543E-16
3.030000E+03	4.365392E-16	2.105160E-16
3.040000E+03	4.407737E-16	2.098716E-16
3.050000E+03	4.451793E-16	2.092608E-16
3.060000E+03	4.495844E-16	2.086013E-16
3.070000E+03	4.540753E-16	2.079333E-16
3.080000E+03	4.587379E-16	2.072948E-16
3.090000E+03	4.634010E-16	2.066071E-16
3.100000E+03	4.682364E-16	2.059465E-16
3.110000E+03	4.730732E-16	2.052365E-16
3.120000E+03	4.780829E-16	2.045514E-16
3.130000E+03	4.831803E-16	2.038530E-16
3.140000E+03	4.883659E-16	2.031410E-16
3.150000E+03	4.936403E-16	2.024151E-16
3.160000E+03	4.990893E-16	2.017094E-16
3.170000E+03	5.046281E-16	2.009882E-16
3.180000E+03	5.102572E-16	2.002515E-16
3.190000E+03	5.160627E-16	1.995321E-16
3.200000E+03	5.219600E-16	1.987962E-16
3.210000E+03	5.280350E-16	1.980757E-16
3.220000E+03	5.342032E-16	1.973382E-16
3.230000E+03	5.405509E-16	1.966147E-16
3.240000E+03	5.470788E-16	1.959044E-16
3.250000E+03	5.537029E-16	1.951763E-16
3.260000E+03	5.605093E-16	1.944606E-16
3.270000E+03	5.674992E-16	1.937568E-16
3.280000E+03	5.746739E-16	1.930642E-16
3.290000E+03	5.819496E-16	1.923545E-16
3.300000E+03	5.894980E-16	1.916842E-16
3.310000E+03	5.972356E-16	1.910247E-16
3.320000E+03	6.051642E-16	1.903761E-16
3.330000E+03	6.133706E-16	1.897650E-16
3.340000E+03	6.216868E-16	1.891389E-16
3.350000E+03	6.302852E-16	1.885507E-16
3.360000E+03	6.391682E-16	1.879999E-16
3.370000E+03	6.482532E-16	1.874617E-16
3.380000E+03	6.576284E-16	1.869616E-16
3.390000E+03	6.672968E-16	1.864998E-16
3.400000E+03	6.772620E-16	1.860769E-16
3.410000E+03	6.874422E-16	1.856704E-16
3.420000E+03	6.980123E-16	1.853277E-16
3.430000E+03	7.088913E-16	1.850266E-16
3.440000E+03	7.200841E-16	1.847684E-16
3.450000E+03	7.315961E-16	1.845547E-16
3.460000E+03	7.435184E-16	1.844085E-16
3.470000E+03	7.558577E-16	1.843308E-16
3.480000E+03	7.686209E-16	1.843226E-16
3.490000E+03	7.817300E-16	1.843653E-16
3.500000E+03	7.953650E-16	1.845011E-16
3.510000E+03	8.093631E-16	1.846917E-16
3.520000E+03	8.239061E-16	1.849786E-16
3.530000E+03	8.390052E-16	1.853628E-16
3.540000E+03	8.545860E-16	1.858271E-16
3.550000E+03	8.707474E-16	1.863923E-16
3.560000E+03	8.875035E-16	1.870599E-16
3.570000E+03	9.048692E-16	1.878316E-16
3.580000E+03	9.229474E-16	1.887270E-16
3.590000E+03	9.415816E-16	1.897122E-16
3.600000E+03	9.610513E-16	1.908415E-16
3.610000E+03	9.812021E-16	1.920813E-16
3.620000E+03	1.002142E-15	1.934504E-16
3.630000E+03	1.023893E-15	1.949499E-16
3.640000E+03	1.046478E-15	1.965809E-16
3.650000E+03	1.069921E-15	1.983444E-16
3.660000E+03	1.094335E-15	2.002576E-16
3.670000E+03	1.119657E-15	2.023047E-16
3.680000E+03	1.146091E-15	2.045181E-16
3.690000E+03	1.173484E-15	2.068658E-16
3.700000E+03	1.201952E-15	2.093634E-16
3.710000E+03	1.231520E-15	2.120104E-16
3.720000E+03	1.262303E-15	2.148210E-16
3.730000E+03	1.294324E-15	2.177934E-16
3.740000E+03	1.327514E-15	2.209100E-16
3.750000E+03	1.361981E-15	2.241830E-16
3.760000E+03	1.397743E-15	2.276087E-16
3.770000E+03	1.434809E-15	2.311823E-16
3.780000E+03	1.473280E-15	2.349131E-16
3.790000E+03	1.513065E-15	2.387791E-16
3.800000E+03	1.554250E-15	2.427868E-16
3.810000E+03	1.596729E-15	2.469118E-16
3.820000E+03	1.640673E-15	2.511723E-16
3.830000E+03	1.685956E-15	2.555406E-16
3.840000E+03	1.732539E-15	2.600018E-16
3.850000E+03	1.780470E-15	2.645538E-16
3.860000E+03	1.829591E-15	2.691635E-16
3.870000E+03	1.880027E-15	2.738391E-16
3.880000E+03	1.931498E-15	2.785292E-16
3.890000E+03	1.984008E-15	2.832237E-16
3.900000E+03	2.037552E-15	2.879104E-16
3.910000E+03	2.091914E-15	2.925469E-16
3.920000E+03	2.147069E-15	2.971178E-16
3.930000E+03	2.202781E-15	3.015780E-16
3.940000E+03	2.259113E-15	3.059236E-16
3.950000E+03	2.315713E-15	3.100939E-16
3.960000E+03	2.372535E-15	3.140700E-16
3.970000E+03	2.429530E-15	3.178324E-16
3.980000E+03	2.486448E-15	3.213349E-16
3.990000E+03	2.543245E-15	3.245590E-16
4.000000E+03	2.599683E-15	3.274610E-16
4.010000E+03	2.655634E-15	3.300121E-16
4.020000E+03	2.711188E-15	3.322108E-16
4.030000E+03	2.766039E-15	3.340066E-16
4.040000E+03	2.820209E-15	3.353897E-16
4.050000E+03	2.873632E-15	3.363400E-16
4.060000E+03	2.926164E-15	3.368282E-16
4.070000E+03	2.977988E-15	3.368634E-16
4.080000E+03	3.029002E-15	3.364212E-16
4.090000E+03	3.079229E-15	3.354916E-16
4.100000E+03	3.128615E-15	3.340563E-16
4.110000E+03	3.177425E-15	3.321307E-16
4.120000E+03	3.225544E-15	3.296894E-16
4.130000E+03	3.273173E-15	3.267394E-16
4.140000E+03	3.320428E-15	3.232779E-16
4.150000E+03	3.367339E-15	3.192931E-16
4.160000E+03	3.414141E-15	3.147922E-16
4.170000E+03	3.460879E-15	3.097637E-16
4.180000E+03	3.507698E-15	3.042048E-16
4.190000E+03	3.554744E-15	2.981125E-16
4.200000E+03	3.602156E-15	2.914830E-16
4.210000E+03	3.650070E-15	2.843124E-16
4.220000E+03	3.698429E-15	2.765834E-16
4.230000E+03	3.747537E-15	2.683091E-16
4.240000E+03	3.797318E-15	2.594772E-16
4.250000E+03	3.847874E-15	2.500945E-16
4.260000E+03	3.899297E-15	2.401744E-16
4.270000E+03	3.951670E-15	2.297402E-16
4.280000E+03	4.004898E-15	2.188200E-16
4.290000E+03	4.059237E-15	2.074832E-16
4.300000E+03	4.114509E-15	1.958044E-16
4.310000E+03	4.170895E-15	1.839182E-16
4.320000E+03	4.228501E-15	1.720109E-16
4.330000E+03	4.287276E-15	1.603413E-16
4.340000E+03	4.347366E-15	1.492836E-16
4.350000E+03	4.408853E-15	1.393461E-16
4.360000E+03	4.471932E-15	1.311974E-16
4.370000E+03	4.536823E-15	1.256404E-16
4.380000E+03	4.603598E-15	1.235016E-16
4.390000E+03	4.672519E-15	1.254375E-16
4.400000E+03	4.743786E-15	1.316116E-16
4.410000E+03	4.817362E-15	1.416680E-16
4.420000E+03	4.893374E-15	1.550170E-16
4.430000E+03	4.971941E-15	1.710265E-16
4.440000E+03	5.053078E-15	1.891341E-16
4.450000E+03	5.136777E-15	2.088879E-16
4.460000E+03	5.223079E-15	2.299443E-16
4.470000E+03	5.311899E-15	2.520408E-16
4.480000E+03	5.403187E-15	2.749811E-16
4.490000E+03	5.496746E-15	2.986088E-16
4.500000E+03	5.592490E-15	3.228065E-16
4.510000E+03	5.689917E-15	3.474564E-16
4.520000E+03	5.788890E-15	3.724768E-16
4.530000E+03	5.888853E-15	3.977706E-16
4.540000E+03	5.989278E-15	4.232464E-16
4.550000E+03	6.089750E-15	4.488241E-16
4.560000E+03	6.189642E-15	4.744091E-16
4.570000E+03	6.288291E-15	4.999033E-16
4.580000E+03	6.385023E-15	5.252051E-16
4.590000E+03	6.479347E-15	5.502262E-16
4.600000E+03	6.570708E-15	5.748719E-16
4.610000E+03	6.658416E-15	5.990342E-16
4.620000E+03	6.742020E-15	6.226241E-16
4.630000E+03	6.821236E-15	6.455687E-16
4.640000E+03	6.895600E-15	6.677784E-16
4.650000E+03	6.965015E-15	6.892001E-16
4.660000E+03	7.029398E-15	7.097844E-16
4.670000E+03	7.088588E-15	7.294770E-16
4.680000E+03	7.142882E-15	7.482732E-16
4.690000E+03	7.192309E-15	7.661452E-16
4.700000E+03	7.237065E-15	7.830861E-16
4.710000E+03	7.277679E-15	7.991292E-16
4.720000E+03	7.314370E-15	8.142790E-16
4.730000E+03	7.347565E-15	8.285666E-16
4.740000E+03	7.377529E-15	8.420084E-16
4.750000E+03	7.404784E-15	8.546536E-16
4.760000E+03	7.429568E-15	8.665222E-16
4.770000E+03	7.452087E-15	8.776320E-16
4.780000E+03	7.472763E-15	8.880286E-16
4.790000E+03	7.491612E-15	8.977111E-16
4.800000E+03	7.508683E-15	9.066832E-16
4.810000E+03	7.524213E-15	9.149720E-16
4.820000E+03	7.538205E-15	9.225771E-16
4.830000E+03	7.550851E-15	9.295218E-16
4.840000E+03	7.562198E-15	9.358121E-16
4.850000E+03	7.572325E-15	9.414582E-16
4.860000E+03	7.581013E-15	9.464332E-16
4.870000E+03	7.588344E-15	9.507481E-16
4.880000E+03	7.594044E-15	9.543689E-16
4.890000E+03	7.597995E-15	9.572812E-16
4.900000E+03	7.600161E-15	9.594810E-16
4.910000E+03	7.600186E-15	9.609242E-16
4.920000E+03	7.598071E-15	9.616115E-16
4.930000E+03	7.593598E-15	9.615168E-16
4.940000E+03	7.586838E-15	9.606505E-16
4.950000E+03	7.577663E-15	9.589981E-16
4.960000E+03	7.566157E-15	9.565732E-16
4.970000E+03	7.552301E-15	9.533757E-16
4.980000E+03	7.536367E-15	9.494436E-16
4.990000E+03	7.518365E-15	9.447814E-16
5.000000E+03	7.498672E-15	9.394402E-16
5.010000E+03	7.477472E-15	9.334468E-16
5.020000E+03	7.455224E-15	9.268622E-16
5.030000E+03	7.432107E-15	9.197113E-16
5.040000E+03	7.408557E-15	9.120508E-16
5.050000E+03	7.385022E-15	9.039375E-16
5.060000E+03	7.361878E-15	8.954175E-16
5.070000E+03	7.339496E-15	8.865354E-16
5.080000E+03	7.318234E-15	8.773318E-16
5.090000E+03	7.298507E-15	8.678523E-16
5.100000E+03	7.280545E-15	8.581185E-16
5.110000E+03	7.264773E-15	8.481722E-16
5.120000E+03	7.251349E-15	8.380220E-16
5.130000E+03	7.240608E-15	8.276944E-16
5.140000E+03	7.232543E-15	8.171745E-16
5.150000E+03	7.227393E-15	8.064733E-16
5.160000E+03	7.225199E-15	7.955774E-16
5.170000E+03	7.226025E-15	7.844744E-16
5.180000E+03	7.229738E-15	7.731289E-16
5.190000E+03	7.236380E-15	7.615237E-16
5.200000E+03	7.245728E-15	7.496122E-16
5.210000E+03	7.257665E-15	7.373596E-16
5.220000E+03	7.271962E-15	7.247198E-16
5.230000E+03	7.288434E-15	7.116521E-16
5.240000E+03	7.306792E-15	6.981072E-16
5.250000E+03	7.326726E-15	6.840365E-16
5.260000E+03	7.347986E-15	6.693998E-16
5.270000E+03	7.370309E-15	6.541597E-16
5.280000E+03	7.393356E-15	6.382763E-16
5.290000E+03	7.416714E-15	6.217096E-16
5.300000E+03	7.440205E-15	6.044465E-16
5.310000E+03	7.463514E-15	5.864701E-16
5.320000E+03	7.486347E-15	5.677749E-16
5.330000E+03	7.508510E-15	5.483742E-16
5.340000E+03	7.529765E-15	5.282907E-16
5.350000E+03	7.549903E-15	5.075656E-16
5.360000E+03	7.568829E-15	4.862662E-16
5.370000E+03	7.586409E-15	4.644798E-16
5.380000E+03	7.602621E-15	4.423289E-16
5.390000E+03	7.617326E-15	4.199632E-16
5.400000E+03	7.630648E-15	3.975906E-16
5.410000E+03	7.642511E-15	3.754612E-16
5.420000E+03	7.653021E-15	3.539005E-16
5.430000E+03	7.662222E-15	3.333104E-16
5.440000E+03	7.670176E-15	3.141859E-16
5.450000E+03	7.677027E-15	2.971223E-16
5.460000E+03	7.682842E-15	2.827984E-16
5.470000E+03	7.687680E-15	2.719382E-16
5.480000E+03	7.691664E-15	2.652341E-16
5.490000E+03	7.694669E-15	2.632215E-16
5.500000E+03	7.696806E-15	2.660984E-16
5.510000E+03	7.698246E-15	2.735196E-16
5.520000E+03	7.699001E-15	2.848596E-16
5.530000E+03	7.699213E-15	2.993884E-16
5.540000E+03	7.698854E-15	3.163688E-16
5.550000E+03	7.698113E-15	3.351394E-16
5.560000E+03	7.696866E-15	3.551238E-16
5.570000E+03	7.695139E-15	3.758522E-16
5.580000E+03	7.693037E-15	3.969512E-16
5.590000E+03	7.690445E-15	4.181141E-16
5.600000E+03	7.687562E-15	4.391142E-16
5.610000E+03	7.684300E-15	4.597602E-16
5.620000E+03	7.680739E-15	4.799103E-16
5.630000E+03	7.677057E-15	4.994614E-16
5.640000E+03	7.673301E-15	5.183280E-16
5.650000E+03	7.669615E-15	5.364514E-16
5.660000E+03	7.666091E-15	5.537858E-16
5.670000E+03	7.662916E-15	5.703053E-16
5.680000E+03	7.660297E-15	5.859964E-16
5.690000E+03	7.658379E-15	6.008501E-16
5.700000E+03	7.657471E-15	6.148769E-16
5.710000E+03	7.657661E-15	6.280759E-16
5.720000E+03	7.659264E-15	6.404687E-16
5.730000E+03	7.662442E-15	6.520678E-16
5.740000E+03	7.667417E-15	6.628933E-16
5.750000E+03	7.674396E-15	6.729658E-16
5.760000E+03	7.683413E-15	6.822912E-16
5.770000E+03	7.694694E-15	6.908928E-16
5.780000E+03	7.708360E-15	6.987839E-16
5.790000E+03	7.724342E-15	7.059604E-16
5.800000E+03	7.742679E-15	7.124260E-16
5.810000E+03	7.763442E-15	7.181865E-16
5.820000E+03	7.786435E-15	7.232210E-16
5.830000E+03	7.811643E-15	7.275240E-16
5.840000E+03	7.838787E-15	7.310634E-16
5.850000E+03	7.867774E-15	7.338231E-16
5.860000E+03	7.898256E-15	7.357616E-16
5.870000E+03	7.930081E-15	7.368548E-16
5.880000E+03	7.962925E-15	7.370616E-16
5.890000E+03	7.996525E-15	7.363464E-16
5.900000E+03	8.030459E-15	7.346586E-16
5.910000E+03	8.064605E-15	7.319757E-16
5.920000E+03	8.098466E-15	7.282417E-16
5.930000E+03	8.131937E-15	7.234373E-16
5.940000E+03	8.164544E-15	7.175114E-16
5.950000E+03	8.196215E-15	7.104507E-16
5.960000E+03	8.226592E-15	7.022187E-16
5.970000E+03	8.255495E-15	6.927968E-16
5.980000E+03	8.282768E-15	6.821708E-16
5.990000E+03	8.308198E-15	6.703244E-16
6.000000E+03	8.331671E-15	6.572529E-16
6.010000E+03	8.353014E-15	6.429496E-16
6.020000E+03	8.372146E-15	6.274190E-16
6.030000E+03	8.388918E-15	6.106639E-16
6.040000E+03	8.403345E-15	5.927037E-16
6.050000E+03	8.415285E-15	5.735507E-16
6.060000E+03	8.424514E-15	5.532178E-16
6.070000E+03	8.431121E-15	5.317454E-16
6.080000E+03	8.434946E-15	5.091644E-16
6.090000E+03	8.435819E-15	4.855149E-16
6.100000E+03	8.433559E-15	4.608475E-16
6.110000E+03	8.428214E-15	4.352389E-16
6.120000E+03	8.419505E-15	4.087641E-16
6.130000E+03	8.407391E-15	3.815314E-16
6.140000E+03	8.391671E-15	3.536680E-16
6.150000E+03	8.372157E-15	3.253383E-16
6.160000E+03	8.348916E-15	2.967655E-16
6.170000E+03	8.321805E-15	2.682342E-16
6.180000E+03	8.290880E-15	2.401384E-16
6.190000E+03	8.256083E-15	2.130253E-16
6.200000E+03	8.217496E-15	1.876853E-16
6.210000E+03	8.175428E-15	1.652649E-16
6.220000E+03	8.130022E-15	1.473514E-16
6.230000E+03	8.081658E-15	1.358735E-16
6.240000E+03	8.030720E-15	1.324822E-16
6.250000E+03	7.977783E-15	1.371586E-16
6.260000E+03	7.923550E-15	1.478494E-16
6.270000E+03	7.868716E-15	1.621430E-16
6.280000E+03	7.814106E-15	1.781019E-16
6.290000E+03	7.760583E-15	1.944033E-16
6.300000E+03	7.708958E-15	2.102045E-16
6.310000E+03	7.660282E-15	2.249922E-16
6.320000E+03	7.615287E-15	2.384521E-16
6.330000E+03	7.574912E-15	2.504093E-16
6.340000E+03	7.539900E-15	2.607697E-16
6.350000E+03	7.511091E-15	2.695006E-16
6.360000E+03	7.489102E-15	2.766015E-16
6.370000E+03	7.474621E-15	2.821020E-16
6.380000E+03	7.468090E-15	2.860433E-16
6.390000E+03	7.469924E-15	2.884822E-16
6.400000E+03	7.480427E-15	2.894867E-16
6.410000E+03	7.499790E-15	2.891369E-16
6.420000E+03	7.528001E-15	2.875259E-16
6.430000E+03	7.565080E-15	2.847749E-16
6.440000E+03	7.610681E-15	2.810275E-16
6.450000E+03	7.664571E-15	2.764807E-16
6.460000E+03	7.726142E-15	2.713815E-16
6.470000E+03	7.794821E-15	2.660601E-16
6.480000E+03	7.869829E-15	2.609381E-16
6.490000E+03	7.950352E-15	2.565471E-16
6.500000E+03	8.035379E-15	2.535233E-16
6.510000E+03	8.123794E-15	2.525872E-16
6.520000E+03	8.214299E-15	2.544856E-16
6.530000E+03	8.305793E-15	2.599107E-16
6.540000E+03	8.396892E-15	2.692084E-16
6.550000E+03	8.486428E-15	2.822577E-16
6.560000E+03	8.573052E-15	2.987250E-16
6.570000E+03	8.655537E-15	3.181587E-16
6.580000E+03	8.732715E-15	3.400512E-16
6.590000E+03	8.803610E-15	3.638925E-16
6.600000E+03	8.867162E-15	3.891879E-16
6.610000E+03	8.922550E-15	4.154860E-16
6.620000E+03	8.969110E-15	4.423807E-16
6.630000E+03	9.006452E-15	4.695182E-16
6.640000E+03	9.034154E-15	4.965800E-16
6.650000E+03	9.052071E-15	5.232952E-16
6.660000E+03	9.060227E-15	5.494337E-16
6.670000E+03	9.058913E-15	5.748101E-16
6.680000E+03	9.048240E-15	5.992545E-16
6.690000E+03	9.028767E-15	6.226498E-16
6.700000E+03	9.001047E-15	6.449024E-16
6.710000E+03	8.965721E-15	6.659467E-16
6.720000E+03	8.923489E-15	6.857415E-16
6.730000E+03	8.875093E-15	7.042676E-16
6.740000E+03	8.821189E-15	7.215160E-16
6.750000E+03	8.762761E-15	7.375195E-16
6.760000E+03	8.700244E-15	7.522804E-16
6.770000E+03	8.634692E-15	7.658650E-16
6.780000E+03	8.566486E-15	7.782929E-16
6.790000E+03	8.496493E-15	7.896359E-16
6.800000E+03	8.425318E-15	7.999513E-16
6.810000E+03	8.353306E-15	8.092783E-16
6.820000E+03	8.281165E-15	8.176963E-16
6.830000E+03	8.209230E-15	8.252540E-16
6.840000E+03	8.137889E-15	8.320082E-16
6.850000E+03	8.067473E-15	8.380134E-16
6.860000E+03	7.998260E-15	8.433205E-16
6.870000E+03	7.930380E-15	8.479660E-16
6.880000E+03	7.864218E-15	8.520148E-16
6.890000E+03	7.799616E-15	8.554735E-16
6.900000E+03	7.736975E-15	8.584095E-16
6.910000E+03	7.676067E-15	8.608208E-16
6.920000E+03	7.617129E-15	8.627559E-16
6.930000E+03	7.560074E-15	8.642267E-16
6.940000E+03	7.504890E-15	8.652523E-16
6.950000E+03	7.451643E-15	8.658599E-16
6.960000E+03	7.400092E-15	8.660399E-16
6.970000E+03	7.350274E-15	8.658138E-16
6.980000E+03	7.302023E-15	8.651781E-16
6.990000E+03	7.255451E-15	8.641611E-16
7.000000E+03	7.210192E-15	8.627331E-16
7.010000E+03	7.166347E-15	8.609191E-16
7.020000E+03	7.123829E-15	8.587206E-16
7.030000E+03	7.082363E-15	8.561156E-16
7.040000E+03	7.042050E-15	8.531262E-16
7.050000E+03	7.002618E-15	8.497292E-16
7.060000E+03	6.964174E-15	8.459459E-16
7.070000E+03	6.926454E-15	8.417523E-16
7.080000E+03	6.889476E-15	8.371581E-16
7.090000E+03	6.853078E-15	8.321503E-16
7.100000E+03	6.817285E-15	8.267384E-16
7.110000E+03	6.781942E-15	8.209094E-16
7.120000E+03	6.746989E-15	8.146618E-16
7.130000E+03	6.712459E-15	8.080046E-16
7.140000E+03	6.678117E-15	8.009143E-16
7.150000E+03	6.644001E-15	7.934001E-16
7.160000E+03	6.610058E-15	7.854604E-16
7.170000E+03	6.576239E-15	7.770934E-16
7.180000E+03	6.542406E-15	7.682867E-16
7.190000E+03	6.508511E-15	7.590390E-16
7.200000E+03	6.474593E-15	7.493591E-16
7.210000E+03	6.440518E-15	7.392350E-16
7.220000E+03	6.406236E-15	7.286653E-16
7.230000E+03	6.371788E-15	7.176586E-16
7.240000E+03	6.336949E-15	7.061940E-16
7.250000E+03	6.301758E-15	6.942803E-16
7.260000E+03	6.266080E-15	6.819075E-16
7.270000E+03	6.229952E-15	6.690849E-16
7.280000E+03	6.193239E-15	6.558034E-16
7.290000E+03	6.155979E-15	6.420731E-16
7.300000E+03	6.118037E-15	6.278862E-16
7.310000E+03	6.079367E-15	6.132451E-16
7.320000E+03	6.040009E-15	5.981616E-16
7.330000E+03	5.999749E-15	5.826228E-16
7.340000E+03	5.958632E-15	5.666429E-16
7.350000E+03	5.916538E-15	5.502208E-16
7.360000E+03	5.873605E-15	5.333809E-16
7.370000E+03	5.829642E-15	5.161178E-16
7.380000E+03	5.784631E-15	4.984443E-16
7.390000E+03	5.738651E-15	4.803823E-16
7.400000E+03	5.691706E-15	4.619486E-16
7.410000E+03	5.643731E-15	4.431562E-16
7.420000E+03	5.594760E-15	4.240282E-16
7.430000E+03	5.544923E-15	4.045968E-16
7.440000E+03	5.494289E-15	3.848911E-16
7.450000E+03	5.442863E-15	3.649386E-16
7.460000E+03	5.390914E-15	3.447876E-16
7.470000E+03	5.338490E-15	3.244746E-16
7.480000E+03	5.285741E-15	3.040476E-16
7.490000E+03	5.232839E-15	2.835616E-16
7.500000E+03	5.180053E-15	2.630846E-16
7.510000E+03	5.127440E-15	2.426845E-16
7.520000E+03	5.075378E-15	2.224611E-16
7.530000E+03	5.023954E-15	2.025233E-16
7.540000E+03	4.973491E-15	1.830252E-16
7.550000E+03	4.924237E-15	1.641691E-16
7.560000E+03	4.876435E-15	1.462367E-16
7.570000E+03	4.830394E-15	1.296317E-16
7.580000E+03	4.786180E-15	1.149246E-16
7.590000E+03	4.744200E-15	1.029140E-16
7.600000E+03	4.704463E-15	9.457644E-17
7.610000E+03	4.667087E-15	9.084647E-17
7.620000E+03	4.632286E-15	9.210445E-17
7.630000E+03	4.599942E-15	9.765339E-17
7.640000E+03	4.570176E-15	1.062879E-16
7.650000E+03	4.542923E-15	1.168523E-16
7.660000E+03	4.517938E-15	1.284541E-16
7.670000E+03	4.495295E-15	1.404814E-16
7.680000E+03	4.474684E-15	1.525159E-16
7.690000E+03	4.456054E-15	1.642853E-16
7.700000E+03	4.439054E-15	1.755958E-16
7.710000E+03	4.423597E-15	1.863214E-16
7.720000E+03	4.409379E-15	1.963652E-16
7.730000E+03	4.396158E-15	2.056579E-16
7.740000E+03	4.383832E-15	2.141535E-16
7.750000E+03	4.372018E-15	2.218052E-16
7.760000E+03	4.360480E-15	2.285812E-16
