#wls	flux	fluxerr
1.600000E+03	1.763879E-16	2.221235E-16
1.640000E+03	1.794234E-16	2.235993E-16
1.680000E+03	1.825037E-16	2.249886E-16
1.720000E+03	1.857434E-16	2.264255E-16
1.760000E+03	1.890261E-16	2.277587E-16
1.800000E+03	1.924664E-16	2.291186E-16
1.840000E+03	1.959477E-16	2.303568E-16
1.880000E+03	1.995850E-16	2.316001E-16
1.920000E+03	2.033193E-16	2.327694E-16
1.960000E+03	2.070923E-16	2.337892E-16
2.000000E+03	2.110188E-16	2.347804E-16
2.040000E+03	2.150403E-16	2.356665E-16
2.080000E+03	2.191564E-16	2.364371E-16
2.120000E+03	2.233668E-16	2.370816E-16
2.160000E+03	2.276714E-16	2.375899E-16
2.200000E+03	2.320704E-16	2.379517E-16
2.240000E+03	2.366218E-16	2.382148E-16
2.280000E+03	2.412112E-16	2.382522E-16
2.320000E+03	2.458973E-16	2.381134E-16
2.360000E+03	2.506818E-16	2.377889E-16
2.400000E+03	2.555669E-16	2.372696E-16
2.440000E+03	2.604979E-16	2.364945E-16
2.480000E+03	2.655357E-16	2.355099E-16
2.520000E+03	2.706845E-16	2.343077E-16
2.560000E+03	2.759491E-16	2.328802E-16
2.600000E+03	2.812783E-16	2.311733E-16
2.640000E+03	2.866791E-16	2.291843E-16
2.680000E+03	2.921596E-16	2.269107E-16
2.720000E+03	2.977291E-16	2.243507E-16
2.760000E+03	3.034552E-16	2.215448E-16
2.800000E+03	3.092358E-16	2.184073E-16
2.840000E+03	3.151414E-16	2.149809E-16
2.880000E+03	3.211299E-16	2.112278E-16
2.920000E+03	3.272751E-16	2.071886E-16
2.960000E+03	3.334812E-16	2.027944E-16
3.000000E+03	3.398824E-16	1.981210E-16
3.010000E+03	3.415068E-16	1.969039E-16
3.020000E+03	3.431416E-16	1.956676E-16
3.030000E+03	3.448444E-16	1.944444E-16
3.040000E+03	3.465010E-16	1.931694E-16
3.050000E+03	3.482264E-16	1.919070E-16
3.060000E+03	3.499638E-16	1.906249E-16
3.070000E+03	3.517136E-16	1.893233E-16
3.080000E+03	3.535335E-16	1.880328E-16
3.090000E+03	3.553667E-16	1.867222E-16
3.100000E+03	3.572135E-16	1.853916E-16
3.110000E+03	3.591320E-16	1.840706E-16
3.120000E+03	3.611228E-16	1.827583E-16
3.130000E+03	3.630712E-16	1.813962E-16
3.140000E+03	3.651505E-16	1.800706E-16
3.150000E+03	3.672460E-16	1.787235E-16
3.160000E+03	3.693583E-16	1.773550E-16
3.170000E+03	3.716035E-16	1.760199E-16
3.180000E+03	3.738668E-16	1.746622E-16
3.190000E+03	3.761485E-16	1.732820E-16
3.200000E+03	3.785654E-16	1.719322E-16
3.210000E+03	3.810022E-16	1.705588E-16
3.220000E+03	3.835756E-16	1.692132E-16
3.230000E+03	3.861704E-16	1.678428E-16
3.240000E+03	3.888454E-16	1.664730E-16
3.250000E+03	3.916014E-16	1.651026E-16
3.260000E+03	3.944977E-16	1.637552E-16
3.270000E+03	3.974185E-16	1.623811E-16
3.280000E+03	4.004814E-16	1.610275E-16
3.290000E+03	4.036292E-16	1.596695E-16
3.300000E+03	4.068627E-16	1.583061E-16
3.310000E+03	4.102418E-16	1.569593E-16
3.320000E+03	4.137089E-16	1.556050E-16
3.330000E+03	4.172649E-16	1.542425E-16
3.340000E+03	4.209702E-16	1.528926E-16
3.350000E+03	4.248260E-16	1.515537E-16
3.360000E+03	4.288340E-16	1.502240E-16
3.370000E+03	4.329361E-16	1.488816E-16
3.380000E+03	4.371932E-16	1.475459E-16
3.390000E+03	4.416067E-16	1.462156E-16
3.400000E+03	4.461187E-16	1.448697E-16
3.410000E+03	4.508502E-16	1.435460E-16
3.420000E+03	4.557433E-16	1.422235E-16
3.430000E+03	4.608599E-16	1.409193E-16
3.440000E+03	4.660817E-16	1.395951E-16
3.450000E+03	4.715311E-16	1.382864E-16
3.460000E+03	4.771498E-16	1.369738E-16
3.470000E+03	4.830005E-16	1.356734E-16
3.480000E+03	4.890858E-16	1.343837E-16
3.490000E+03	4.953471E-16	1.330865E-16
3.500000E+03	5.019090E-16	1.318137E-16
3.510000E+03	5.086519E-16	1.305315E-16
3.520000E+03	5.156397E-16	1.292552E-16
3.530000E+03	5.229368E-16	1.279990E-16
3.540000E+03	5.304229E-16	1.267319E-16
3.550000E+03	5.382244E-16	1.254832E-16
3.560000E+03	5.463449E-16	1.242518E-16
3.570000E+03	5.547256E-16	1.230233E-16
3.580000E+03	5.634321E-16	1.218114E-16
3.590000E+03	5.724054E-16	1.206029E-16
3.600000E+03	5.817744E-16	1.194246E-16
3.610000E+03	5.914174E-16	1.182511E-16
3.620000E+03	6.014008E-16	1.170965E-16
3.630000E+03	6.117283E-16	1.159623E-16
3.640000E+03	6.224038E-16	1.148504E-16
3.650000E+03	6.334947E-16	1.137746E-16
3.660000E+03	6.449413E-16	1.127255E-16
3.670000E+03	6.568112E-16	1.117175E-16
3.680000E+03	6.690438E-16	1.107429E-16
3.690000E+03	6.816420E-16	1.098058E-16
3.700000E+03	6.947385E-16	1.089313E-16
3.710000E+03	7.082062E-16	1.081029E-16
3.720000E+03	7.221123E-16	1.073357E-16
3.730000E+03	7.365240E-16	1.066440E-16
3.740000E+03	7.513106E-16	1.060136E-16
3.750000E+03	7.666035E-16	1.054683E-16
3.760000E+03	7.823352E-16	1.050034E-16
3.770000E+03	7.985689E-16	1.046321E-16
3.780000E+03	8.152331E-16	1.043494E-16
3.790000E+03	8.323874E-16	1.041670E-16
3.800000E+03	8.500225E-16	1.040867E-16
3.810000E+03	8.681935E-16	1.041176E-16
3.820000E+03	8.867493E-16	1.042428E-16
3.830000E+03	9.057377E-16	1.044690E-16
3.840000E+03	9.252032E-16	1.048006E-16
3.850000E+03	9.451177E-16	1.052324E-16
3.860000E+03	9.653798E-16	1.057501E-16
3.870000E+03	9.860887E-16	1.063608E-16
3.880000E+03	1.007064E-15	1.070397E-16
3.890000E+03	1.028324E-15	1.077833E-16
3.900000E+03	1.049887E-15	1.085867E-16
3.910000E+03	1.071623E-15	1.094292E-16
3.920000E+03	1.093539E-15	1.103039E-16
3.930000E+03	1.115497E-15	1.111891E-16
3.940000E+03	1.137567E-15	1.120837E-16
3.950000E+03	1.159604E-15	1.129655E-16
3.960000E+03	1.181464E-15	1.138128E-16
3.970000E+03	1.203279E-15	1.146312E-16
3.980000E+03	1.224834E-15	1.153930E-16
3.990000E+03	1.246126E-15	1.160915E-16
4.000000E+03	1.267015E-15	1.167079E-16
4.010000E+03	1.287571E-15	1.172435E-16
4.020000E+03	1.307734E-15	1.176882E-16
4.030000E+03	1.327313E-15	1.180207E-16
4.040000E+03	1.346469E-15	1.182521E-16
4.050000E+03	1.365028E-15	1.183645E-16
4.060000E+03	1.383035E-15	1.183598E-16
4.070000E+03	1.400542E-15	1.182409E-16
4.080000E+03	1.417481E-15	1.180011E-16
4.090000E+03	1.433864E-15	1.176411E-16
4.100000E+03	1.449843E-15	1.171736E-16
4.110000E+03	1.465326E-15	1.165916E-16
4.120000E+03	1.480426E-15	1.159050E-16
4.130000E+03	1.495265E-15	1.151246E-16
4.140000E+03	1.509851E-15	1.142525E-16
4.150000E+03	1.524265E-15	1.132966E-16
4.160000E+03	1.538715E-15	1.122745E-16
4.170000E+03	1.553175E-15	1.111861E-16
4.180000E+03	1.567804E-15	1.100454E-16
4.190000E+03	1.582763E-15	1.088661E-16
4.200000E+03	1.598095E-15	1.076540E-16
4.210000E+03	1.613960E-15	1.064231E-16
4.220000E+03	1.630400E-15	1.051801E-16
4.230000E+03	1.647569E-15	1.039396E-16
4.240000E+03	1.665555E-15	1.027128E-16
4.250000E+03	1.684386E-15	1.015085E-16
4.260000E+03	1.704247E-15	1.003467E-16
4.270000E+03	1.725148E-15	9.923879E-17
4.280000E+03	1.747144E-15	9.820146E-17
4.290000E+03	1.770281E-15	9.725388E-17
4.300000E+03	1.794645E-15	9.642086E-17
4.310000E+03	1.820207E-15	9.572468E-17
4.320000E+03	1.846933E-15	9.519146E-17
4.330000E+03	1.874932E-15	9.485885E-17
4.340000E+03	1.904156E-15	9.475967E-17
4.350000E+03	1.934605E-15	9.493195E-17
4.360000E+03	1.966282E-15	9.541493E-17
4.370000E+03	1.999146E-15	9.624470E-17
4.380000E+03	2.033277E-15	9.745903E-17
4.390000E+03	2.068626E-15	9.908240E-17
4.400000E+03	2.105376E-15	1.011406E-16
4.410000E+03	2.143546E-15	1.036407E-16
4.420000E+03	2.183326E-15	1.065891E-16
4.430000E+03	2.224779E-15	1.099784E-16
4.440000E+03	2.268071E-15	1.138016E-16
4.450000E+03	2.313366E-15	1.180492E-16
4.460000E+03	2.360816E-15	1.227100E-16
4.470000E+03	2.410450E-15	1.277670E-16
4.480000E+03	2.462416E-15	1.332100E-16
4.490000E+03	2.516670E-15	1.390205E-16
4.500000E+03	2.573271E-15	1.451867E-16
4.510000E+03	2.632070E-15	1.516865E-16
4.520000E+03	2.692955E-15	1.585010E-16
4.530000E+03	2.755749E-15	1.656078E-16
4.540000E+03	2.820104E-15	1.729741E-16
4.550000E+03	2.885754E-15	1.805718E-16
4.560000E+03	2.952215E-15	1.883583E-16
4.570000E+03	3.019100E-15	1.962954E-16
4.580000E+03	3.085763E-15	2.043270E-16
4.590000E+03	3.151730E-15	2.124062E-16
4.600000E+03	3.216402E-15	2.204760E-16
4.610000E+03	3.279178E-15	2.284779E-16
4.620000E+03	3.339473E-15	2.363526E-16
4.630000E+03	3.396743E-15	2.440426E-16
4.640000E+03	3.450500E-15	2.514937E-16
4.650000E+03	3.500444E-15	2.586646E-16
4.660000E+03	3.546156E-15	2.655054E-16
4.670000E+03	3.587538E-15	2.719904E-16
4.680000E+03	3.624450E-15	2.780913E-16
4.690000E+03	3.656975E-15	2.837980E-16
4.700000E+03	3.685211E-15	2.891028E-16
4.710000E+03	3.709469E-15	2.940158E-16
4.720000E+03	3.730153E-15	2.985568E-16
4.730000E+03	3.747642E-15	3.027449E-16
4.740000E+03	3.762424E-15	3.066098E-16
4.750000E+03	3.775070E-15	3.101900E-16
4.760000E+03	3.786059E-15	3.135182E-16
4.770000E+03	3.796005E-15	3.166397E-16
4.780000E+03	3.805335E-15	3.195863E-16
4.790000E+03	3.814471E-15	3.223905E-16
4.800000E+03	3.823814E-15	3.250841E-16
4.810000E+03	3.833580E-15	3.276848E-16
4.820000E+03	3.844043E-15	3.302157E-16
4.830000E+03	3.855281E-15	3.326839E-16
4.840000E+03	3.867277E-15	3.350892E-16
4.850000E+03	3.879924E-15	3.374235E-16
4.860000E+03	3.893074E-15	3.396753E-16
4.870000E+03	3.906504E-15	3.418268E-16
4.880000E+03	3.919876E-15	3.438502E-16
4.890000E+03	3.932852E-15	3.457170E-16
4.900000E+03	3.945009E-15	3.473915E-16
4.910000E+03	3.955998E-15	3.488437E-16
4.920000E+03	3.965376E-15	3.500354E-16
4.930000E+03	3.972757E-15	3.509331E-16
4.940000E+03	3.977790E-15	3.515056E-16
4.950000E+03	3.980166E-15	3.517258E-16
4.960000E+03	3.979682E-15	3.515754E-16
4.970000E+03	3.976070E-15	3.510304E-16
4.980000E+03	3.969279E-15	3.500860E-16
4.990000E+03	3.959343E-15	3.487450E-16
5.000000E+03	3.946342E-15	3.470146E-16
5.010000E+03	3.930404E-15	3.449064E-16
5.020000E+03	3.911875E-15	3.424517E-16
5.030000E+03	3.891054E-15	3.396780E-16
5.040000E+03	3.868397E-15	3.366272E-16
5.050000E+03	3.844418E-15	3.333467E-16
5.060000E+03	3.819637E-15	3.298845E-16
5.070000E+03	3.794601E-15	3.262914E-16
5.080000E+03	3.769873E-15	3.226196E-16
5.090000E+03	3.746131E-15	3.189309E-16
5.100000E+03	3.723834E-15	3.152683E-16
5.110000E+03	3.703571E-15	3.116850E-16
5.120000E+03	3.685805E-15	3.082232E-16
5.130000E+03	3.670989E-15	3.049232E-16
5.140000E+03	3.659519E-15	3.018195E-16
5.150000E+03	3.651691E-15	2.989376E-16
5.160000E+03	3.647783E-15	2.963001E-16
5.170000E+03	3.648009E-15	2.939241E-16
5.180000E+03	3.652529E-15	2.918208E-16
5.190000E+03	3.661377E-15	2.899909E-16
5.200000E+03	3.674688E-15	2.884427E-16
5.210000E+03	3.692441E-15	2.871717E-16
5.220000E+03	3.714576E-15	2.861702E-16
5.230000E+03	3.741035E-15	2.854310E-16
5.240000E+03	3.771728E-15	2.849449E-16
5.250000E+03	3.806573E-15	2.847036E-16
5.260000E+03	3.845344E-15	2.846892E-16
5.270000E+03	3.887863E-15	2.848885E-16
5.280000E+03	3.933968E-15	2.852906E-16
5.290000E+03	3.983387E-15	2.858786E-16
5.300000E+03	4.035864E-15	2.866380E-16
5.310000E+03	4.091073E-15	2.875514E-16
5.320000E+03	4.148744E-15	2.886075E-16
5.330000E+03	4.208495E-15	2.897891E-16
5.340000E+03	4.270005E-15	2.910852E-16
5.350000E+03	4.332795E-15	2.924762E-16
5.360000E+03	4.396446E-15	2.939488E-16
5.370000E+03	4.460562E-15	2.954932E-16
5.380000E+03	4.524635E-15	2.970943E-16
5.390000E+03	4.588183E-15	2.987407E-16
5.400000E+03	4.650661E-15	3.004184E-16
5.410000E+03	4.711610E-15	3.021209E-16
5.420000E+03	4.770416E-15	3.038329E-16
5.430000E+03	4.826661E-15	3.055525E-16
5.440000E+03	4.879736E-15	3.072661E-16
5.450000E+03	4.929140E-15	3.089664E-16
5.460000E+03	4.974391E-15	3.106463E-16
5.470000E+03	5.015037E-15	3.122982E-16
5.480000E+03	5.050657E-15	3.139134E-16
5.490000E+03	5.080876E-15	3.154812E-16
5.500000E+03	5.105266E-15	3.169823E-16
5.510000E+03	5.123669E-15	3.184078E-16
5.520000E+03	5.135689E-15	3.197283E-16
5.530000E+03	5.141324E-15	3.209328E-16
5.540000E+03	5.140455E-15	3.219989E-16
5.550000E+03	5.133167E-15	3.229126E-16
5.560000E+03	5.119543E-15	3.236569E-16
5.570000E+03	5.099875E-15	3.242255E-16
5.580000E+03	5.074404E-15	3.246074E-16
5.590000E+03	5.043620E-15	3.248065E-16
5.600000E+03	5.008002E-15	3.248261E-16
5.610000E+03	4.968113E-15	3.246751E-16
5.620000E+03	4.924730E-15	3.243775E-16
5.630000E+03	4.878450E-15	3.239472E-16
5.640000E+03	4.830111E-15	3.234157E-16
5.650000E+03	4.780545E-15	3.228167E-16
5.660000E+03	4.730524E-15	3.221826E-16
5.670000E+03	4.680985E-15	3.215594E-16
5.680000E+03	4.632745E-15	3.209885E-16
5.690000E+03	4.586766E-15	3.205240E-16
5.700000E+03	4.543878E-15	3.202144E-16
5.710000E+03	4.505030E-15	3.201192E-16
5.720000E+03	4.471064E-15	3.202935E-16
5.730000E+03	4.442743E-15	3.207895E-16
5.740000E+03	4.420906E-15	3.216669E-16
5.750000E+03	4.406237E-15	3.229768E-16
5.760000E+03	4.399299E-15	3.247626E-16
5.770000E+03	4.400712E-15	3.270730E-16
5.780000E+03	4.410739E-15	3.299311E-16
5.790000E+03	4.429746E-15	3.333677E-16
5.800000E+03	4.457791E-15	3.373903E-16
5.810000E+03	4.494811E-15	3.419965E-16
5.820000E+03	4.540611E-15	3.471724E-16
5.830000E+03	4.594734E-15	3.528835E-16
5.840000E+03	4.656663E-15	3.590885E-16
5.850000E+03	4.725537E-15	3.657184E-16
5.860000E+03	4.800443E-15	3.726985E-16
5.870000E+03	4.880308E-15	3.799403E-16
5.880000E+03	4.963838E-15	3.873373E-16
5.890000E+03	5.049668E-15	3.947767E-16
5.900000E+03	5.136358E-15	4.021394E-16
5.910000E+03	5.222481E-15	4.093078E-16
5.920000E+03	5.306532E-15	4.161588E-16
5.930000E+03	5.387112E-15	4.225785E-16
5.940000E+03	5.462975E-15	4.284665E-16
5.950000E+03	5.532889E-15	4.337251E-16
5.960000E+03	5.595994E-15	4.382873E-16
5.970000E+03	5.651463E-15	4.420902E-16
5.980000E+03	5.698841E-15	4.451013E-16
5.990000E+03	5.737865E-15	4.473046E-16
6.000000E+03	5.768458E-15	4.486991E-16
6.010000E+03	5.790805E-15	4.493048E-16
6.020000E+03	5.805326E-15	4.491601E-16
6.030000E+03	5.812451E-15	4.483042E-16
6.040000E+03	5.812870E-15	4.467958E-16
6.050000E+03	5.807295E-15	4.446946E-16
6.060000E+03	5.796427E-15	4.420591E-16
6.070000E+03	5.781055E-15	4.389534E-16
6.080000E+03	5.761789E-15	4.354271E-16
6.090000E+03	5.739311E-15	4.315349E-16
6.100000E+03	5.714214E-15	4.273233E-16
6.110000E+03	5.686799E-15	4.228169E-16
6.120000E+03	5.657529E-15	4.180514E-16
6.130000E+03	5.626520E-15	4.130362E-16
6.140000E+03	5.593909E-15	4.077820E-16
6.150000E+03	5.559634E-15	4.022845E-16
6.160000E+03	5.523671E-15	3.965420E-16
6.170000E+03	5.485740E-15	3.905343E-16
6.180000E+03	5.445717E-15	3.842528E-16
6.190000E+03	5.403222E-15	3.776709E-16
6.200000E+03	5.358033E-15	3.707739E-16
6.210000E+03	5.309851E-15	3.635428E-16
6.220000E+03	5.258542E-15	3.559709E-16
6.230000E+03	5.203863E-15	3.480455E-16
6.240000E+03	5.145833E-15	3.397725E-16
6.250000E+03	5.084496E-15	3.311606E-16
6.260000E+03	5.020158E-15	3.222363E-16
6.270000E+03	4.953112E-15	3.130252E-16
6.280000E+03	4.883978E-15	3.035733E-16
6.290000E+03	4.813499E-15	2.939328E-16
6.300000E+03	4.742549E-15	2.841610E-16
6.310000E+03	4.672231E-15	2.743259E-16
6.320000E+03	4.603673E-15	2.644915E-16
6.330000E+03	4.538268E-15	2.547320E-16
6.340000E+03	4.477419E-15	2.451142E-16
6.350000E+03	4.422546E-15	2.356981E-16
6.360000E+03	4.375131E-15	2.265386E-16
6.370000E+03	4.336644E-15	2.176803E-16
6.380000E+03	4.308514E-15	2.091569E-16
6.390000E+03	4.292134E-15	2.009912E-16
6.400000E+03	4.288688E-15	1.931890E-16
6.410000E+03	4.299345E-15	1.857505E-16
6.420000E+03	4.325078E-15	1.786663E-16
6.430000E+03	4.366603E-15	1.719212E-16
6.440000E+03	4.424528E-15	1.655097E-16
6.450000E+03	4.499131E-15	1.594393E-16
6.460000E+03	4.590433E-15	1.537502E-16
6.470000E+03	4.698032E-15	1.485310E-16
6.480000E+03	4.821261E-15	1.439482E-16
6.490000E+03	4.958891E-15	1.402592E-16
6.500000E+03	5.109256E-15	1.378291E-16
6.510000E+03	5.270129E-15	1.371104E-16
6.520000E+03	5.438753E-15	1.385828E-16
6.530000E+03	5.611954E-15	1.426481E-16
6.540000E+03	5.785889E-15	1.495046E-16
6.550000E+03	5.956553E-15	1.590926E-16
6.560000E+03	6.119606E-15	1.711056E-16
6.570000E+03	6.270595E-15	1.850663E-16
6.580000E+03	6.405341E-15	2.004169E-16
6.590000E+03	6.519987E-15	2.165802E-16
6.600000E+03	6.611322E-15	2.330054E-16
6.610000E+03	6.676708E-15	2.491858E-16
6.620000E+03	6.714647E-15	2.646895E-16
6.630000E+03	6.724337E-15	2.791498E-16
6.640000E+03	6.706194E-15	2.922907E-16
6.650000E+03	6.661325E-15	3.039095E-16
6.660000E+03	6.591685E-15	3.138851E-16
6.670000E+03	6.499848E-15	3.221693E-16
6.680000E+03	6.388837E-15	3.287783E-16
6.690000E+03	6.261876E-15	3.337789E-16
6.700000E+03	6.122412E-15	3.372867E-16
6.710000E+03	5.973766E-15	3.394441E-16
6.720000E+03	5.819022E-15	3.404093E-16
6.730000E+03	5.661055E-15	3.403528E-16
6.740000E+03	5.502465E-15	3.394493E-16
6.750000E+03	5.345322E-15	3.378570E-16
6.760000E+03	5.191499E-15	3.357338E-16
6.770000E+03	5.042405E-15	3.332167E-16
6.780000E+03	4.899222E-15	3.304336E-16
6.790000E+03	4.762732E-15	3.274891E-16
6.800000E+03	4.633511E-15	3.244750E-16
6.810000E+03	4.511913E-15	3.214674E-16
6.820000E+03	4.398112E-15	3.185285E-16
6.830000E+03	4.292133E-15	3.157074E-16
6.840000E+03	4.193842E-15	3.130387E-16
6.850000E+03	4.103062E-15	3.105509E-16
6.860000E+03	4.019553E-15	3.082641E-16
6.870000E+03	3.943028E-15	3.061914E-16
6.880000E+03	3.873167E-15	3.043403E-16
6.890000E+03	3.809591E-15	3.027101E-16
6.900000E+03	3.751991E-15	3.013030E-16
6.910000E+03	3.699975E-15	3.001111E-16
6.920000E+03	3.653191E-15	2.991273E-16
6.930000E+03	3.611292E-15	2.983423E-16
6.940000E+03	3.573936E-15	2.977449E-16
6.950000E+03	3.540791E-15	2.973228E-16
6.960000E+03	3.511494E-15	2.970589E-16
6.970000E+03	3.485774E-15	2.969420E-16
6.980000E+03	3.463291E-15	2.969540E-16
6.990000E+03	3.443759E-15	2.970795E-16
7.000000E+03	3.426907E-15	2.973033E-16
7.010000E+03	3.412479E-15	2.976104E-16
7.020000E+03	3.400200E-15	2.979831E-16
7.030000E+03	3.389887E-15	2.984112E-16
7.040000E+03	3.381344E-15	2.988821E-16
7.050000E+03	3.374352E-15	2.993809E-16
7.060000E+03	3.368755E-15	2.998976E-16
7.070000E+03	3.364415E-15	3.004232E-16
7.080000E+03	3.361252E-15	3.009538E-16
7.090000E+03	3.359088E-15	3.014761E-16
7.100000E+03	3.357839E-15	3.019848E-16
7.110000E+03	3.357508E-15	3.024826E-16
7.120000E+03	3.357954E-15	3.029585E-16
7.130000E+03	3.359118E-15	3.034091E-16
7.140000E+03	3.360942E-15	3.038308E-16
7.150000E+03	3.363406E-15	3.042234E-16
7.160000E+03	3.366406E-15	3.045789E-16
7.170000E+03	3.369829E-15	3.048885E-16
7.180000E+03	3.373631E-15	3.051494E-16
7.190000E+03	3.377713E-15	3.053543E-16
7.200000E+03	3.381963E-15	3.054945E-16
7.210000E+03	3.386214E-15	3.055564E-16
7.220000E+03	3.390325E-15	3.055290E-16
7.230000E+03	3.394182E-15	3.054040E-16
7.240000E+03	3.397538E-15	3.051613E-16
7.250000E+03	3.400301E-15	3.047948E-16
7.260000E+03	3.402209E-15	3.042840E-16
7.270000E+03	3.403123E-15	3.036193E-16
7.280000E+03	3.402865E-15	3.027883E-16
7.290000E+03	3.401224E-15	3.017758E-16
7.300000E+03	3.398082E-15	3.005756E-16
7.310000E+03	3.393211E-15	2.991721E-16
7.320000E+03	3.386573E-15	2.975666E-16
7.330000E+03	3.378024E-15	2.957519E-16
7.340000E+03	3.367450E-15	2.937233E-16
7.350000E+03	3.354845E-15	2.914863E-16
7.360000E+03	3.340153E-15	2.890418E-16
7.370000E+03	3.323428E-15	2.864008E-16
7.380000E+03	3.304634E-15	2.835662E-16
7.390000E+03	3.283926E-15	2.805576E-16
7.400000E+03	3.261325E-15	2.773826E-16
7.410000E+03	3.236961E-15	2.740582E-16
7.420000E+03	3.211027E-15	2.706062E-16
7.430000E+03	3.183698E-15	2.670465E-16
7.440000E+03	3.155091E-15	2.633933E-16
7.450000E+03	3.125457E-15	2.596719E-16
7.460000E+03	3.095026E-15	2.559046E-16
7.470000E+03	3.064037E-15	2.521137E-16
7.480000E+03	3.032702E-15	2.483186E-16
7.490000E+03	3.001316E-15	2.445443E-16
7.500000E+03	2.970142E-15	2.408121E-16
7.510000E+03	2.939439E-15	2.371423E-16
7.520000E+03	2.909466E-15	2.335538E-16
7.530000E+03	2.880513E-15	2.300670E-16
7.540000E+03	2.852820E-15	2.266973E-16
7.550000E+03	2.826614E-15	2.234583E-16
7.560000E+03	2.802105E-15	2.203612E-16
7.570000E+03	2.779481E-15	2.174148E-16
7.580000E+03	2.758944E-15	2.146283E-16
7.590000E+03	2.740631E-15	2.120053E-16
7.600000E+03	2.724652E-15	2.095468E-16
7.610000E+03	2.711121E-15	2.072538E-16
7.620000E+03	2.700051E-15	2.051192E-16
7.630000E+03	2.691456E-15	2.031358E-16
7.640000E+03	2.685391E-15	2.012992E-16
7.650000E+03	2.681768E-15	1.995942E-16
7.660000E+03	2.680505E-15	1.980059E-16
7.670000E+03	2.681488E-15	1.965169E-16
7.680000E+03	2.684609E-15	1.951101E-16
7.690000E+03	2.689696E-15	1.937640E-16
7.700000E+03	2.696516E-15	1.924522E-16
7.710000E+03	2.704884E-15	1.911526E-16
7.720000E+03	2.714601E-15	1.898416E-16
7.730000E+03	2.725377E-15	1.884897E-16
7.740000E+03	2.736952E-15	1.870702E-16
7.750000E+03	2.749101E-15	1.855587E-16
7.760000E+03	2.761524E-15	1.839268E-16
