#wls	flux	fluxerr
1.600000E+03	4.414155E-17	5.777213E-17
1.640000E+03	4.510573E-17	5.852131E-17
1.680000E+03	4.611610E-17	5.929453E-17
1.720000E+03	4.714545E-17	6.005440E-17
1.760000E+03	4.822333E-17	6.083644E-17
1.800000E+03	4.933671E-17	6.162144E-17
1.840000E+03	5.048683E-17	6.240839E-17
1.880000E+03	5.168975E-17	6.321431E-17
1.920000E+03	5.293234E-17	6.401995E-17
1.960000E+03	5.423112E-17	6.484213E-17
2.000000E+03	5.557290E-17	6.566157E-17
2.040000E+03	5.697469E-17	6.649491E-17
2.080000E+03	5.843873E-17	6.734070E-17
2.120000E+03	5.995180E-17	6.817962E-17
2.160000E+03	6.153175E-17	6.902799E-17
2.200000E+03	6.318130E-17	6.988415E-17
2.240000E+03	6.490336E-17	7.074637E-17
2.280000E+03	6.670102E-17	7.161289E-17
2.320000E+03	6.857761E-17	7.248183E-17
2.360000E+03	7.053669E-17	7.335131E-17
2.400000E+03	7.259889E-17	7.423650E-17
2.440000E+03	7.475189E-17	7.511801E-17
2.480000E+03	7.700013E-17	7.599374E-17
2.520000E+03	7.936575E-17	7.687836E-17
2.560000E+03	8.185449E-17	7.776933E-17
2.600000E+03	8.445472E-17	7.864740E-17
2.640000E+03	8.720849E-17	7.954322E-17
2.680000E+03	9.008705E-17	8.042097E-17
2.720000E+03	9.313440E-17	8.131065E-17
2.760000E+03	9.634072E-17	8.219295E-17
2.800000E+03	9.973394E-17	8.308089E-17
2.840000E+03	1.033244E-16	8.397113E-17
2.880000E+03	1.071035E-16	8.484471E-17
2.920000E+03	1.111221E-16	8.572957E-17
2.960000E+03	1.153532E-16	8.659137E-17
3.000000E+03	1.198713E-16	8.747245E-17
3.010000E+03	1.210384E-16	8.768865E-17
3.020000E+03	1.222170E-16	8.790014E-17
3.030000E+03	1.234279E-16	8.812182E-17
3.040000E+03	1.246297E-16	8.832379E-17
3.050000E+03	1.258855E-16	8.855065E-17
3.060000E+03	1.271325E-16	8.875778E-17
3.070000E+03	1.284132E-16	8.897474E-17
3.080000E+03	1.297066E-16	8.918672E-17
3.090000E+03	1.310344E-16	8.940832E-17
3.100000E+03	1.323540E-16	8.961022E-17
3.110000E+03	1.337302E-16	8.983615E-17
3.120000E+03	1.350986E-16	9.004235E-17
3.130000E+03	1.365027E-16	9.025782E-17
3.140000E+03	1.379211E-16	9.046802E-17
3.150000E+03	1.393539E-16	9.067294E-17
3.160000E+03	1.408236E-16	9.088683E-17
3.170000E+03	1.423084E-16	9.109531E-17
3.180000E+03	1.438308E-16	9.131254E-17
3.190000E+03	1.453689E-16	9.152422E-17
3.200000E+03	1.469229E-16	9.173033E-17
3.210000E+03	1.484930E-16	9.193086E-17
3.220000E+03	1.501022E-16	9.213977E-17
3.230000E+03	1.517281E-16	9.234296E-17
3.240000E+03	1.533939E-16	9.255429E-17
3.250000E+03	1.550771E-16	9.275974E-17
3.260000E+03	1.567778E-16	9.295931E-17
3.270000E+03	1.585196E-16	9.316668E-17
3.280000E+03	1.602796E-16	9.336799E-17
3.290000E+03	1.620816E-16	9.357685E-17
3.300000E+03	1.639023E-16	9.377948E-17
3.310000E+03	1.657421E-16	9.397586E-17
3.320000E+03	1.676249E-16	9.417940E-17
3.330000E+03	1.695273E-16	9.437650E-17
3.340000E+03	1.714495E-16	9.456710E-17
3.350000E+03	1.734159E-16	9.476444E-17
3.360000E+03	1.754272E-16	9.496831E-17
3.370000E+03	1.774345E-16	9.515211E-17
3.380000E+03	1.795119E-16	9.535531E-17
3.390000E+03	1.815858E-16	9.553830E-17
3.400000E+03	1.837057E-16	9.572718E-17
3.410000E+03	1.858723E-16	9.592169E-17
3.420000E+03	1.880608E-16	9.610867E-17
3.430000E+03	1.902712E-16	9.628799E-17
3.440000E+03	1.925292E-16	9.647233E-17
3.450000E+03	1.948096E-16	9.664865E-17
3.460000E+03	1.971124E-16	9.681681E-17
3.470000E+03	1.994635E-16	9.698926E-17
3.480000E+03	2.018635E-16	9.716565E-17
3.490000E+03	2.042864E-16	9.733312E-17
3.500000E+03	2.067323E-16	9.749148E-17
3.510000E+03	2.092276E-16	9.765288E-17
3.520000E+03	2.117726E-16	9.781691E-17
3.530000E+03	2.143410E-16	9.797087E-17
3.540000E+03	2.169324E-16	9.811448E-17
3.550000E+03	2.195740E-16	9.825960E-17
3.560000E+03	2.222386E-16	9.839363E-17
3.570000E+03	2.249534E-16	9.852826E-17
3.580000E+03	2.276912E-16	9.865098E-17
3.590000E+03	2.304793E-16	9.877328E-17
3.600000E+03	2.332899E-16	9.888275E-17
3.610000E+03	2.361508E-16	9.899069E-17
3.620000E+03	2.390338E-16	9.908476E-17
3.630000E+03	2.419385E-16	9.916445E-17
3.640000E+03	2.449213E-16	9.925235E-17
3.650000E+03	2.478968E-16	9.931304E-17
3.660000E+03	2.509504E-16	9.938038E-17
3.670000E+03	2.539954E-16	9.941931E-17
3.680000E+03	2.570891E-16	9.945193E-17
3.690000E+03	2.602312E-16	9.947734E-17
3.700000E+03	2.633919E-16	9.948350E-17
3.710000E+03	2.666002E-16	9.948069E-17
3.720000E+03	2.698260E-16	9.945695E-17
3.730000E+03	2.730982E-16	9.942235E-17
3.740000E+03	2.764165E-16	9.937581E-17
3.750000E+03	2.797200E-16	9.929477E-17
3.760000E+03	2.830983E-16	9.921049E-17
3.770000E+03	2.864903E-16	9.910042E-17
3.780000E+03	2.898950E-16	9.896358E-17
3.790000E+03	2.933421E-16	9.880938E-17
3.800000E+03	2.968309E-16	9.863651E-17
3.810000E+03	3.003297E-16	9.843345E-17
3.820000E+03	3.038373E-16	9.819912E-17
3.830000E+03	3.073838E-16	9.794244E-17
3.840000E+03	3.109686E-16	9.766199E-17
3.850000E+03	3.145592E-16	9.734652E-17
3.860000E+03	3.181860E-16	9.700457E-17
3.870000E+03	3.218164E-16	9.662505E-17
3.880000E+03	3.254811E-16	9.621626E-17
3.890000E+03	3.291470E-16	9.576727E-17
3.900000E+03	3.328453E-16	9.528615E-17
3.910000E+03	3.365425E-16	9.476215E-17
3.920000E+03	3.402700E-16	9.420308E-17
3.930000E+03	3.440270E-16	9.360736E-17
3.940000E+03	3.477796E-16	9.296455E-17
3.950000E+03	3.515264E-16	9.227341E-17
3.960000E+03	3.552996E-16	9.154124E-17
3.970000E+03	3.590980E-16	9.076641E-17
3.980000E+03	3.628876E-16	8.993899E-17
3.990000E+03	3.667004E-16	8.906589E-17
4.000000E+03	3.705020E-16	8.813745E-17
4.010000E+03	3.743249E-16	8.716033E-17
4.020000E+03	3.781342E-16	8.612517E-17
4.030000E+03	3.819628E-16	8.503834E-17
4.040000E+03	3.857755E-16	8.389080E-17
4.050000E+03	3.896052E-16	8.268865E-17
4.060000E+03	3.934167E-16	8.142319E-17
4.070000E+03	3.972429E-16	8.010024E-17
4.080000E+03	4.010827E-16	7.871823E-17
4.090000E+03	4.049004E-16	7.726902E-17
4.100000E+03	4.086943E-16	7.575158E-17
4.110000E+03	4.124977E-16	7.417121E-17
4.120000E+03	4.162742E-16	7.252038E-17
4.130000E+03	4.200570E-16	7.080414E-17
4.140000E+03	4.238442E-16	6.902113E-17
4.150000E+03	4.275991E-16	6.716460E-17
4.160000E+03	4.313546E-16	6.523924E-17
4.170000E+03	4.350733E-16	6.323886E-17
4.180000E+03	4.387529E-16	6.116312E-17
4.190000E+03	4.424260E-16	5.901653E-17
4.200000E+03	4.460548E-16	5.679401E-17
4.210000E+03	4.496718E-16	5.450011E-17
4.220000E+03	4.532744E-16	5.213475E-17
4.230000E+03	4.568244E-16	4.969436E-17
4.240000E+03	4.603189E-16	4.718033E-17
4.250000E+03	4.637907E-16	4.459808E-17
4.260000E+03	4.672019E-16	4.194651E-17
4.270000E+03	4.705859E-16	3.923238E-17
4.280000E+03	4.739055E-16	3.645745E-17
4.290000E+03	4.771953E-16	3.363141E-17
4.300000E+03	4.804197E-16	3.076133E-17
4.310000E+03	4.835798E-16	2.786156E-17
4.320000E+03	4.867136E-16	2.495511E-17
4.330000E+03	4.897897E-16	2.207196E-17
4.340000E+03	4.928497E-16	1.926457E-17
4.350000E+03	4.958665E-16	1.661493E-17
4.360000E+03	4.988854E-16	1.426386E-17
4.370000E+03	5.018823E-16	1.243519E-17
4.380000E+03	5.048675E-16	1.143533E-17
4.390000E+03	5.078828E-16	1.152406E-17
4.400000E+03	5.108929E-16	1.270226E-17
4.410000E+03	5.138915E-16	1.472026E-17
4.420000E+03	5.169033E-16	1.728732E-17
4.430000E+03	5.198810E-16	2.018854E-17
4.440000E+03	5.228488E-16	2.329152E-17
4.450000E+03	5.257617E-16	2.651355E-17
4.460000E+03	5.286120E-16	2.980371E-17
4.470000E+03	5.313940E-16	3.312880E-17
4.480000E+03	5.341384E-16	3.646849E-17
4.490000E+03	5.368073E-16	3.980453E-17
4.500000E+03	5.393993E-16	4.312477E-17
4.510000E+03	5.419490E-16	4.642278E-17
4.520000E+03	5.444216E-16	4.968847E-17
4.530000E+03	5.468184E-16	5.291570E-17
4.540000E+03	5.491758E-16	5.610289E-17
4.550000E+03	5.514264E-16	5.923879E-17
4.560000E+03	5.536421E-16	6.232693E-17
4.570000E+03	5.558253E-16	6.536456E-17
4.580000E+03	5.579100E-16	6.834092E-17
4.590000E+03	5.599680E-16	7.126176E-17
4.600000E+03	5.619338E-16	7.411631E-17
4.610000E+03	5.638791E-16	7.691150E-17
4.620000E+03	5.658069E-16	7.964603E-17
4.630000E+03	5.676523E-16	8.230892E-17
4.640000E+03	5.694866E-16	8.490852E-17
4.650000E+03	5.712451E-16	8.743368E-17
4.660000E+03	5.729988E-16	8.989355E-17
4.670000E+03	5.747171E-16	9.228218E-17
4.680000E+03	5.764033E-16	9.459875E-17
4.690000E+03	5.780940E-16	9.684818E-17
4.700000E+03	5.797257E-16	9.901882E-17
4.710000E+03	5.813352E-16	1.011157E-16
4.720000E+03	5.829588E-16	1.031442E-16
4.730000E+03	5.845666E-16	1.050984E-16
4.740000E+03	5.861292E-16	1.069721E-16
4.750000E+03	5.877157E-16	1.087770E-16
4.760000E+03	5.892966E-16	1.105071E-16
4.770000E+03	5.908755E-16	1.121624E-16
4.780000E+03	5.924233E-16	1.137366E-16
4.790000E+03	5.940085E-16	1.152423E-16
4.800000E+03	5.956022E-16	1.166734E-16
4.810000E+03	5.972080E-16	1.180301E-16
4.820000E+03	5.988296E-16	1.193125E-16
4.830000E+03	6.004706E-16	1.205209E-16
4.840000E+03	6.021347E-16	1.216555E-16
4.850000E+03	6.037940E-16	1.227101E-16
4.860000E+03	6.055158E-16	1.236979E-16
4.870000E+03	6.072721E-16	1.246128E-16
4.880000E+03	6.090352E-16	1.254485E-16
4.890000E+03	6.108407E-16	1.262118E-16
4.900000E+03	6.127238E-16	1.269095E-16
4.910000E+03	6.146256E-16	1.275287E-16
4.920000E+03	6.165816E-16	1.280764E-16
4.930000E+03	6.185955E-16	1.285525E-16
4.940000E+03	6.206714E-16	1.289574E-16
4.950000E+03	6.228131E-16	1.292911E-16
4.960000E+03	6.249936E-16	1.295473E-16
4.970000E+03	6.272479E-16	1.297324E-16
4.980000E+03	6.295799E-16	1.298465E-16
4.990000E+03	6.319935E-16	1.298893E-16
5.000000E+03	6.344923E-16	1.298608E-16
5.010000E+03	6.370803E-16	1.297607E-16
5.020000E+03	6.397301E-16	1.295824E-16
5.030000E+03	6.424763E-16	1.293318E-16
5.040000E+03	6.453224E-16	1.290084E-16
5.050000E+03	6.482410E-16	1.286053E-16
5.060000E+03	6.512970E-16	1.281343E-16
5.070000E+03	6.544319E-16	1.275822E-16
5.080000E+03	6.576487E-16	1.269484E-16
5.090000E+03	6.610118E-16	1.262436E-16
5.100000E+03	6.644621E-16	1.254549E-16
5.110000E+03	6.680020E-16	1.245811E-16
5.120000E+03	6.716954E-16	1.236326E-16
5.130000E+03	6.754825E-16	1.225962E-16
5.140000E+03	6.793956E-16	1.214761E-16
5.150000E+03	6.834052E-16	1.202652E-16
5.160000E+03	6.875432E-16	1.189671E-16
5.170000E+03	6.918103E-16	1.175801E-16
5.180000E+03	6.961756E-16	1.160967E-16
5.190000E+03	7.006701E-16	1.145205E-16
5.200000E+03	7.052621E-16	1.128441E-16
5.210000E+03	7.100133E-16	1.110757E-16
5.220000E+03	7.148281E-16	1.091982E-16
5.230000E+03	7.197674E-16	1.072196E-16
5.240000E+03	7.248289E-16	1.051378E-16
5.250000E+03	7.299782E-16	1.029465E-16
5.260000E+03	7.352435E-16	1.006485E-16
5.270000E+03	7.406212E-16	9.824225E-17
5.280000E+03	7.460746E-16	9.572239E-17
5.290000E+03	7.515985E-16	9.308843E-17
5.300000E+03	7.572196E-16	9.034429E-17
5.310000E+03	7.628994E-16	8.748656E-17
5.320000E+03	7.686633E-16	8.452040E-17
5.330000E+03	7.744716E-16	8.144461E-17
5.340000E+03	7.803488E-16	7.826653E-17
5.350000E+03	7.862867E-16	7.499154E-17
5.360000E+03	7.922098E-16	7.162129E-17
5.370000E+03	7.982078E-16	6.817581E-17
5.380000E+03	8.041706E-16	6.466104E-17
5.390000E+03	8.101538E-16	6.110255E-17
5.400000E+03	8.161460E-16	5.752669E-17
5.410000E+03	8.221019E-16	5.396665E-17
5.420000E+03	8.280086E-16	5.047035E-17
5.430000E+03	8.338871E-16	4.710351E-17
5.440000E+03	8.396901E-16	4.394793E-17
5.450000E+03	8.454039E-16	4.111174E-17
5.460000E+03	8.510492E-16	3.872982E-17
5.470000E+03	8.565786E-16	3.695228E-17
5.480000E+03	8.620144E-16	3.593141E-17
5.490000E+03	8.673126E-16	3.578227E-17
5.500000E+03	8.724668E-16	3.655234E-17
5.510000E+03	8.775100E-16	3.820718E-17
5.520000E+03	8.824088E-16	4.064266E-17
5.530000E+03	8.871673E-16	4.372347E-17
5.540000E+03	8.918260E-16	4.731441E-17
5.550000E+03	8.963564E-16	5.129259E-17
5.560000E+03	9.007652E-16	5.555825E-17
5.570000E+03	9.050949E-16	6.003475E-17
5.580000E+03	9.093177E-16	6.465853E-17
5.590000E+03	9.134409E-16	6.938182E-17
5.600000E+03	9.174720E-16	7.416734E-17
5.610000E+03	9.214541E-16	7.898884E-17
5.620000E+03	9.253591E-16	8.382032E-17
5.630000E+03	9.291945E-16	8.864306E-17
5.640000E+03	9.330031E-16	9.344541E-17
5.650000E+03	9.367205E-16	9.820783E-17
5.660000E+03	9.404252E-16	1.029272E-16
5.670000E+03	9.441240E-16	1.075954E-16
5.680000E+03	9.477514E-16	1.121968E-16
5.690000E+03	9.513855E-16	1.167335E-16
5.700000E+03	9.549960E-16	1.211958E-16
5.710000E+03	9.585884E-16	1.255788E-16
5.720000E+03	9.622039E-16	1.298833E-16
5.730000E+03	9.657748E-16	1.340958E-16
5.740000E+03	9.693778E-16	1.382227E-16
5.750000E+03	9.729805E-16	1.422560E-16
5.760000E+03	9.765863E-16	1.461929E-16
5.770000E+03	9.802343E-16	1.500361E-16
5.780000E+03	9.838544E-16	1.537722E-16
5.790000E+03	9.875214E-16	1.574098E-16
5.800000E+03	9.912003E-16	1.609410E-16
5.810000E+03	9.948922E-16	1.643635E-16
5.820000E+03	9.986343E-16	1.676811E-16
5.830000E+03	1.002354E-15	1.708793E-16
5.840000E+03	1.006123E-15	1.739682E-16
5.850000E+03	1.009905E-15	1.769392E-16
5.860000E+03	1.013699E-15	1.797901E-16
5.870000E+03	1.017503E-15	1.825183E-16
5.880000E+03	1.021316E-15	1.851216E-16
5.890000E+03	1.025172E-15	1.876042E-16
5.900000E+03	1.029032E-15	1.899570E-16
5.910000E+03	1.032855E-15	1.921705E-16
5.920000E+03	1.036715E-15	1.942559E-16
5.930000E+03	1.040569E-15	1.962039E-16
5.940000E+03	1.044454E-15	1.980189E-16
5.950000E+03	1.048289E-15	1.996842E-16
5.960000E+03	1.052147E-15	2.012114E-16
5.970000E+03	1.055949E-15	2.025835E-16
5.980000E+03	1.059766E-15	2.038126E-16
5.990000E+03	1.063558E-15	2.048888E-16
6.000000E+03	1.067321E-15	2.058096E-16
6.010000E+03	1.071052E-15	2.065726E-16
6.020000E+03	1.074784E-15	2.071828E-16
6.030000E+03	1.078439E-15	2.076231E-16
6.040000E+03	1.082089E-15	2.079060E-16
6.050000E+03	1.085656E-15	2.080147E-16
6.060000E+03	1.089211E-15	2.079617E-16
6.070000E+03	1.092715E-15	2.077377E-16
6.080000E+03	1.096164E-15	2.073409E-16
6.090000E+03	1.099594E-15	2.067768E-16
6.100000E+03	1.102926E-15	2.060291E-16
6.110000E+03	1.106195E-15	2.051035E-16
6.120000E+03	1.109439E-15	2.040058E-16
6.130000E+03	1.112615E-15	2.027275E-16
6.140000E+03	1.115682E-15	2.012603E-16
6.150000E+03	1.118717E-15	1.996173E-16
6.160000E+03	1.121718E-15	1.977974E-16
6.170000E+03	1.124603E-15	1.957858E-16
6.180000E+03	1.127410E-15	1.935890E-16
6.190000E+03	1.130175E-15	1.912131E-16
6.200000E+03	1.132818E-15	1.886444E-16
6.210000E+03	1.135415E-15	1.858959E-16
6.220000E+03	1.137925E-15	1.829610E-16
6.230000E+03	1.140344E-15	1.798399E-16
6.240000E+03	1.142670E-15	1.765332E-16
6.250000E+03	1.144939E-15	1.730475E-16
6.260000E+03	1.147071E-15	1.693716E-16
6.270000E+03	1.149140E-15	1.655188E-16
6.280000E+03	1.151065E-15	1.614791E-16
6.290000E+03	1.152922E-15	1.572659E-16
6.300000E+03	1.154669E-15	1.528760E-16
6.310000E+03	1.156342E-15	1.483177E-16
6.320000E+03	1.157860E-15	1.435841E-16
6.330000E+03	1.159301E-15	1.386899E-16
6.340000E+03	1.160582E-15	1.336305E-16
6.350000E+03	1.161782E-15	1.284217E-16
6.360000E+03	1.162862E-15	1.230661E-16
6.370000E+03	1.163820E-15	1.175728E-16
6.380000E+03	1.164699E-15	1.119562E-16
6.390000E+03	1.165460E-15	1.062253E-16
6.400000E+03	1.166067E-15	1.003925E-16
6.410000E+03	1.166605E-15	9.448435E-17
6.420000E+03	1.167041E-15	8.852182E-17
6.430000E+03	1.167421E-15	8.253878E-17
6.440000E+03	1.167674E-15	7.656935E-17
6.450000E+03	1.167892E-15	7.067152E-17
6.460000E+03	1.168047E-15	6.491228E-17
6.470000E+03	1.168151E-15	5.938570E-17
6.480000E+03	1.168261E-15	5.422080E-17
6.490000E+03	1.168309E-15	4.958349E-17
6.500000E+03	1.168393E-15	4.569564E-17
6.510000E+03	1.168526E-15	4.281432E-17
6.520000E+03	1.168637E-15	4.119318E-17
6.530000E+03	1.168770E-15	4.101533E-17
6.540000E+03	1.168958E-15	4.231527E-17
6.550000E+03	1.169139E-15	4.496244E-17
6.560000E+03	1.169327E-15	4.872550E-17
6.570000E+03	1.169409E-15	5.334366E-17
6.580000E+03	1.169431E-15	5.859061E-17
6.590000E+03	1.169361E-15	6.428276E-17
6.600000E+03	1.169087E-15	7.027553E-17
6.610000E+03	1.168659E-15	7.646841E-17
6.620000E+03	1.168012E-15	8.278012E-17
6.630000E+03	1.167119E-15	8.915042E-17
6.640000E+03	1.166002E-15	9.553591E-17
6.650000E+03	1.164601E-15	1.018967E-16
6.660000E+03	1.162902E-15	1.082030E-16
6.670000E+03	1.160933E-15	1.144344E-16
6.680000E+03	1.158647E-15	1.205668E-16
6.690000E+03	1.156036E-15	1.265832E-16
6.700000E+03	1.153100E-15	1.324691E-16
6.710000E+03	1.149879E-15	1.382170E-16
6.720000E+03	1.146375E-15	1.438173E-16
6.730000E+03	1.142515E-15	1.492512E-16
6.740000E+03	1.138384E-15	1.545217E-16
6.750000E+03	1.133994E-15	1.596233E-16
6.760000E+03	1.129275E-15	1.645404E-16
6.770000E+03	1.124358E-15	1.692864E-16
6.780000E+03	1.119140E-15	1.738414E-16
6.790000E+03	1.113713E-15	1.782155E-16
6.800000E+03	1.108054E-15	1.824020E-16
6.810000E+03	1.102218E-15	1.864071E-16
6.820000E+03	1.096182E-15	1.902251E-16
6.830000E+03	1.090003E-15	1.938639E-16
6.840000E+03	1.083657E-15	1.973187E-16
6.850000E+03	1.077162E-15	2.005917E-16
6.860000E+03	1.070572E-15	2.036927E-16
6.870000E+03	1.063866E-15	2.066178E-16
6.880000E+03	1.057097E-15	2.093776E-16
6.890000E+03	1.050242E-15	2.119687E-16
6.900000E+03	1.043316E-15	2.143947E-16
6.910000E+03	1.036370E-15	2.166675E-16
6.920000E+03	1.029417E-15	2.187913E-16
6.930000E+03	1.022432E-15	2.207629E-16
6.940000E+03	1.015427E-15	2.225864E-16
6.950000E+03	1.008448E-15	2.242740E-16
6.960000E+03	1.001507E-15	2.258303E-16
6.970000E+03	9.945746E-16	2.272515E-16
6.980000E+03	9.876606E-16	2.285418E-16
6.990000E+03	9.808077E-16	2.297133E-16
7.000000E+03	9.740222E-16	2.307703E-16
7.010000E+03	9.672749E-16	2.317083E-16
7.020000E+03	9.605713E-16	2.325310E-16
7.030000E+03	9.539505E-16	2.332503E-16
7.040000E+03	9.474159E-16	2.338698E-16
7.050000E+03	9.409365E-16	2.343843E-16
7.060000E+03	9.345490E-16	2.348053E-16
7.070000E+03	9.282213E-16	2.351274E-16
7.080000E+03	9.219888E-16	2.353618E-16
7.090000E+03	9.158189E-16	2.355026E-16
7.100000E+03	9.097456E-16	2.355608E-16
7.110000E+03	9.037359E-16	2.355302E-16
7.120000E+03	8.978552E-16	2.354302E-16
7.130000E+03	8.920048E-16	2.352370E-16
7.140000E+03	8.862493E-16	2.349696E-16
7.150000E+03	8.805876E-16	2.346299E-16
7.160000E+03	8.750181E-16	2.342196E-16
7.170000E+03	8.695072E-16	2.337315E-16
7.180000E+03	8.640537E-16	2.331672E-16
7.190000E+03	8.587194E-16	2.325451E-16
7.200000E+03	8.534074E-16	2.318408E-16
7.210000E+03	8.482106E-16	2.310813E-16
7.220000E+03	8.430640E-16	2.302504E-16
7.230000E+03	8.379972E-16	2.293579E-16
7.240000E+03	8.329770E-16	2.283962E-16
7.250000E+03	8.280327E-16	2.273748E-16
7.260000E+03	8.231623E-16	2.262947E-16
7.270000E+03	8.183334E-16	2.251482E-16
7.280000E+03	8.135748E-16	2.239447E-16
7.290000E+03	8.088849E-16	2.226851E-16
7.300000E+03	8.042318E-16	2.213617E-16
7.310000E+03	7.996442E-16	2.199837E-16
7.320000E+03	7.950909E-16	2.185438E-16
7.330000E+03	7.906305E-16	2.170590E-16
7.340000E+03	7.862019E-16	2.155138E-16
7.350000E+03	7.818043E-16	2.139089E-16
7.360000E+03	7.774960E-16	2.122614E-16
7.370000E+03	7.732169E-16	2.105557E-16
7.380000E+03	7.689665E-16	2.087928E-16
7.390000E+03	7.648028E-16	2.069892E-16
7.400000E+03	7.606664E-16	2.051297E-16
7.410000E+03	7.565861E-16	2.032229E-16
7.420000E+03	7.525323E-16	2.012618E-16
7.430000E+03	7.485337E-16	1.992547E-16
7.440000E+03	7.445896E-16	1.972022E-16
7.450000E+03	7.406996E-16	1.951049E-16
7.460000E+03	7.368346E-16	1.929557E-16
7.470000E+03	7.330227E-16	1.907627E-16
7.480000E+03	7.292634E-16	1.885265E-16
7.490000E+03	7.255560E-16	1.862473E-16
7.500000E+03	7.218717E-16	1.839183E-16
7.510000E+03	7.182381E-16	1.815471E-16
7.520000E+03	7.146542E-16	1.791341E-16
7.530000E+03	7.110913E-16	1.766724E-16
7.540000E+03	7.076040E-16	1.741762E-16
7.550000E+03	7.041355E-16	1.716318E-16
7.560000E+03	7.007123E-16	1.690462E-16
7.570000E+03	6.973052E-16	1.664129E-16
7.580000E+03	6.939404E-16	1.637385E-16
7.590000E+03	6.906160E-16	1.610230E-16
7.600000E+03	6.873300E-16	1.582664E-16
7.610000E+03	6.840802E-16	1.554686E-16
7.620000E+03	6.808372E-16	1.526231E-16
7.630000E+03	6.776256E-16	1.497364E-16
7.640000E+03	6.744429E-16	1.468080E-16
7.650000E+03	6.712861E-16	1.438380E-16
7.660000E+03	6.681254E-16	1.408204E-16
7.670000E+03	6.650116E-16	1.377666E-16
7.680000E+03	6.618876E-16	1.346652E-16
7.690000E+03	6.587768E-16	1.315219E-16
7.700000E+03	6.556491E-16	1.283314E-16
7.710000E+03	6.525545E-16	1.251043E-16
7.720000E+03	6.494357E-16	1.218305E-16
7.730000E+03	6.463160E-16	1.185153E-16
7.740000E+03	6.431916E-16	1.151591E-16
7.750000E+03	6.400323E-16	1.117579E-16
7.760000E+03	6.368873E-16	1.083214E-16
