#wls	flux	fluxerr
1.583218E+03	1.074547E-03	5.617952E-05
1.622798E+03	1.081982E-03	5.626631E-05
1.662379E+03	1.090078E-03	5.637606E-05
1.701959E+03	1.099755E-03	5.655515E-05
1.741540E+03	1.110574E-03	5.677948E-05
1.781120E+03	1.123007E-03	5.707168E-05
1.820701E+03	1.136615E-03	5.740768E-05
1.860281E+03	1.151875E-03	5.780991E-05
1.899861E+03	1.169271E-03	5.830051E-05
1.939442E+03	1.187901E-03	5.883213E-05
1.979022E+03	1.208716E-03	5.944984E-05
2.018603E+03	1.231276E-03	6.012929E-05
2.058183E+03	1.256076E-03	6.089203E-05
2.097764E+03	1.283148E-03	6.173644E-05
2.137344E+03	1.312522E-03	6.266075E-05
2.176925E+03	1.344229E-03	6.366300E-05
2.216505E+03	1.378781E-03	6.476375E-05
2.256085E+03	1.415733E-03	6.593793E-05
2.295666E+03	1.455601E-03	6.720551E-05
2.335246E+03	1.497932E-03	6.854113E-05
2.374827E+03	1.543740E-03	6.998651E-05
2.414407E+03	1.592078E-03	7.149342E-05
2.453988E+03	1.643968E-03	7.310271E-05
2.493568E+03	1.698950E-03	7.478804E-05
2.533149E+03	1.758063E-03	7.658898E-05
2.572729E+03	1.820847E-03	7.847841E-05
2.612310E+03	1.888361E-03	8.049468E-05
2.651890E+03	1.960145E-03	8.260978E-05
2.691470E+03	2.037280E-03	8.486060E-05
2.731051E+03	2.119828E-03	8.723975E-05
2.770631E+03	2.208380E-03	8.976088E-05
2.810212E+03	2.303542E-03	9.243682E-05
2.849792E+03	2.406465E-03	9.530038E-05
2.889373E+03	2.517274E-03	9.834153E-05
2.928953E+03	2.636645E-03	1.015707E-04
2.968534E+03	2.766356E-03	1.050386E-04
2.978429E+03	2.800207E-03	1.059331E-04
2.988324E+03	2.835224E-03	1.068607E-04
2.998219E+03	2.870339E-03	1.077806E-04
3.008114E+03	2.906631E-03	1.087331E-04
3.018009E+03	2.944106E-03	1.097178E-04
3.027904E+03	2.981688E-03	1.106943E-04
3.037799E+03	3.020465E-03	1.117026E-04
3.047694E+03	3.059900E-03	1.127226E-04
3.057590E+03	3.100543E-03	1.137738E-04
3.067485E+03	3.141855E-03	1.148362E-04
3.077380E+03	3.183843E-03	1.159096E-04
3.087275E+03	3.227057E-03	1.170136E-04
3.097170E+03	3.271508E-03	1.181480E-04
3.107065E+03	3.316657E-03	1.192927E-04
3.116960E+03	3.363055E-03	1.204673E-04
3.126855E+03	3.410168E-03	1.216520E-04
3.136750E+03	3.458550E-03	1.228660E-04
3.146646E+03	3.508214E-03	1.241094E-04
3.156541E+03	3.559167E-03	1.253815E-04
3.166436E+03	3.611423E-03	1.266823E-04
3.176331E+03	3.664991E-03	1.280115E-04
3.186226E+03	3.719888E-03	1.293690E-04
3.196121E+03	3.776123E-03	1.307544E-04
3.206016E+03	3.833710E-03	1.321676E-04
3.215911E+03	3.892666E-03	1.336083E-04
3.225806E+03	3.953004E-03	1.350765E-04
3.235702E+03	4.015296E-03	1.365908E-04
3.245597E+03	4.079004E-03	1.381320E-04
3.255492E+03	4.144705E-03	1.397188E-04
3.265387E+03	4.211859E-03	1.413322E-04
3.275282E+03	4.280487E-03	1.429721E-04
3.285177E+03	4.351731E-03	1.446757E-04
3.295072E+03	4.424493E-03	1.464053E-04
3.304967E+03	4.499358E-03	1.481795E-04
3.314862E+03	4.576355E-03	1.499981E-04
3.324758E+03	4.654945E-03	1.518424E-04
3.334653E+03	4.736285E-03	1.537492E-04
3.344548E+03	4.820415E-03	1.557184E-04
3.354443E+03	4.906225E-03	1.577129E-04
3.364338E+03	4.994891E-03	1.597694E-04
3.374233E+03	5.085877E-03	1.618694E-04
3.384128E+03	5.179797E-03	1.640312E-04
3.394023E+03	5.276689E-03	1.662545E-04
3.403918E+03	5.376023E-03	1.685211E-04
3.413814E+03	5.478422E-03	1.708492E-04
3.423709E+03	5.584508E-03	1.732565E-04
3.433604E+03	5.693181E-03	1.757073E-04
3.443499E+03	5.805647E-03	1.782372E-04
3.453394E+03	5.921971E-03	1.808462E-04
3.463289E+03	6.041629E-03	1.835164E-04
3.473184E+03	6.164678E-03	1.862480E-04
3.483079E+03	6.292359E-03	1.890763E-04
3.492974E+03	6.423564E-03	1.919660E-04
3.502870E+03	6.559542E-03	1.949523E-04
3.512765E+03	6.699777E-03	1.980176E-04
3.522660E+03	6.844339E-03	2.011617E-04
3.532555E+03	6.993887E-03	2.044017E-04
3.542450E+03	7.148481E-03	2.077367E-04
3.552345E+03	7.308184E-03	2.111660E-04
3.562240E+03	7.473057E-03	2.146888E-04
3.572135E+03	7.643159E-03	2.183040E-04
3.582030E+03	7.818549E-03	2.220107E-04
3.591926E+03	7.999899E-03	2.258252E-04
3.601821E+03	8.187270E-03	2.297460E-04
3.611716E+03	8.380111E-03	2.337548E-04
3.621611E+03	8.579706E-03	2.378844E-04
3.631506E+03	8.785502E-03	2.421161E-04
3.641401E+03	8.997549E-03	2.464481E-04
3.651296E+03	9.215895E-03	2.508784E-04
3.661191E+03	9.441206E-03	2.554218E-04
3.671086E+03	9.673528E-03	2.600761E-04
3.680982E+03	9.912901E-03	2.648386E-04
3.690877E+03	1.015935E-02	2.697065E-04
3.700772E+03	1.041355E-02	2.746937E-04
3.710667E+03	1.067424E-02	2.797632E-04
3.720562E+03	1.094334E-02	2.849620E-04
3.730457E+03	1.121958E-02	2.902527E-04
3.740352E+03	1.150359E-02	2.956481E-04
3.750247E+03	1.179537E-02	3.011439E-04
3.760142E+03	1.209554E-02	3.067520E-04
3.770038E+03	1.240341E-02	3.124508E-04
3.779933E+03	1.271894E-02	3.182352E-04
3.789828E+03	1.304271E-02	3.241163E-04
3.799723E+03	1.337532E-02	3.301044E-04
3.809618E+03	1.371537E-02	3.361607E-04
3.819513E+03	1.406341E-02	3.422951E-04
3.829408E+03	1.442001E-02	3.485172E-04
3.839303E+03	1.478435E-02	3.548035E-04
3.849198E+03	1.515698E-02	3.611631E-04
3.859094E+03	1.553707E-02	3.675723E-04
3.868989E+03	1.592580E-02	3.740553E-04
3.878884E+03	1.632163E-02	3.805721E-04
3.888779E+03	1.672573E-02	3.871464E-04
3.898674E+03	1.713721E-02	3.937540E-04
3.908569E+03	1.755585E-02	4.003865E-04
3.918464E+03	1.798211E-02	4.070510E-04
3.928359E+03	1.841506E-02	4.137234E-04
3.938255E+03	1.885515E-02	4.204107E-04
3.948150E+03	1.930213E-02	4.271043E-04
3.958045E+03	1.975575E-02	4.337959E-04
3.967940E+03	2.021502E-02	4.404614E-04
3.977835E+03	2.068042E-02	4.471088E-04
3.987730E+03	2.115166E-02	4.537301E-04
3.997625E+03	2.162848E-02	4.603171E-04
4.007520E+03	2.211065E-02	4.668634E-04
4.017415E+03	2.259789E-02	4.733614E-04
4.027311E+03	2.308997E-02	4.798050E-04
4.037206E+03	2.358664E-02	4.861877E-04
4.047101E+03	2.408700E-02	4.924901E-04
4.056996E+03	2.459151E-02	4.987211E-04
4.066891E+03	2.510002E-02	5.048769E-04
4.076786E+03	2.561230E-02	5.109529E-04
4.086681E+03	2.612682E-02	5.169183E-04
4.096576E+03	2.664555E-02	5.228123E-04
4.106471E+03	2.716627E-02	5.285916E-04
4.116367E+03	2.768957E-02	5.342689E-04
4.126262E+03	2.821470E-02	5.398302E-04
4.136157E+03	2.874304E-02	5.453034E-04
4.146052E+03	2.927246E-02	5.506490E-04
4.155947E+03	2.980371E-02	5.558830E-04
4.165842E+03	3.033682E-02	5.610076E-04
4.175737E+03	3.087116E-02	5.660133E-04
4.185632E+03	3.140617E-02	5.708922E-04
4.195527E+03	3.194341E-02	5.756749E-04
4.205423E+03	3.248091E-02	5.803286E-04
4.215318E+03	3.301893E-02	5.848610E-04
4.225213E+03	3.355837E-02	5.892911E-04
4.235108E+03	3.409815E-02	5.936034E-04
4.245003E+03	3.463854E-02	5.978059E-04
4.254898E+03	3.517918E-02	6.018965E-04
4.264793E+03	3.572048E-02	6.058860E-04
4.274688E+03	3.626208E-02	6.097725E-04
4.284583E+03	3.680378E-02	6.135572E-04
4.294479E+03	3.734598E-02	6.172514E-04
4.304374E+03	3.788784E-02	6.208460E-04
4.314269E+03	3.842988E-02	6.243547E-04
4.324164E+03	3.897196E-02	6.277809E-04
4.334059E+03	3.951400E-02	6.311285E-04
4.343954E+03	4.005595E-02	6.344027E-04
4.353849E+03	4.059741E-02	6.376032E-04
4.363744E+03	4.113701E-02	6.407149E-04
4.373639E+03	4.167466E-02	6.437439E-04
4.383535E+03	4.220965E-02	6.466865E-04
4.393430E+03	4.274057E-02	6.495291E-04
4.403325E+03	4.326731E-02	6.522785E-04
4.413220E+03	4.378779E-02	6.549125E-04
4.423115E+03	4.430259E-02	6.574492E-04
4.433010E+03	4.480956E-02	6.598664E-04
4.442905E+03	4.530925E-02	6.621824E-04
4.452800E+03	4.580083E-02	6.643956E-04
4.462695E+03	4.628348E-02	6.665040E-04
4.472591E+03	4.675700E-02	6.685133E-04
4.482486E+03	4.722056E-02	6.704196E-04
4.492381E+03	4.767394E-02	6.722277E-04
4.502276E+03	4.811761E-02	6.739521E-04
4.512171E+03	4.855006E-02	6.755792E-04
4.522066E+03	4.897176E-02	6.771239E-04
4.531961E+03	4.938186E-02	6.785818E-04
4.541856E+03	4.978023E-02	6.799590E-04
4.551751E+03	5.016735E-02	6.812695E-04
4.561647E+03	5.054247E-02	6.825106E-04
4.571542E+03	5.090556E-02	6.836892E-04
4.581437E+03	5.125660E-02	6.848120E-04
4.591332E+03	5.159558E-02	6.858860E-04
4.601227E+03	5.192327E-02	6.869280E-04
4.611122E+03	5.223978E-02	6.879460E-04
4.621017E+03	5.254463E-02	6.889398E-04
4.630912E+03	5.283873E-02	6.899274E-04
4.640807E+03	5.312297E-02	6.909261E-04
4.650703E+03	5.339831E-02	6.919538E-04
4.660598E+03	5.366443E-02	6.930115E-04
4.670493E+03	5.392231E-02	6.941166E-04
4.680388E+03	5.417362E-02	6.952954E-04
4.690283E+03	5.441931E-02	6.965644E-04
4.700178E+03	5.465975E-02	6.979321E-04
4.710073E+03	5.489649E-02	6.994225E-04
4.719968E+03	5.513043E-02	7.010506E-04
4.729863E+03	5.536371E-02	7.028469E-04
4.739759E+03	5.559596E-02	7.048101E-04
4.749654E+03	5.582906E-02	7.069673E-04
4.759549E+03	5.606298E-02	7.093211E-04
4.769444E+03	5.629823E-02	7.118812E-04
4.779339E+03	5.653464E-02	7.146481E-04
4.789234E+03	5.677192E-02	7.176214E-04
4.799129E+03	5.701037E-02	7.208075E-04
4.809024E+03	5.724886E-02	7.241953E-04
4.818919E+03	5.748696E-02	7.277817E-04
4.828815E+03	5.772533E-02	7.315779E-04
4.838710E+03	5.796339E-02	7.355790E-04
4.848605E+03	5.820056E-02	7.397789E-04
4.858500E+03	5.843680E-02	7.441747E-04
4.868395E+03	5.867214E-02	7.487631E-04
4.878290E+03	5.890535E-02	7.535245E-04
4.888185E+03	5.913770E-02	7.584712E-04
4.898080E+03	5.936926E-02	7.636000E-04
4.907975E+03	5.959881E-02	7.688908E-04
4.917871E+03	5.982713E-02	7.743492E-04
4.927766E+03	6.005435E-02	7.799725E-04
4.937661E+03	6.028131E-02	7.857669E-04
4.947556E+03	6.050689E-02	7.917131E-04
4.957451E+03	6.073264E-02	7.978267E-04
4.967346E+03	6.095878E-02	8.041064E-04
4.977241E+03	6.118501E-02	8.105432E-04
4.987136E+03	6.141290E-02	8.171535E-04
4.997031E+03	6.164218E-02	8.239295E-04
5.006927E+03	6.187323E-02	8.308719E-04
5.016822E+03	6.210708E-02	8.379904E-04
5.026717E+03	6.234412E-02	8.452864E-04
5.036612E+03	6.258481E-02	8.527622E-04
5.046507E+03	6.283013E-02	8.604276E-04
5.056402E+03	6.308046E-02	8.682847E-04
5.066297E+03	6.333612E-02	8.763345E-04
5.076192E+03	6.359800E-02	8.845865E-04
5.086087E+03	6.386629E-02	8.930405E-04
5.095983E+03	6.414106E-02	9.016952E-04
5.105878E+03	6.442293E-02	9.105567E-04
5.115773E+03	6.471113E-02	9.196120E-04
5.125668E+03	6.500672E-02	9.288740E-04
5.135563E+03	6.530932E-02	9.383354E-04
5.145458E+03	6.561774E-02	9.479771E-04
5.155353E+03	6.593272E-02	9.578076E-04
5.165248E+03	6.625280E-02	9.678041E-04
5.175143E+03	6.657846E-02	9.779715E-04
5.185039E+03	6.690805E-02	9.882836E-04
5.194934E+03	6.724111E-02	9.987316E-04
5.204829E+03	6.757578E-02	1.009285E-03
5.214724E+03	6.791213E-02	1.019943E-03
5.224619E+03	6.824878E-02	1.030683E-03
5.234514E+03	6.858427E-02	1.041478E-03
5.244409E+03	6.891705E-02	1.052303E-03
5.254304E+03	6.924623E-02	1.063140E-03
5.264199E+03	6.956945E-02	1.073951E-03
5.274095E+03	6.988646E-02	1.084726E-03
5.283990E+03	7.019554E-02	1.095435E-03
5.293885E+03	7.049430E-02	1.106036E-03
5.303780E+03	7.078178E-02	1.116510E-03
5.313675E+03	7.105706E-02	1.126837E-03
5.323570E+03	7.131784E-02	1.136974E-03
5.333465E+03	7.156269E-02	1.146894E-03
5.343360E+03	7.179170E-02	1.156591E-03
5.353255E+03	7.200214E-02	1.166016E-03
5.363151E+03	7.219446E-02	1.175170E-03
5.373046E+03	7.236701E-02	1.184017E-03
5.382941E+03	7.251904E-02	1.192539E-03
5.392836E+03	7.265082E-02	1.200733E-03
5.402731E+03	7.276130E-02	1.208575E-03
5.412626E+03	7.285181E-02	1.216080E-03
5.422521E+03	7.292250E-02	1.223242E-03
5.432416E+03	7.297440E-02	1.230074E-03
5.442311E+03	7.300779E-02	1.236574E-03
5.452207E+03	7.302253E-02	1.242734E-03
5.462102E+03	7.301855E-02	1.248545E-03
5.471997E+03	7.299447E-02	1.253980E-03
5.481892E+03	7.295141E-02	1.259051E-03
5.491787E+03	7.288986E-02	1.263762E-03
5.501682E+03	7.281058E-02	1.268120E-03
5.511577E+03	7.271371E-02	1.272122E-03
5.521472E+03	7.260108E-02	1.275797E-03
5.531368E+03	7.247313E-02	1.279147E-03
5.541263E+03	7.233191E-02	1.282206E-03
5.551158E+03	7.217808E-02	1.284980E-03
5.561053E+03	7.201302E-02	1.287493E-03
5.570948E+03	7.183748E-02	1.289754E-03
5.580843E+03	7.165354E-02	1.291798E-03
5.590738E+03	7.146255E-02	1.293649E-03
5.600633E+03	7.126445E-02	1.295303E-03
5.610528E+03	7.106190E-02	1.296808E-03
5.620424E+03	7.085407E-02	1.298148E-03
5.630319E+03	7.064357E-02	1.299370E-03
5.640214E+03	7.043089E-02	1.300482E-03
5.650109E+03	7.021657E-02	1.301495E-03
5.660004E+03	7.000250E-02	1.302444E-03
5.669899E+03	6.978853E-02	1.303327E-03
5.679794E+03	6.957659E-02	1.304181E-03
5.689689E+03	6.936720E-02	1.305015E-03
5.699584E+03	6.916159E-02	1.305856E-03
5.709480E+03	6.896027E-02	1.306714E-03
5.719375E+03	6.876435E-02	1.307611E-03
5.729270E+03	6.857491E-02	1.308571E-03
5.739165E+03	6.839157E-02	1.309588E-03
5.749060E+03	6.821648E-02	1.310705E-03
5.758955E+03	6.804899E-02	1.311913E-03
5.768850E+03	6.788964E-02	1.313224E-03
5.778745E+03	6.773810E-02	1.314635E-03
5.788640E+03	6.759516E-02	1.316163E-03
5.798536E+03	6.745951E-02	1.317785E-03
5.808431E+03	6.733162E-02	1.319513E-03
5.818326E+03	6.720980E-02	1.321316E-03
5.828221E+03	6.709425E-02	1.323201E-03
5.838116E+03	6.698375E-02	1.325145E-03
5.848011E+03	6.687699E-02	1.327125E-03
5.857906E+03	6.677390E-02	1.329140E-03
5.867801E+03	6.667245E-02	1.331153E-03
5.877696E+03	6.657255E-02	1.333163E-03
5.887592E+03	6.647348E-02	1.335157E-03
5.897487E+03	6.637260E-02	1.337083E-03
5.907382E+03	6.627114E-02	1.338968E-03
5.917277E+03	6.616660E-02	1.340760E-03
5.927172E+03	6.605905E-02	1.342464E-03
5.937067E+03	6.594740E-02	1.344057E-03
5.946962E+03	6.583126E-02	1.345531E-03
5.956857E+03	6.571038E-02	1.346884E-03
5.966752E+03	6.558396E-02	1.348098E-03
5.976648E+03	6.545259E-02	1.349186E-03
5.986543E+03	6.531502E-02	1.350123E-03
5.996438E+03	6.517263E-02	1.350939E-03
6.006333E+03	6.502381E-02	1.351599E-03
6.016228E+03	6.487064E-02	1.352148E-03
6.026123E+03	6.471165E-02	1.352556E-03
6.036018E+03	6.454780E-02	1.352843E-03
6.045913E+03	6.437951E-02	1.353019E-03
6.055808E+03	6.420663E-02	1.353082E-03
6.065704E+03	6.403020E-02	1.353054E-03
6.075599E+03	6.385011E-02	1.352933E-03
6.085494E+03	6.366679E-02	1.352729E-03
6.095389E+03	6.348134E-02	1.352468E-03
6.105284E+03	6.329298E-02	1.352133E-03
6.115179E+03	6.310280E-02	1.351749E-03
6.125074E+03	6.291123E-02	1.351325E-03
6.134969E+03	6.271869E-02	1.350873E-03
6.144864E+03	6.252622E-02	1.350415E-03
6.154760E+03	6.233355E-02	1.349947E-03
6.164655E+03	6.214161E-02	1.349491E-03
6.174550E+03	6.195132E-02	1.349066E-03
6.184445E+03	6.176445E-02	1.348710E-03
6.194340E+03	6.158373E-02	1.348483E-03
6.204235E+03	6.141378E-02	1.348485E-03
6.214130E+03	6.125662E-02	1.348763E-03
6.224025E+03	6.111666E-02	1.349414E-03
6.233920E+03	6.099567E-02	1.350481E-03
6.243816E+03	6.089724E-02	1.352047E-03
6.253711E+03	6.082415E-02	1.354175E-03
6.263606E+03	6.077899E-02	1.356927E-03
6.273501E+03	6.076415E-02	1.360362E-03
6.283396E+03	6.078181E-02	1.364534E-03
6.293291E+03	6.083394E-02	1.369491E-03
6.303186E+03	6.092285E-02	1.375293E-03
6.313081E+03	6.104861E-02	1.381945E-03
6.322976E+03	6.121300E-02	1.389496E-03
6.332872E+03	6.141686E-02	1.397971E-03
6.342767E+03	6.166063E-02	1.407386E-03
6.352662E+03	6.194448E-02	1.417752E-03
6.362557E+03	6.226745E-02	1.429055E-03
6.372452E+03	6.262882E-02	1.441284E-03
6.382347E+03	6.302730E-02	1.454416E-03
6.392242E+03	6.346108E-02	1.468415E-03
6.402137E+03	6.392628E-02	1.483199E-03
6.412032E+03	6.441972E-02	1.498697E-03
6.421928E+03	6.493609E-02	1.514791E-03
6.431823E+03	6.547158E-02	1.531396E-03
6.441718E+03	6.601873E-02	1.548338E-03
6.451613E+03	6.657175E-02	1.565485E-03
6.461508E+03	6.712206E-02	1.582633E-03
6.471403E+03	6.766382E-02	1.599644E-03
6.481298E+03	6.818871E-02	1.616319E-03
6.491193E+03	6.868833E-02	1.632453E-03
6.501088E+03	6.915610E-02	1.647886E-03
6.510984E+03	6.958417E-02	1.662422E-03
6.520879E+03	6.996606E-02	1.675898E-03
6.530774E+03	7.029509E-02	1.688146E-03
6.540669E+03	7.056707E-02	1.699053E-03
6.550564E+03	7.077781E-02	1.708507E-03
6.560459E+03	7.092321E-02	1.716399E-03
6.570354E+03	7.100100E-02	1.722659E-03
6.580249E+03	7.100974E-02	1.727241E-03
6.590144E+03	7.094814E-02	1.730099E-03
6.600040E+03	7.081830E-02	1.731273E-03
6.609935E+03	7.061975E-02	1.730737E-03
6.619830E+03	7.035536E-02	1.728549E-03
6.629725E+03	7.002694E-02	1.724742E-03
6.639620E+03	6.963777E-02	1.719386E-03
6.649515E+03	6.919254E-02	1.712585E-03
6.659410E+03	6.869375E-02	1.704392E-03
6.669305E+03	6.814767E-02	1.694952E-03
6.679200E+03	6.755822E-02	1.684355E-03
6.689096E+03	6.692950E-02	1.672697E-03
6.698991E+03	6.626731E-02	1.660115E-03
6.708886E+03	6.557661E-02	1.646729E-03
6.718781E+03	6.486142E-02	1.632634E-03
6.728676E+03	6.412646E-02	1.617947E-03
6.738571E+03	6.337788E-02	1.602819E-03
6.748466E+03	6.261747E-02	1.587294E-03
6.758361E+03	6.185012E-02	1.571495E-03
6.768256E+03	6.108028E-02	1.555534E-03
6.778152E+03	6.031062E-02	1.539479E-03
6.788047E+03	5.954427E-02	1.523411E-03
6.797942E+03	5.878331E-02	1.507385E-03
6.807837E+03	5.803179E-02	1.491506E-03
6.817732E+03	5.729052E-02	1.475797E-03
6.827627E+03	5.656224E-02	1.460331E-03
6.837522E+03	5.584800E-02	1.445138E-03
6.847417E+03	5.515006E-02	1.430280E-03
6.857312E+03	5.446904E-02	1.415776E-03
6.867208E+03	5.380680E-02	1.401679E-03
6.877103E+03	5.316352E-02	1.387996E-03
6.886998E+03	5.253999E-02	1.374752E-03
6.896893E+03	5.193680E-02	1.361968E-03
6.906788E+03	5.135441E-02	1.349658E-03
6.916683E+03	5.079310E-02	1.337834E-03
6.926578E+03	5.025308E-02	1.326506E-03
6.936473E+03	4.973440E-02	1.315680E-03
6.946368E+03	4.923702E-02	1.305358E-03
6.956264E+03	4.876015E-02	1.295524E-03
6.966159E+03	4.830425E-02	1.286194E-03
6.976054E+03	4.786838E-02	1.277347E-03
6.985949E+03	4.745219E-02	1.268978E-03
6.995844E+03	4.705601E-02	1.261099E-03
7.005739E+03	4.667870E-02	1.253685E-03
7.015634E+03	4.632048E-02	1.246743E-03
7.025529E+03	4.597958E-02	1.240232E-03
7.035425E+03	4.565610E-02	1.234156E-03
7.045320E+03	4.535017E-02	1.228523E-03
7.055215E+03	4.505994E-02	1.223285E-03
7.065110E+03	4.478549E-02	1.218450E-03
7.075005E+03	4.452622E-02	1.214003E-03
7.084900E+03	4.428090E-02	1.209914E-03
7.094795E+03	4.404953E-02	1.206186E-03
7.104690E+03	4.383147E-02	1.202804E-03
7.114585E+03	4.362546E-02	1.199737E-03
7.124481E+03	4.343083E-02	1.196969E-03
7.134376E+03	4.324749E-02	1.194500E-03
7.144271E+03	4.307415E-02	1.192297E-03
7.154166E+03	4.291011E-02	1.190342E-03
7.164061E+03	4.275462E-02	1.188617E-03
7.173956E+03	4.260758E-02	1.187122E-03
7.183851E+03	4.246699E-02	1.185803E-03
7.193746E+03	4.233274E-02	1.184658E-03
7.203641E+03	4.220406E-02	1.183668E-03
7.213537E+03	4.207960E-02	1.182796E-03
7.223432E+03	4.195984E-02	1.182057E-03
7.233327E+03	4.184281E-02	1.181396E-03
7.243222E+03	4.172780E-02	1.180796E-03
7.253117E+03	4.161469E-02	1.180254E-03
7.263012E+03	4.150221E-02	1.179734E-03
7.272907E+03	4.138971E-02	1.179219E-03
7.282802E+03	4.127654E-02	1.178690E-03
7.292697E+03	4.116213E-02	1.178132E-03
7.302593E+03	4.104652E-02	1.177547E-03
7.312488E+03	4.092738E-02	1.176868E-03
7.322383E+03	4.080603E-02	1.176131E-03
7.332278E+03	4.068079E-02	1.175291E-03
7.342173E+03	4.055128E-02	1.174334E-03
7.352068E+03	4.041774E-02	1.173267E-03
7.361963E+03	4.027919E-02	1.172062E-03
7.371858E+03	4.013540E-02	1.170712E-03
7.381753E+03	3.998676E-02	1.169227E-03
7.391649E+03	3.983188E-02	1.167566E-03
7.401544E+03	3.967191E-02	1.165762E-03
7.411439E+03	3.950561E-02	1.163777E-03
7.421334E+03	3.933490E-02	1.161668E-03
7.431229E+03	3.915812E-02	1.159384E-03
7.441124E+03	3.897675E-02	1.156968E-03
7.451019E+03	3.879108E-02	1.154429E-03
7.460914E+03	3.860156E-02	1.151779E-03
7.470809E+03	3.840867E-02	1.149032E-03
7.480705E+03	3.821298E-02	1.146204E-03
7.490600E+03	3.801575E-02	1.143332E-03
7.500495E+03	3.781712E-02	1.140422E-03
7.510390E+03	3.761849E-02	1.137514E-03
7.520285E+03	3.742073E-02	1.134634E-03
7.530180E+03	3.722471E-02	1.131808E-03
7.540075E+03	3.703142E-02	1.129064E-03
7.549970E+03	3.684229E-02	1.126448E-03
7.559865E+03	3.665766E-02	1.123968E-03
7.569761E+03	3.647894E-02	1.121668E-03
7.579656E+03	3.630632E-02	1.119554E-03
7.589551E+03	3.614166E-02	1.117686E-03
7.599446E+03	3.598496E-02	1.116064E-03
7.609341E+03	3.583612E-02	1.114685E-03
7.619236E+03	3.569657E-02	1.113596E-03
7.629131E+03	3.556650E-02	1.112805E-03
7.639026E+03	3.544534E-02	1.112295E-03
7.648921E+03	3.533293E-02	1.112063E-03
7.658817E+03	3.522961E-02	1.112122E-03
7.668712E+03	3.513501E-02	1.112460E-03
7.678607E+03	3.504865E-02	1.113066E-03
