#wls	flux	fluxerr
1.583218E+03	4.604362E-04	3.405694E-05
1.622798E+03	4.644610E-04	3.423794E-05
1.662379E+03	4.686563E-04	3.442662E-05
1.701959E+03	4.733740E-04	3.464850E-05
1.741540E+03	4.782671E-04	3.487769E-05
1.781120E+03	4.833407E-04	3.511430E-05
1.820701E+03	4.889451E-04	3.538337E-05
1.860281E+03	4.947392E-04	3.565972E-05
1.899861E+03	5.009018E-04	3.595584E-05
1.939442E+03	5.074391E-04	3.627168E-05
1.979022E+03	5.143586E-04	3.660724E-05
2.018603E+03	5.216690E-04	3.696261E-05
2.058183E+03	5.293805E-04	3.733791E-05
2.097764E+03	5.375041E-04	3.773332E-05
2.137344E+03	5.460530E-04	3.814913E-05
2.176925E+03	5.550412E-04	3.858564E-05
2.216505E+03	5.644853E-04	3.904330E-05
2.256085E+03	5.744032E-04	3.952261E-05
2.295666E+03	5.848150E-04	4.002415E-05
2.335246E+03	5.957426E-04	4.054858E-05
2.374827E+03	6.072111E-04	4.109674E-05
2.414407E+03	6.190800E-04	4.165825E-05
2.453988E+03	6.317133E-04	4.225664E-05
2.493568E+03	6.449764E-04	4.288174E-05
2.533149E+03	6.587375E-04	4.352373E-05
2.572729E+03	6.733701E-04	4.420613E-05
2.612310E+03	6.885813E-04	4.490838E-05
2.651890E+03	7.045842E-04	4.564313E-05
2.691470E+03	7.214289E-04	4.641218E-05
2.731051E+03	7.393392E-04	4.722827E-05
2.770631E+03	7.582050E-04	4.808254E-05
2.810212E+03	7.780905E-04	4.897725E-05
2.849792E+03	7.994088E-04	4.993631E-05
2.889373E+03	8.220675E-04	5.095145E-05
2.928953E+03	8.463255E-04	5.203613E-05
2.968534E+03	8.724546E-04	5.320404E-05
2.978429E+03	8.793305E-04	5.351175E-05
2.988324E+03	8.864539E-04	5.383231E-05
2.998219E+03	8.934717E-04	5.414422E-05
3.008114E+03	9.009193E-04	5.447990E-05
3.018009E+03	9.082643E-04	5.480703E-05
3.027904E+03	9.160444E-04	5.515803E-05
3.037799E+03	9.237253E-04	5.550062E-05
3.047694E+03	9.316668E-04	5.585639E-05
3.057590E+03	9.398726E-04	5.622546E-05
3.067485E+03	9.483452E-04	5.660787E-05
3.077380E+03	9.567252E-04	5.698208E-05
3.087275E+03	9.655587E-04	5.738059E-05
3.097170E+03	9.744853E-04	5.778184E-05
3.107065E+03	9.836903E-04	5.819672E-05
3.116960E+03	9.931767E-04	5.862532E-05
3.126855E+03	1.002764E-03	5.905687E-05
3.136750E+03	1.012824E-03	5.951315E-05
3.146646E+03	1.022991E-03	5.997256E-05
3.156541E+03	1.033453E-03	6.044602E-05
3.166436E+03	1.044028E-03	6.092274E-05
3.176331E+03	1.055091E-03	6.142458E-05
3.186226E+03	1.066462E-03	6.194077E-05
3.196121E+03	1.077955E-03	6.246051E-05
3.206016E+03	1.089951E-03	6.300568E-05
3.215911E+03	1.102267E-03	6.356553E-05
3.225806E+03	1.114907E-03	6.414014E-05
3.235702E+03	1.127875E-03	6.472964E-05
3.245597E+03	1.141369E-03	6.534511E-05
3.255492E+03	1.155009E-03	6.596474E-05
3.265387E+03	1.169185E-03	6.661060E-05
3.275282E+03	1.183903E-03	6.728285E-05
3.285177E+03	1.198783E-03	6.795963E-05
3.295072E+03	1.214412E-03	6.867412E-05
3.304967E+03	1.230213E-03	6.939338E-05
3.314862E+03	1.246778E-03	7.015072E-05
3.324758E+03	1.263724E-03	7.092418E-05
3.334653E+03	1.281054E-03	7.171392E-05
3.344548E+03	1.299174E-03	7.254231E-05
3.354443E+03	1.317695E-03	7.338732E-05
3.364338E+03	1.336822E-03	7.426025E-05
3.374233E+03	1.356565E-03	7.516129E-05
3.384128E+03	1.377135E-03	7.610188E-05
3.394023E+03	1.398136E-03	7.705980E-05
3.403918E+03	1.419780E-03	7.804647E-05
3.413814E+03	1.442280E-03	7.907334E-05
3.423709E+03	1.465443E-03	8.012941E-05
3.433604E+03	1.489278E-03	8.121490E-05
3.443499E+03	1.514003E-03	8.234135E-05
3.453394E+03	1.539421E-03	8.349769E-05
3.463289E+03	1.565752E-03	8.469549E-05
3.473184E+03	1.592798E-03	8.592363E-05
3.483079E+03	1.620781E-03	8.719377E-05
3.492974E+03	1.649927E-03	8.851760E-05
3.502870E+03	1.679825E-03	8.987253E-05
3.512765E+03	1.710698E-03	9.127025E-05
3.522660E+03	1.742562E-03	9.271100E-05
3.532555E+03	1.775428E-03	9.419505E-05
3.542450E+03	1.809529E-03	9.573419E-05
3.552345E+03	1.844660E-03	9.731714E-05
3.562240E+03	1.881058E-03	9.895574E-05
3.572135E+03	1.918514E-03	1.006386E-04
3.582030E+03	1.957267E-03	1.023777E-04
3.591926E+03	1.997106E-03	1.041614E-04
3.601821E+03	2.038497E-03	1.060134E-04
3.611716E+03	2.081006E-03	1.079107E-04
3.621611E+03	2.124874E-03	1.098650E-04
3.631506E+03	2.170344E-03	1.118884E-04
3.641401E+03	2.217208E-03	1.139694E-04
3.651296E+03	2.265477E-03	1.161079E-04
3.661191E+03	2.315402E-03	1.183162E-04
3.671086E+03	2.366768E-03	1.205825E-04
3.680982E+03	2.419824E-03	1.229188E-04
3.690877E+03	2.474589E-03	1.253253E-04
3.700772E+03	2.531078E-03	1.278020E-04
3.710667E+03	2.589312E-03	1.303493E-04
3.720562E+03	2.649065E-03	1.329548E-04
3.730457E+03	2.711076E-03	1.356550E-04
3.740352E+03	2.774639E-03	1.384137E-04
3.750247E+03	2.840501E-03	1.412672E-04
3.760142E+03	2.907946E-03	1.441791E-04
3.770038E+03	2.977726E-03	1.471858E-04
3.779933E+03	3.049612E-03	1.502750E-04
3.789828E+03	3.123372E-03	1.534344E-04
3.799723E+03	3.199524E-03	1.566886E-04
3.809618E+03	3.277829E-03	1.600248E-04
3.819513E+03	3.358558E-03	1.634552E-04
3.829408E+03	3.441473E-03	1.669673E-04
3.839303E+03	3.526582E-03	1.705606E-04
3.849198E+03	3.614418E-03	1.742597E-04
3.859094E+03	3.704736E-03	1.780517E-04
3.868989E+03	3.797288E-03	1.819238E-04
3.878884E+03	3.892605E-03	1.859002E-04
3.888779E+03	3.990699E-03	1.899805E-04
3.898674E+03	4.091319E-03	1.941516E-04
3.908569E+03	4.194471E-03	1.984126E-04
3.918464E+03	4.300693E-03	2.027880E-04
3.928359E+03	4.409458E-03	2.072517E-04
3.938255E+03	4.521037E-03	2.118154E-04
3.948150E+03	4.635705E-03	2.164908E-04
3.958045E+03	4.753193E-03	2.212642E-04
3.967940E+03	4.873772E-03	2.261470E-04
3.977835E+03	4.997168E-03	2.311253E-04
3.987730E+03	5.123647E-03	2.362104E-04
3.997625E+03	5.253210E-03	2.414011E-04
4.007520E+03	5.385842E-03	2.466956E-04
4.017415E+03	5.521816E-03	2.521052E-04
4.027311E+03	5.660560E-03	2.576026E-04
4.037206E+03	5.802615E-03	2.632115E-04
4.047101E+03	5.947968E-03	2.689301E-04
4.056996E+03	6.096596E-03	2.747562E-04
4.066891E+03	6.248194E-03	2.806750E-04
4.076786E+03	6.403017E-03	2.866969E-04
4.086681E+03	6.561036E-03	2.928197E-04
4.096576E+03	6.722506E-03	2.990536E-04
4.106471E+03	6.886815E-03	3.053705E-04
4.116367E+03	7.054787E-03	3.118060E-04
4.126262E+03	7.225516E-03	3.183190E-04
4.136157E+03	7.399822E-03	3.249448E-04
4.146052E+03	7.576781E-03	3.316421E-04
4.155947E+03	7.757218E-03	3.384461E-04
4.165842E+03	7.940782E-03	3.453409E-04
4.175737E+03	8.127412E-03	3.523229E-04
4.185632E+03	8.316750E-03	3.593761E-04
4.195527E+03	8.509317E-03	3.665224E-04
4.205423E+03	8.704745E-03	3.737454E-04
4.215318E+03	8.902961E-03	3.810416E-04
4.225213E+03	9.104181E-03	3.884197E-04
4.235108E+03	9.308027E-03	3.958633E-04
4.245003E+03	9.514716E-03	4.033813E-04
4.254898E+03	9.723860E-03	4.109570E-04
4.264793E+03	9.935374E-03	4.185868E-04
4.274688E+03	1.014976E-02	4.262921E-04
4.284583E+03	1.036634E-02	4.340437E-04
4.294479E+03	1.058502E-02	4.418381E-04
4.304374E+03	1.080630E-02	4.496970E-04
4.314269E+03	1.102981E-02	4.576042E-04
4.324164E+03	1.125516E-02	4.655445E-04
4.334059E+03	1.148288E-02	4.735398E-04
4.343954E+03	1.171259E-02	4.815752E-04
4.353849E+03	1.194423E-02	4.896488E-04
4.363744E+03	1.217775E-02	4.977589E-04
4.373639E+03	1.241340E-02	5.059167E-04
4.383535E+03	1.265115E-02	5.141214E-04
4.393430E+03	1.289038E-02	5.223482E-04
4.403325E+03	1.313195E-02	5.306338E-04
4.413220E+03	1.337556E-02	5.389666E-04
4.423115E+03	1.362092E-02	5.473353E-04
4.433010E+03	1.386833E-02	5.557534E-04
4.442905E+03	1.411811E-02	5.642343E-04
4.452800E+03	1.436967E-02	5.727564E-04
4.462695E+03	1.462335E-02	5.813337E-04
4.472591E+03	1.487888E-02	5.899573E-04
4.482486E+03	1.513663E-02	5.986422E-04
4.492381E+03	1.539632E-02	6.073800E-04
4.502276E+03	1.565804E-02	6.161746E-04
4.512171E+03	1.592156E-02	6.250186E-04
4.522066E+03	1.618752E-02	6.339396E-04
4.531961E+03	1.645544E-02	6.429189E-04
4.541856E+03	1.672568E-02	6.519729E-04
4.551751E+03	1.699777E-02	6.610839E-04
4.561647E+03	1.727179E-02	6.702574E-04
4.571542E+03	1.754785E-02	6.794990E-04
4.581437E+03	1.782549E-02	6.887924E-04
4.591332E+03	1.810454E-02	6.981327E-04
4.601227E+03	1.838512E-02	7.075268E-04
4.611122E+03	1.866678E-02	7.169594E-04
4.621017E+03	1.894939E-02	7.264269E-04
4.630912E+03	1.923279E-02	7.359258E-04
4.640807E+03	1.951654E-02	7.454420E-04
4.650703E+03	1.980024E-02	7.549616E-04
4.660598E+03	2.008404E-02	7.644932E-04
4.670493E+03	2.036752E-02	7.740232E-04
4.680388E+03	2.065055E-02	7.835496E-04
4.690283E+03	2.093244E-02	7.930483E-04
4.700178E+03	2.121334E-02	8.025283E-04
4.710073E+03	2.149285E-02	8.119769E-04
4.719968E+03	2.177083E-02	8.213914E-04
4.729863E+03	2.204656E-02	8.307479E-04
4.739759E+03	2.232050E-02	8.400667E-04
4.749654E+03	2.259222E-02	8.493338E-04
4.759549E+03	2.286155E-02	8.585467E-04
4.769444E+03	2.312832E-02	8.677013E-04
4.779339E+03	2.339240E-02	8.767958E-04
4.789234E+03	2.365358E-02	8.858252E-04
4.799129E+03	2.391167E-02	8.947854E-04
4.809024E+03	2.416652E-02	9.036737E-04
4.818919E+03	2.441760E-02	9.124729E-04
4.828815E+03	2.466470E-02	9.211788E-04
4.838710E+03	2.490793E-02	9.297975E-04
4.848605E+03	2.514644E-02	9.383002E-04
4.858500E+03	2.538028E-02	9.466924E-04
4.868395E+03	2.560922E-02	9.549669E-04
4.878290E+03	2.583327E-02	9.631280E-04
4.888185E+03	2.605216E-02	9.711670E-04
4.898080E+03	2.626562E-02	9.790775E-04
4.907975E+03	2.647391E-02	9.868708E-04
4.917871E+03	2.667705E-02	9.945494E-04
4.927766E+03	2.687442E-02	1.002091E-03
4.937661E+03	2.706659E-02	1.009517E-03
4.947556E+03	2.725323E-02	1.016816E-03
4.957451E+03	2.743460E-02	1.023998E-03
4.967346E+03	2.761034E-02	1.031050E-03
4.977241E+03	2.778130E-02	1.038003E-03
4.987136E+03	2.794649E-02	1.044820E-03
4.997031E+03	2.810677E-02	1.051534E-03
5.006927E+03	2.826200E-02	1.058138E-03
5.016822E+03	2.841245E-02	1.064642E-03
5.026717E+03	2.855769E-02	1.071031E-03
5.036612E+03	2.869854E-02	1.077333E-03
5.046507E+03	2.883458E-02	1.083533E-03
5.056402E+03	2.896601E-02	1.089638E-03
5.066297E+03	2.909331E-02	1.095664E-03
5.076192E+03	2.921637E-02	1.101606E-03
5.086087E+03	2.933537E-02	1.107471E-03
5.095983E+03	2.945048E-02	1.113265E-03
5.105878E+03	2.956188E-02	1.118991E-03
5.115773E+03	2.966975E-02	1.124658E-03
5.125668E+03	2.977399E-02	1.130259E-03
5.135563E+03	2.987501E-02	1.135809E-03
5.145458E+03	2.997305E-02	1.141316E-03
5.155353E+03	3.006823E-02	1.146783E-03
5.165248E+03	3.016076E-02	1.152218E-03
5.175143E+03	3.025049E-02	1.157614E-03
5.185039E+03	3.033792E-02	1.162987E-03
5.194934E+03	3.042289E-02	1.168332E-03
5.204829E+03	3.050621E-02	1.173678E-03
5.214724E+03	3.058745E-02	1.179007E-03
5.224619E+03	3.066677E-02	1.184325E-03
5.234514E+03	3.074469E-02	1.189650E-03
5.244409E+03	3.082140E-02	1.194989E-03
5.254304E+03	3.089676E-02	1.200335E-03
5.264199E+03	3.097097E-02	1.205694E-03
5.274095E+03	3.104454E-02	1.211087E-03
5.283990E+03	3.111739E-02	1.216508E-03
5.293885E+03	3.118967E-02	1.221963E-03
5.303780E+03	3.126134E-02	1.227449E-03
5.313675E+03	3.133290E-02	1.232985E-03
5.323570E+03	3.140458E-02	1.238579E-03
5.333465E+03	3.147626E-02	1.244226E-03
5.343360E+03	3.154792E-02	1.249924E-03
5.353255E+03	3.162006E-02	1.255692E-03
5.363151E+03	3.169297E-02	1.261542E-03
5.373046E+03	3.176623E-02	1.267455E-03
5.382941E+03	3.184042E-02	1.273455E-03
5.392836E+03	3.191548E-02	1.279539E-03
5.402731E+03	3.199172E-02	1.285718E-03
5.412626E+03	3.206906E-02	1.291988E-03
5.422521E+03	3.214781E-02	1.298363E-03
5.432416E+03	3.222791E-02	1.304838E-03
5.442311E+03	3.231002E-02	1.311440E-03
5.452207E+03	3.239408E-02	1.318167E-03
5.462102E+03	3.248012E-02	1.325021E-03
5.471997E+03	3.256782E-02	1.331986E-03
5.481892E+03	3.265780E-02	1.339090E-03
5.491787E+03	3.274943E-02	1.346305E-03
5.501682E+03	3.284275E-02	1.353634E-03
5.511577E+03	3.293807E-02	1.361089E-03
5.521472E+03	3.303509E-02	1.368658E-03
5.531368E+03	3.313388E-02	1.376342E-03
5.541263E+03	3.323445E-02	1.384144E-03
5.551158E+03	3.333652E-02	1.392051E-03
5.561053E+03	3.344045E-02	1.400077E-03
5.570948E+03	3.354598E-02	1.408213E-03
5.580843E+03	3.365316E-02	1.416459E-03
5.590738E+03	3.376173E-02	1.424805E-03
5.600633E+03	3.387172E-02	1.433253E-03
5.610528E+03	3.398322E-02	1.441806E-03
5.620424E+03	3.409600E-02	1.450453E-03
5.630319E+03	3.420973E-02	1.459181E-03
5.640214E+03	3.432486E-02	1.468009E-03
5.650109E+03	3.444081E-02	1.476912E-03
5.660004E+03	3.455765E-02	1.485892E-03
5.669899E+03	3.467544E-02	1.494952E-03
5.679794E+03	3.479398E-02	1.504083E-03
5.689689E+03	3.491298E-02	1.513273E-03
5.699584E+03	3.503220E-02	1.522510E-03
5.709480E+03	3.515207E-02	1.531813E-03
5.719375E+03	3.527198E-02	1.541155E-03
5.729270E+03	3.539172E-02	1.550526E-03
5.739165E+03	3.551169E-02	1.559944E-03
5.749060E+03	3.563129E-02	1.569381E-03
5.758955E+03	3.575030E-02	1.578827E-03
5.768850E+03	3.586877E-02	1.588284E-03
5.778745E+03	3.598613E-02	1.597725E-03
5.788640E+03	3.610276E-02	1.607168E-03
5.798536E+03	3.621844E-02	1.616600E-03
5.808431E+03	3.633252E-02	1.625994E-03
5.818326E+03	3.644513E-02	1.635352E-03
5.828221E+03	3.655629E-02	1.644676E-03
5.838116E+03	3.666538E-02	1.653937E-03
5.848011E+03	3.677213E-02	1.663121E-03
5.857906E+03	3.687695E-02	1.672245E-03
5.867801E+03	3.697887E-02	1.681265E-03
5.877696E+03	3.707826E-02	1.690195E-03
5.887592E+03	3.717516E-02	1.699037E-03
5.897487E+03	3.726861E-02	1.707745E-03
5.907382E+03	3.735896E-02	1.716334E-03
5.917277E+03	3.744554E-02	1.724772E-03
5.927172E+03	3.752876E-02	1.733075E-03
5.937067E+03	3.760826E-02	1.741225E-03
5.946962E+03	3.768374E-02	1.749208E-03
5.956857E+03	3.775517E-02	1.757019E-03
5.966752E+03	3.782223E-02	1.764643E-03
5.976648E+03	3.788493E-02	1.772077E-03
5.986543E+03	3.794324E-02	1.779320E-03
5.996438E+03	3.799683E-02	1.786352E-03
6.006333E+03	3.804599E-02	1.793187E-03
6.016228E+03	3.809039E-02	1.799806E-03
6.026123E+03	3.812999E-02	1.806207E-03
6.036018E+03	3.816475E-02	1.812384E-03
6.045913E+03	3.819500E-02	1.818352E-03
6.055808E+03	3.822032E-02	1.824090E-03
6.065704E+03	3.824104E-02	1.829610E-03
6.075599E+03	3.825708E-02	1.834908E-03
6.085494E+03	3.826878E-02	1.839997E-03
6.095389E+03	3.827604E-02	1.844872E-03
6.105284E+03	3.827951E-02	1.849562E-03
6.115179E+03	3.827878E-02	1.854045E-03
6.125074E+03	3.827415E-02	1.858336E-03
6.134969E+03	3.826623E-02	1.862461E-03
6.144864E+03	3.825495E-02	1.866417E-03
6.154760E+03	3.824097E-02	1.870233E-03
6.164655E+03	3.822383E-02	1.873888E-03
6.174550E+03	3.820454E-02	1.877428E-03
6.184445E+03	3.818267E-02	1.880833E-03
6.194340E+03	3.815818E-02	1.884098E-03
6.204235E+03	3.813168E-02	1.887252E-03
6.214130E+03	3.810243E-02	1.890259E-03
6.224025E+03	3.807104E-02	1.893146E-03
6.233920E+03	3.803675E-02	1.895876E-03
6.243816E+03	3.800019E-02	1.898478E-03
6.253711E+03	3.796092E-02	1.900928E-03
6.263606E+03	3.791886E-02	1.903224E-03
6.273501E+03	3.787390E-02	1.905356E-03
6.283396E+03	3.782597E-02	1.907321E-03
6.293291E+03	3.777498E-02	1.909113E-03
6.303186E+03	3.772115E-02	1.910741E-03
6.313081E+03	3.766404E-02	1.912182E-03
6.322976E+03	3.760390E-02	1.913449E-03
6.332872E+03	3.754020E-02	1.914511E-03
6.342767E+03	3.747324E-02	1.915384E-03
6.352662E+03	3.740250E-02	1.916039E-03
6.362557E+03	3.732823E-02	1.916487E-03
6.372452E+03	3.725027E-02	1.916720E-03
6.382347E+03	3.716815E-02	1.916711E-03
6.392242E+03	3.708174E-02	1.916453E-03
6.402137E+03	3.699124E-02	1.915953E-03
6.412032E+03	3.689617E-02	1.915187E-03
6.421928E+03	3.679637E-02	1.914143E-03
6.431823E+03	3.669210E-02	1.912834E-03
6.441718E+03	3.658359E-02	1.911270E-03
6.451613E+03	3.647032E-02	1.909423E-03
6.461508E+03	3.635293E-02	1.907324E-03
6.471403E+03	3.623203E-02	1.905004E-03
6.481298E+03	3.610676E-02	1.902416E-03
6.491193E+03	3.597849E-02	1.899633E-03
6.501088E+03	3.584677E-02	1.896627E-03
6.510984E+03	3.571187E-02	1.893413E-03
6.520879E+03	3.557445E-02	1.890026E-03
6.530774E+03	3.543368E-02	1.886420E-03
6.540669E+03	3.529061E-02	1.882649E-03
6.550564E+03	3.514520E-02	1.878711E-03
6.560459E+03	3.499738E-02	1.874602E-03
6.570354E+03	3.484714E-02	1.870320E-03
6.580249E+03	3.469477E-02	1.865881E-03
6.590144E+03	3.454030E-02	1.861285E-03
6.600040E+03	3.438406E-02	1.856549E-03
6.609935E+03	3.422570E-02	1.851654E-03
6.619830E+03	3.406560E-02	1.846621E-03
6.629725E+03	3.390376E-02	1.841448E-03
6.639620E+03	3.374022E-02	1.836138E-03
6.649515E+03	3.357501E-02	1.830691E-03
6.659410E+03	3.340820E-02	1.825112E-03
6.669305E+03	3.324020E-02	1.819421E-03
6.679200E+03	3.307034E-02	1.813583E-03
6.689096E+03	3.289943E-02	1.807641E-03
6.698991E+03	3.272718E-02	1.801579E-03
6.708886E+03	3.255370E-02	1.795403E-03
6.718781E+03	3.237904E-02	1.789115E-03
6.728676E+03	3.220336E-02	1.782724E-03
6.738571E+03	3.202673E-02	1.776235E-03
6.748466E+03	3.184929E-02	1.769654E-03
6.758361E+03	3.167113E-02	1.762986E-03
6.768256E+03	3.149203E-02	1.756220E-03
6.778152E+03	3.131247E-02	1.749382E-03
6.788047E+03	3.113260E-02	1.742480E-03
6.797942E+03	3.095182E-02	1.735480E-03
6.807837E+03	3.077137E-02	1.728453E-03
6.817732E+03	3.059027E-02	1.721344E-03
6.827627E+03	3.040903E-02	1.714181E-03
6.837522E+03	3.022817E-02	1.706994E-03
6.847417E+03	3.004709E-02	1.699749E-03
6.857312E+03	2.986596E-02	1.692456E-03
6.867208E+03	2.968525E-02	1.685142E-03
6.877103E+03	2.950511E-02	1.677816E-03
6.886998E+03	2.932529E-02	1.670464E-03
6.896893E+03	2.914597E-02	1.663096E-03
6.906788E+03	2.896726E-02	1.655719E-03
6.916683E+03	2.878929E-02	1.648342E-03
6.926578E+03	2.861215E-02	1.640969E-03
6.936473E+03	2.843569E-02	1.633592E-03
6.946368E+03	2.826031E-02	1.626235E-03
6.956264E+03	2.808612E-02	1.618905E-03
6.966159E+03	2.791259E-02	1.611572E-03
6.976054E+03	2.774047E-02	1.604279E-03
6.985949E+03	2.756954E-02	1.597015E-03
6.995844E+03	2.739954E-02	1.589764E-03
7.005739E+03	2.723126E-02	1.582574E-03
7.015634E+03	2.706407E-02	1.575408E-03
7.025529E+03	2.689809E-02	1.568274E-03
7.035425E+03	2.673371E-02	1.561194E-03
7.045320E+03	2.657101E-02	1.554175E-03
7.055215E+03	2.640938E-02	1.547182E-03
7.065110E+03	2.624957E-02	1.540259E-03
7.075005E+03	2.609127E-02	1.533388E-03
7.084900E+03	2.593423E-02	1.526555E-03
7.094795E+03	2.577915E-02	1.519803E-03
7.104690E+03	2.562541E-02	1.513095E-03
7.114585E+03	2.547341E-02	1.506455E-03
7.124481E+03	2.532279E-02	1.499863E-03
7.134376E+03	2.517398E-02	1.493346E-03
7.144271E+03	2.502664E-02	1.486882E-03
7.154166E+03	2.488114E-02	1.480496E-03
7.164061E+03	2.473717E-02	1.474170E-03
7.173956E+03	2.459473E-02	1.467903E-03
7.183851E+03	2.445388E-02	1.461700E-03
7.193746E+03	2.431491E-02	1.455579E-03
7.203641E+03	2.417721E-02	1.449505E-03
7.213537E+03	2.404142E-02	1.443516E-03
7.223432E+03	2.390724E-02	1.437595E-03
7.233327E+03	2.377464E-02	1.431740E-03
7.243222E+03	2.364366E-02	1.425955E-03
7.253117E+03	2.351429E-02	1.420239E-03
7.263012E+03	2.338650E-02	1.414592E-03
7.272907E+03	2.326064E-02	1.409035E-03
7.282802E+03	2.313636E-02	1.403549E-03
7.292697E+03	2.301367E-02	1.398133E-03
7.302593E+03	2.289286E-02	1.392805E-03
7.312488E+03	2.277363E-02	1.387550E-03
7.322383E+03	2.265656E-02	1.382402E-03
7.332278E+03	2.254104E-02	1.377325E-03
7.342173E+03	2.242770E-02	1.372358E-03
7.352068E+03	2.231618E-02	1.367480E-03
7.361963E+03	2.220648E-02	1.362691E-03
7.371858E+03	2.209921E-02	1.358030E-03
7.381753E+03	2.199375E-02	1.353459E-03
7.391649E+03	2.189068E-02	1.349013E-03
7.401544E+03	2.178967E-02	1.344676E-03
7.411439E+03	2.169107E-02	1.340467E-03
7.421334E+03	2.159420E-02	1.336346E-03
7.431229E+03	2.149968E-02	1.332352E-03
7.441124E+03	2.140690E-02	1.328447E-03
7.451019E+03	2.131646E-02	1.324670E-03
7.460914E+03	2.122772E-02	1.320983E-03
7.470809E+03	2.114070E-02	1.317385E-03
7.480705E+03	2.105568E-02	1.313895E-03
7.490600E+03	2.097235E-02	1.310495E-03
7.500495E+03	2.089099E-02	1.307204E-03
7.510390E+03	2.081132E-02	1.304002E-03
7.520285E+03	2.073332E-02	1.300891E-03
7.530180E+03	2.065725E-02	1.297887E-03
7.540075E+03	2.058285E-02	1.294973E-03
7.549970E+03	2.051007E-02	1.292147E-03
7.559865E+03	2.043919E-02	1.289428E-03
7.569761E+03	2.036993E-02	1.286797E-03
7.579656E+03	2.030255E-02	1.284271E-03
7.589551E+03	2.023673E-02	1.281831E-03
7.599446E+03	2.017278E-02	1.279497E-03
7.609341E+03	2.011067E-02	1.277267E-03
7.619236E+03	2.005008E-02	1.275122E-03
7.629131E+03	1.999160E-02	1.273099E-03
7.639026E+03	1.993490E-02	1.271178E-03
7.648921E+03	1.987969E-02	1.269340E-03
7.658817E+03	1.982653E-02	1.267623E-03
7.668712E+03	1.977541E-02	1.266024E-03
7.678607E+03	1.972573E-02	1.264507E-03
