#wls	flux	fluxerr
1.575579E+03	5.924343E-04	4.533487E-05
1.614968E+03	5.990345E-04	4.566352E-05
1.654357E+03	6.061554E-04	4.602353E-05
1.693747E+03	6.139403E-04	4.642505E-05
1.733136E+03	6.225407E-04	4.687863E-05
1.772526E+03	6.318884E-04	4.737813E-05
1.811915E+03	6.420287E-04	4.792594E-05
1.851305E+03	6.532425E-04	4.854182E-05
1.890694E+03	6.653563E-04	4.921155E-05
1.930084E+03	6.786655E-04	4.995557E-05
1.969473E+03	6.931208E-04	5.076862E-05
2.008863E+03	7.089162E-04	5.166319E-05
2.048252E+03	7.260102E-04	5.263434E-05
2.087642E+03	7.447389E-04	5.370434E-05
2.127031E+03	7.652034E-04	5.487804E-05
2.166420E+03	7.873806E-04	5.615115E-05
2.205810E+03	8.116467E-04	5.754768E-05
2.245199E+03	8.379946E-04	5.906388E-05
2.284589E+03	8.668323E-04	6.072500E-05
2.323978E+03	8.981680E-04	6.252764E-05
2.363368E+03	9.322973E-04	6.448811E-05
2.402757E+03	9.695319E-04	6.662321E-05
2.442147E+03	1.010047E-03	6.893967E-05
2.481536E+03	1.054017E-03	7.144377E-05
2.520926E+03	1.102100E-03	7.417370E-05
2.560315E+03	1.154329E-03	7.712461E-05
2.599705E+03	1.211051E-03	8.031205E-05
2.639094E+03	1.272609E-03	8.375064E-05
2.678484E+03	1.339340E-03	8.745347E-05
2.717873E+03	1.411749E-03	9.144387E-05
2.757262E+03	1.490155E-03	9.573171E-05
2.796652E+03	1.574659E-03	1.003122E-04
2.836041E+03	1.666133E-03	1.052289E-04
2.875431E+03	1.764489E-03	1.104632E-04
2.914820E+03	1.870719E-03	1.160631E-04
2.954210E+03	1.985153E-03	1.220341E-04
2.964057E+03	2.015193E-03	1.235922E-04
2.973904E+03	2.045920E-03	1.251827E-04
2.983752E+03	2.077349E-03	1.268065E-04
2.993599E+03	2.109277E-03	1.284508E-04
3.003447E+03	2.142171E-03	1.301437E-04
3.013294E+03	2.175609E-03	1.318591E-04
3.023141E+03	2.209841E-03	1.336120E-04
3.032989E+03	2.244669E-03	1.353900E-04
3.042836E+03	2.280583E-03	1.372223E-04
3.052683E+03	2.317395E-03	1.390972E-04
3.062531E+03	2.355147E-03	1.410166E-04
3.072378E+03	2.393885E-03	1.429830E-04
3.082226E+03	2.433658E-03	1.449988E-04
3.092073E+03	2.474522E-03	1.470668E-04
3.101920E+03	2.516775E-03	1.492042E-04
3.111768E+03	2.560244E-03	1.514001E-04
3.121615E+03	2.604994E-03	1.536578E-04
3.131462E+03	2.651342E-03	1.559954E-04
3.141310E+03	2.699121E-03	1.584023E-04
3.151157E+03	2.748656E-03	1.608968E-04
3.161004E+03	2.799781E-03	1.634686E-04
3.170852E+03	2.852829E-03	1.661361E-04
3.180699E+03	2.907887E-03	1.689037E-04
3.190547E+03	2.964788E-03	1.717606E-04
3.200394E+03	3.023868E-03	1.747256E-04
3.210241E+03	3.085473E-03	1.778174E-04
3.220089E+03	3.149163E-03	1.810097E-04
3.229936E+03	3.215274E-03	1.843207E-04
3.239783E+03	3.283873E-03	1.877533E-04
3.249631E+03	3.355023E-03	1.913097E-04
3.259478E+03	3.429046E-03	1.950072E-04
3.269325E+03	3.505718E-03	1.988318E-04
3.279173E+03	3.585068E-03	2.027838E-04
3.289020E+03	3.667392E-03	2.068788E-04
3.298868E+03	3.752413E-03	2.110998E-04
3.308715E+03	3.840405E-03	2.154610E-04
3.318562E+03	3.931342E-03	2.199595E-04
3.328410E+03	4.024892E-03	2.245756E-04
3.338257E+03	4.121283E-03	2.293207E-04
3.348104E+03	4.220434E-03	2.341890E-04
3.357952E+03	4.322547E-03	2.391906E-04
3.367799E+03	4.426906E-03	2.442845E-04
3.377646E+03	4.533982E-03	2.494957E-04
3.387494E+03	4.643010E-03	2.547811E-04
3.397341E+03	4.754746E-03	2.601811E-04
3.407189E+03	4.868386E-03	2.656508E-04
3.417036E+03	4.983729E-03	2.711784E-04
3.426883E+03	5.100876E-03	2.767688E-04
3.436731E+03	5.219608E-03	2.824093E-04
3.446578E+03	5.339692E-03	2.880868E-04
3.456425E+03	5.460554E-03	2.937698E-04
3.466273E+03	5.582611E-03	2.994806E-04
3.476120E+03	5.705282E-03	3.051877E-04
3.485968E+03	5.828656E-03	3.108957E-04
3.495815E+03	5.952152E-03	3.165736E-04
3.505662E+03	6.075528E-03	3.222085E-04
3.515510E+03	6.198892E-03	3.278066E-04
3.525357E+03	6.322027E-03	3.333567E-04
3.535204E+03	6.444730E-03	3.388482E-04
3.545052E+03	6.566815E-03	3.442721E-04
3.554899E+03	6.687762E-03	3.496015E-04
3.564746E+03	6.808481E-03	3.548847E-04
3.574594E+03	6.927786E-03	3.600605E-04
3.584441E+03	7.046293E-03	3.651617E-04
3.594289E+03	7.163926E-03	3.701850E-04
3.604136E+03	7.280274E-03	3.751099E-04
3.613983E+03	7.395671E-03	3.799546E-04
3.623831E+03	7.510102E-03	3.847191E-04
3.633678E+03	7.623928E-03	3.894225E-04
3.643525E+03	7.736460E-03	3.940304E-04
3.653373E+03	7.848418E-03	3.985803E-04
3.663220E+03	7.959471E-03	4.030562E-04
3.673067E+03	8.070335E-03	4.074949E-04
3.682915E+03	8.179944E-03	4.118434E-04
3.692762E+03	8.289315E-03	4.161536E-04
3.702610E+03	8.398031E-03	4.204053E-04
3.712457E+03	8.505991E-03	4.245942E-04
3.722304E+03	8.613039E-03	4.287133E-04
3.732152E+03	8.718973E-03	4.327534E-04
3.741999E+03	8.823871E-03	4.367195E-04
3.751846E+03	8.927414E-03	4.405967E-04
3.761694E+03	9.028877E-03	4.443506E-04
3.771541E+03	9.128163E-03	4.479777E-04
3.781388E+03	9.225112E-03	4.514717E-04
3.791236E+03	9.318506E-03	4.547747E-04
3.801083E+03	9.408104E-03	4.578770E-04
3.810931E+03	9.493612E-03	4.607665E-04
3.820778E+03	9.574387E-03	4.634143E-04
3.830625E+03	9.649145E-03	4.657609E-04
3.840473E+03	9.718201E-03	4.678244E-04
3.850320E+03	9.780303E-03	4.695476E-04
3.860167E+03	9.835180E-03	4.709207E-04
3.870015E+03	9.881993E-03	4.719070E-04
3.879862E+03	9.920870E-03	4.725163E-04
3.889710E+03	9.951105E-03	4.727185E-04
3.899557E+03	9.972369E-03	4.725018E-04
3.909404E+03	9.984146E-03	4.718455E-04
3.919252E+03	9.986877E-03	4.707744E-04
3.929099E+03	9.980508E-03	4.692896E-04
3.938946E+03	9.964530E-03	4.673708E-04
3.948794E+03	9.939657E-03	4.650551E-04
3.958641E+03	9.905853E-03	4.623443E-04
3.968488E+03	9.863449E-03	4.592569E-04
3.978336E+03	9.812864E-03	4.558157E-04
3.988183E+03	9.754585E-03	4.520460E-04
3.998031E+03	9.689395E-03	4.479867E-04
4.007878E+03	9.617414E-03	4.436455E-04
4.017725E+03	9.539761E-03	4.390762E-04
4.027573E+03	9.456660E-03	4.342906E-04
4.037420E+03	9.369048E-03	4.293335E-04
4.047267E+03	9.277652E-03	4.242393E-04
4.057115E+03	9.183000E-03	4.190331E-04
4.066962E+03	9.085853E-03	4.137501E-04
4.076809E+03	8.987156E-03	4.084339E-04
4.086657E+03	8.887261E-03	4.031007E-04
4.096504E+03	8.786922E-03	3.977846E-04
4.106352E+03	8.687052E-03	3.925268E-04
4.116199E+03	8.588179E-03	3.873506E-04
4.126046E+03	8.490842E-03	3.822798E-04
4.135894E+03	8.395896E-03	3.773521E-04
4.145741E+03	8.303688E-03	3.725822E-04
4.155588E+03	8.215037E-03	3.680059E-04
4.165436E+03	8.130432E-03	3.636439E-04
4.175283E+03	8.050201E-03	3.595099E-04
4.185130E+03	7.975260E-03	3.556434E-04
4.194978E+03	7.905785E-03	3.520511E-04
4.204825E+03	7.842506E-03	3.487642E-04
4.214673E+03	7.785866E-03	3.458011E-04
4.224520E+03	7.736290E-03	3.431794E-04
4.234367E+03	7.694199E-03	3.409164E-04
4.244215E+03	7.660001E-03	3.390292E-04
4.254062E+03	7.634088E-03	3.375338E-04
4.263909E+03	7.616947E-03	3.364508E-04
4.273757E+03	7.608901E-03	3.357935E-04
4.283604E+03	7.610101E-03	3.355676E-04
4.293452E+03	7.620752E-03	3.357816E-04
4.303299E+03	7.641055E-03	3.364437E-04
4.313146E+03	7.670863E-03	3.375470E-04
4.322994E+03	7.710078E-03	3.390872E-04
4.332841E+03	7.758633E-03	3.410612E-04
4.342688E+03	7.816483E-03	3.434672E-04
4.352536E+03	7.883626E-03	3.463053E-04
4.362383E+03	7.959556E-03	3.495533E-04
4.372230E+03	8.044087E-03	3.532033E-04
4.382078E+03	8.136685E-03	3.572320E-04
4.391925E+03	8.236588E-03	3.616065E-04
4.401773E+03	8.343415E-03	3.663106E-04
4.411620E+03	8.456232E-03	3.713041E-04
4.421467E+03	8.574282E-03	3.765544E-04
4.431315E+03	8.696846E-03	3.820308E-04
4.441162E+03	8.822813E-03	3.876854E-04
4.451009E+03	8.951500E-03	3.934891E-04
4.460857E+03	9.081952E-03	3.994007E-04
4.470704E+03	9.213091E-03	4.053736E-04
4.480551E+03	9.344198E-03	4.113769E-04
4.490399E+03	9.474084E-03	4.173590E-04
4.500246E+03	9.602083E-03	4.232911E-04
4.510094E+03	9.727216E-03	4.291303E-04
4.519941E+03	9.848817E-03	4.348476E-04
4.529788E+03	9.966304E-03	4.404173E-04
4.539636E+03	1.007881E-02	4.458013E-04
4.549483E+03	1.018620E-02	4.509932E-04
4.559330E+03	1.028783E-02	4.559639E-04
4.569178E+03	1.038353E-02	4.607058E-04
4.579025E+03	1.047311E-02	4.652101E-04
4.588872E+03	1.055653E-02	4.694732E-04
4.598720E+03	1.063380E-02	4.734957E-04
4.608567E+03	1.070505E-02	4.772817E-04
4.618415E+03	1.077035E-02	4.808340E-04
4.628262E+03	1.083021E-02	4.841739E-04
4.638109E+03	1.088471E-02	4.873036E-04
4.647957E+03	1.093417E-02	4.902370E-04
4.657804E+03	1.097897E-02	4.929893E-04
4.667651E+03	1.101947E-02	4.955759E-04
4.677499E+03	1.105602E-02	4.980117E-04
4.687346E+03	1.108896E-02	5.003103E-04
4.697194E+03	1.111859E-02	5.024846E-04
4.707041E+03	1.114519E-02	5.045457E-04
4.716888E+03	1.116896E-02	5.065027E-04
4.726736E+03	1.119011E-02	5.083631E-04
4.736583E+03	1.120900E-02	5.101434E-04
4.746430E+03	1.122564E-02	5.118416E-04
4.756278E+03	1.124019E-02	5.134657E-04
4.766125E+03	1.125270E-02	5.150160E-04
4.775972E+03	1.126344E-02	5.165041E-04
4.785820E+03	1.127239E-02	5.179285E-04
4.795667E+03	1.127953E-02	5.192879E-04
4.805515E+03	1.128499E-02	5.205864E-04
4.815362E+03	1.128888E-02	5.218287E-04
4.825209E+03	1.129120E-02	5.230137E-04
4.835057E+03	1.129221E-02	5.241529E-04
4.844904E+03	1.129169E-02	5.252355E-04
4.854751E+03	1.128995E-02	5.262749E-04
4.864599E+03	1.128719E-02	5.272793E-04
4.874446E+03	1.128337E-02	5.282465E-04
4.884293E+03	1.127872E-02	5.291868E-04
4.894141E+03	1.127337E-02	5.301050E-04
4.903988E+03	1.126756E-02	5.310123E-04
4.913836E+03	1.126142E-02	5.319143E-04
4.923683E+03	1.125496E-02	5.328109E-04
4.933530E+03	1.124854E-02	5.337187E-04
4.943378E+03	1.124227E-02	5.346424E-04
4.953225E+03	1.123610E-02	5.355798E-04
4.963072E+03	1.123022E-02	5.365393E-04
4.972920E+03	1.122466E-02	5.375222E-04
4.982767E+03	1.121953E-02	5.385333E-04
4.992614E+03	1.121467E-02	5.395649E-04
5.002462E+03	1.121000E-02	5.406130E-04
5.012309E+03	1.120564E-02	5.416832E-04
5.022157E+03	1.120119E-02	5.427556E-04
5.032004E+03	1.119657E-02	5.438264E-04
5.041851E+03	1.119155E-02	5.448841E-04
5.051699E+03	1.118599E-02	5.459210E-04
5.061546E+03	1.117936E-02	5.469107E-04
5.071393E+03	1.117158E-02	5.478488E-04
5.081241E+03	1.116232E-02	5.487185E-04
5.091088E+03	1.115112E-02	5.494963E-04
5.100935E+03	1.113766E-02	5.501650E-04
5.110783E+03	1.112170E-02	5.507127E-04
5.120630E+03	1.110295E-02	5.511224E-04
5.130478E+03	1.108098E-02	5.513729E-04
5.140325E+03	1.105567E-02	5.514555E-04
5.150172E+03	1.102679E-02	5.513581E-04
5.160020E+03	1.099407E-02	5.510651E-04
5.169867E+03	1.095738E-02	5.505691E-04
5.179714E+03	1.091681E-02	5.498716E-04
5.189562E+03	1.087235E-02	5.489720E-04
5.199409E+03	1.082388E-02	5.478614E-04
5.209257E+03	1.077179E-02	5.465578E-04
5.219104E+03	1.071618E-02	5.450658E-04
5.228951E+03	1.065737E-02	5.433992E-04
5.238799E+03	1.059573E-02	5.415757E-04
5.248646E+03	1.053159E-02	5.396112E-04
5.258493E+03	1.046544E-02	5.375296E-04
5.268341E+03	1.039783E-02	5.353586E-04
5.278188E+03	1.032935E-02	5.331275E-04
5.288035E+03	1.026052E-02	5.308622E-04
5.297883E+03	1.019196E-02	5.285955E-04
5.307730E+03	1.012420E-02	5.263548E-04
5.317578E+03	1.005788E-02	5.241733E-04
5.327425E+03	9.993397E-03	5.220718E-04
5.337272E+03	9.931401E-03	5.200855E-04
5.347120E+03	9.872189E-03	5.182304E-04
5.356967E+03	9.816191E-03	5.165304E-04
5.366814E+03	9.763542E-03	5.149934E-04
5.376662E+03	9.714388E-03	5.136285E-04
5.386509E+03	9.668780E-03	5.124395E-04
5.396356E+03	9.626765E-03	5.114301E-04
5.406204E+03	9.588344E-03	5.106016E-04
5.416051E+03	9.553417E-03	5.099500E-04
5.425899E+03	9.522115E-03	5.094834E-04
5.435746E+03	9.494658E-03	5.092149E-04
5.445593E+03	9.470914E-03	5.091388E-04
5.455441E+03	9.451058E-03	5.092657E-04
5.465288E+03	9.434999E-03	5.095922E-04
5.475135E+03	9.422469E-03	5.101050E-04
5.484983E+03	9.413444E-03	5.108042E-04
5.494830E+03	9.407378E-03	5.116612E-04
5.504677E+03	9.404270E-03	5.126770E-04
5.514525E+03	9.403544E-03	5.138213E-04
5.524372E+03	9.404994E-03	5.150834E-04
5.534220E+03	9.408245E-03	5.164435E-04
5.544067E+03	9.413033E-03	5.178878E-04
5.553914E+03	9.419015E-03	5.193978E-04
5.563762E+03	9.425889E-03	5.209572E-04
5.573609E+03	9.433368E-03	5.225503E-04
5.583456E+03	9.441404E-03	5.241746E-04
5.593304E+03	9.449582E-03	5.258072E-04
5.603151E+03	9.457813E-03	5.274430E-04
5.612999E+03	9.466024E-03	5.290781E-04
5.622846E+03	9.473979E-03	5.306990E-04
5.632693E+03	9.481654E-03	5.323042E-04
5.642541E+03	9.488855E-03	5.338827E-04
5.652388E+03	9.495583E-03	5.354342E-04
5.662235E+03	9.501762E-03	5.369543E-04
5.672083E+03	9.507322E-03	5.384388E-04
5.681930E+03	9.512209E-03	5.398842E-04
5.691777E+03	9.516264E-03	5.412813E-04
5.701625E+03	9.519633E-03	5.426379E-04
5.711472E+03	9.522169E-03	5.439454E-04
5.721320E+03	9.523737E-03	5.451958E-04
5.731167E+03	9.524488E-03	5.463972E-04
5.741014E+03	9.524193E-03	5.475362E-04
5.750862E+03	9.522917E-03	5.486162E-04
5.760709E+03	9.520631E-03	5.496350E-04
5.770556E+03	9.517316E-03	5.505912E-04
5.780404E+03	9.512954E-03	5.514832E-04
5.790251E+03	9.507434E-03	5.523043E-04
5.800098E+03	9.500756E-03	5.530540E-04
5.809946E+03	9.493022E-03	5.537378E-04
5.819793E+03	9.484138E-03	5.543499E-04
5.829641E+03	9.474128E-03	5.548911E-04
5.839488E+03	9.462911E-03	5.553565E-04
5.849335E+03	9.450715E-03	5.557588E-04
5.859183E+03	9.437368E-03	5.560877E-04
5.869030E+03	9.422912E-03	5.563451E-04
5.878877E+03	9.407380E-03	5.565327E-04
5.888725E+03	9.390718E-03	5.566469E-04
5.898572E+03	9.373059E-03	5.566951E-04
5.908419E+03	9.354444E-03	5.566795E-04
5.918267E+03	9.334622E-03	5.565848E-04
5.928114E+03	9.313911E-03	5.564296E-04
5.937962E+03	9.292061E-03	5.561986E-04
5.947809E+03	9.269193E-03	5.558986E-04
5.957656E+03	9.245341E-03	5.555315E-04
5.967504E+03	9.220338E-03	5.550867E-04
5.977351E+03	9.194307E-03	5.545714E-04
5.987198E+03	9.167080E-03	5.539751E-04
5.997046E+03	9.138775E-03	5.533046E-04
6.006893E+03	9.109335E-03	5.525559E-04
6.016741E+03	9.078777E-03	5.517299E-04
6.026588E+03	9.046956E-03	5.508174E-04
6.036435E+03	9.014093E-03	5.498314E-04
6.046283E+03	8.980039E-03	5.487625E-04
6.056130E+03	8.944933E-03	5.476189E-04
6.065977E+03	8.908642E-03	5.463920E-04
6.075825E+03	8.871312E-03	5.450906E-04
6.085672E+03	8.833091E-03	5.437233E-04
6.095519E+03	8.793844E-03	5.422818E-04
6.105367E+03	8.753731E-03	5.407754E-04
6.115214E+03	8.712806E-03	5.392074E-04
6.125062E+03	8.671126E-03	5.375811E-04
6.134909E+03	8.628648E-03	5.358935E-04
6.144756E+03	8.585694E-03	5.341645E-04
6.154604E+03	8.542034E-03	5.323797E-04
6.164451E+03	8.497980E-03	5.305584E-04
6.174298E+03	8.453476E-03	5.286970E-04
6.184146E+03	8.408549E-03	5.267971E-04
6.193993E+03	8.363317E-03	5.248660E-04
6.203840E+03	8.317806E-03	5.229053E-04
6.213688E+03	8.272055E-03	5.209175E-04
6.223535E+03	8.226092E-03	5.189043E-04
6.233383E+03	8.179971E-03	5.168691E-04
6.243230E+03	8.133919E-03	5.148262E-04
6.253077E+03	8.087752E-03	5.127641E-04
6.262925E+03	8.041818E-03	5.107049E-04
6.272772E+03	7.996145E-03	5.086506E-04
6.282619E+03	7.950780E-03	5.066042E-04
6.292467E+03	7.905965E-03	5.045814E-04
6.302314E+03	7.861879E-03	5.025938E-04
6.312161E+03	7.818712E-03	5.006540E-04
6.322009E+03	7.776583E-03	4.987698E-04
6.331856E+03	7.735788E-03	4.969607E-04
6.341704E+03	7.696527E-03	4.952399E-04
6.351551E+03	7.658903E-03	4.936148E-04
6.361398E+03	7.623066E-03	4.920955E-04
6.371246E+03	7.589200E-03	4.906945E-04
6.381093E+03	7.557253E-03	4.894092E-04
6.390940E+03	7.527264E-03	4.882426E-04
6.400788E+03	7.498998E-03	4.871803E-04
6.410635E+03	7.472304E-03	4.862129E-04
6.420483E+03	7.446799E-03	4.853160E-04
6.430330E+03	7.422426E-03	4.844862E-04
6.440177E+03	7.399106E-03	4.837187E-04
6.450025E+03	7.377183E-03	4.830364E-04
6.459872E+03	7.357015E-03	4.824632E-04
6.469719E+03	7.339005E-03	4.820259E-04
6.479567E+03	7.323296E-03	4.817348E-04
6.489414E+03	7.310161E-03	4.816085E-04
6.499261E+03	7.299615E-03	4.816486E-04
6.509109E+03	7.291592E-03	4.818517E-04
6.518956E+03	7.286055E-03	4.822161E-04
6.528804E+03	7.282829E-03	4.827308E-04
6.538651E+03	7.281801E-03	4.833891E-04
6.548498E+03	7.282675E-03	4.841719E-04
6.558346E+03	7.285397E-03	4.850761E-04
6.568193E+03	7.289672E-03	4.860826E-04
6.578040E+03	7.295379E-03	4.871838E-04
6.587888E+03	7.302422E-03	4.883737E-04
6.597735E+03	7.310544E-03	4.896354E-04
6.607582E+03	7.319688E-03	4.909653E-04
6.617430E+03	7.329732E-03	4.923557E-04
6.627277E+03	7.340665E-03	4.938059E-04
6.637125E+03	7.352322E-03	4.953051E-04
6.646972E+03	7.364734E-03	4.968556E-04
6.656819E+03	7.377867E-03	4.984553E-04
6.666667E+03	7.391695E-03	5.001024E-04
6.676514E+03	7.406216E-03	5.017973E-04
6.686361E+03	7.421527E-03	5.035466E-04
6.696209E+03	7.437648E-03	5.053518E-04
6.706056E+03	7.454607E-03	5.072150E-04
6.715903E+03	7.472353E-03	5.091331E-04
6.725751E+03	7.491101E-03	5.111208E-04
6.735598E+03	7.510811E-03	5.131757E-04
6.745446E+03	7.531527E-03	5.153010E-04
6.755293E+03	7.553291E-03	5.174998E-04
6.765140E+03	7.576244E-03	5.197822E-04
6.774988E+03	7.600439E-03	5.221521E-04
6.784835E+03	7.625718E-03	5.245989E-04
6.794682E+03	7.652416E-03	5.271458E-04
6.804530E+03	7.680377E-03	5.297826E-04
6.814377E+03	7.709726E-03	5.325183E-04
6.824225E+03	7.740504E-03	5.353558E-04
6.834072E+03	7.772631E-03	5.382902E-04
6.843919E+03	7.806326E-03	5.413369E-04
6.853767E+03	7.841417E-03	5.444843E-04
6.863614E+03	7.877911E-03	5.477333E-04
6.873461E+03	7.916020E-03	5.510990E-04
6.883309E+03	7.955550E-03	5.545682E-04
6.893156E+03	7.996597E-03	5.581481E-04
6.903003E+03	8.039059E-03	5.618317E-04
6.912851E+03	8.083123E-03	5.656326E-04
6.922698E+03	8.128567E-03	5.695356E-04
6.932546E+03	8.175365E-03	5.735392E-04
6.942393E+03	8.223585E-03	5.776484E-04
6.952240E+03	8.273184E-03	5.818605E-04
6.962088E+03	8.323896E-03	5.861571E-04
6.971935E+03	8.375984E-03	5.905571E-04
6.981782E+03	8.429039E-03	5.950319E-04
6.991630E+03	8.483201E-03	5.995914E-04
7.001477E+03	8.538148E-03	6.042133E-04
7.011324E+03	8.593988E-03	6.089052E-04
7.021172E+03	8.650376E-03	6.136429E-04
7.031019E+03	8.707287E-03	6.184247E-04
7.040867E+03	8.764456E-03	6.232318E-04
7.050714E+03	8.821838E-03	6.280610E-04
7.060561E+03	8.879150E-03	6.328922E-04
7.070409E+03	8.936203E-03	6.377117E-04
7.080256E+03	8.992815E-03	6.425066E-04
7.090103E+03	9.048665E-03	6.472535E-04
7.099951E+03	9.103668E-03	6.519462E-04
7.109798E+03	9.157505E-03	6.565615E-04
7.119645E+03	9.209972E-03	6.610845E-04
7.129493E+03	9.260737E-03	6.654910E-04
7.139340E+03	9.309724E-03	6.697749E-04
7.149188E+03	9.356625E-03	6.739136E-04
7.159035E+03	9.401132E-03	6.778842E-04
7.168882E+03	9.443199E-03	6.816831E-04
7.178730E+03	9.482550E-03	6.852894E-04
7.188577E+03	9.518937E-03	6.886845E-04
7.198424E+03	9.552118E-03	6.918503E-04
7.208272E+03	9.582264E-03	6.947982E-04
7.218119E+03	9.608934E-03	6.974955E-04
7.227967E+03	9.632234E-03	6.999491E-04
7.237814E+03	9.652039E-03	7.021490E-04
7.247661E+03	9.668259E-03	7.040878E-04
7.257509E+03	9.680964E-03	7.057699E-04
7.267356E+03	9.690258E-03	7.072019E-04
7.277203E+03	9.696014E-03	7.083737E-04
7.287051E+03	9.698522E-03	7.093058E-04
7.296898E+03	9.697729E-03	7.099935E-04
7.306745E+03	9.694098E-03	7.104699E-04
7.316593E+03	9.687614E-03	7.107335E-04
7.326440E+03	9.678533E-03	7.108022E-04
7.336288E+03	9.667250E-03	7.107045E-04
7.346135E+03	9.654035E-03	7.104599E-04
7.355982E+03	9.639165E-03	7.100882E-04
7.365830E+03	9.622905E-03	7.096088E-04
7.375677E+03	9.605776E-03	7.090597E-04
7.385524E+03	9.587889E-03	7.084491E-04
7.395372E+03	9.569473E-03	7.077936E-04
7.405219E+03	9.550972E-03	7.071261E-04
7.415066E+03	9.532557E-03	7.064592E-04
7.424914E+03	9.514366E-03	7.058032E-04
7.434761E+03	9.496614E-03	7.051742E-04
7.444609E+03	9.479234E-03	7.045673E-04
7.454456E+03	9.462498E-03	7.040028E-04
7.464303E+03	9.446255E-03	7.034697E-04
7.474151E+03	9.430689E-03	7.029817E-04
7.483998E+03	9.415439E-03	7.025122E-04
7.493845E+03	9.400616E-03	7.020694E-04
7.503693E+03	9.386029E-03	7.016392E-04
7.513540E+03	9.371460E-03	7.012054E-04
7.523387E+03	9.356659E-03	7.007493E-04
7.533235E+03	9.341346E-03	7.002499E-04
7.543082E+03	9.325220E-03	6.996844E-04
7.552930E+03	9.308208E-03	6.990474E-04
7.562777E+03	9.289601E-03	6.982852E-04
7.572624E+03	9.269430E-03	6.973999E-04
7.582472E+03	9.247232E-03	6.963564E-04
7.592319E+03	9.222527E-03	6.951181E-04
7.602166E+03	9.195115E-03	6.936695E-04
7.612014E+03	9.164801E-03	6.919953E-04
7.621861E+03	9.131027E-03	6.900528E-04
7.631709E+03	9.093775E-03	6.878399E-04
7.641556E+03	9.052539E-03	6.853178E-04
