#wls	flux	fluxerr
1.575579E+03	3.306907E-04	1.015202E-05
1.614968E+03	3.337213E-04	1.022506E-05
1.654357E+03	3.369330E-04	1.030275E-05
1.693747E+03	3.403977E-04	1.038721E-05
1.733136E+03	3.440711E-04	1.047702E-05
1.772526E+03	3.480880E-04	1.057620E-05
1.811915E+03	3.523463E-04	1.068157E-05
1.851305E+03	3.569245E-04	1.079540E-05
1.890694E+03	3.617809E-04	1.091634E-05
1.930084E+03	3.670606E-04	1.104865E-05
1.969473E+03	3.726626E-04	1.118917E-05
2.008863E+03	3.786740E-04	1.134039E-05
2.048252E+03	3.851222E-04	1.150299E-05
2.087642E+03	3.920368E-04	1.167768E-05
2.127031E+03	3.994495E-04	1.186525E-05
2.166420E+03	4.073950E-04	1.206654E-05
2.205810E+03	4.159105E-04	1.228244E-05
2.245199E+03	4.250367E-04	1.251393E-05
2.284589E+03	4.348174E-04	1.276208E-05
2.323978E+03	4.453734E-04	1.303014E-05
2.363368E+03	4.566121E-04	1.331512E-05
2.402757E+03	4.687378E-04	1.362267E-05
2.442147E+03	4.817396E-04	1.395211E-05
2.481536E+03	4.956852E-04	1.430502E-05
2.520926E+03	5.106487E-04	1.468314E-05
2.560315E+03	5.267115E-04	1.508834E-05
2.599705E+03	5.440486E-04	1.552513E-05
2.639094E+03	5.626762E-04	1.599341E-05
2.678484E+03	5.827934E-04	1.649824E-05
2.717873E+03	6.044337E-04	1.703986E-05
2.757262E+03	6.277278E-04	1.762123E-05
2.796652E+03	6.529186E-04	1.824835E-05
2.836041E+03	6.800716E-04	1.892214E-05
2.875431E+03	7.094658E-04	1.964935E-05
2.914820E+03	7.411926E-04	2.043140E-05
2.954210E+03	7.754576E-04	2.127275E-05
2.964057E+03	7.845156E-04	2.149481E-05
2.973904E+03	7.936265E-04	2.171758E-05
2.983752E+03	8.030276E-04	2.194752E-05
2.993599E+03	8.126058E-04	2.218152E-05
3.003447E+03	8.223652E-04	2.241967E-05
3.013294E+03	8.323099E-04	2.266205E-05
3.023141E+03	8.424435E-04	2.290874E-05
3.032989E+03	8.527695E-04	2.315981E-05
3.042836E+03	8.634180E-04	2.341877E-05
3.052683E+03	8.741426E-04	2.367888E-05
3.062531E+03	8.852010E-04	2.394713E-05
3.072378E+03	8.963404E-04	2.421662E-05
3.082226E+03	9.078249E-04	2.449449E-05
3.092073E+03	9.195293E-04	2.477730E-05
3.101920E+03	9.314586E-04	2.506516E-05
3.111768E+03	9.434810E-04	2.535451E-05
3.121615E+03	9.560089E-04	2.565639E-05
3.131462E+03	9.686395E-04	2.595994E-05
3.141310E+03	9.815127E-04	2.626890E-05
3.151157E+03	9.946331E-04	2.658335E-05
3.161004E+03	1.008150E-03	2.690724E-05
3.170852E+03	1.021782E-03	2.723302E-05
3.180699E+03	1.035823E-03	2.756850E-05
3.190547E+03	1.049986E-03	2.790598E-05
3.200394E+03	1.064571E-03	2.825343E-05
3.210241E+03	1.079437E-03	2.860703E-05
3.220089E+03	1.094589E-03	2.896689E-05
3.229936E+03	1.110032E-03	2.933308E-05
3.239783E+03	1.125771E-03	2.970573E-05
3.249631E+03	1.141811E-03	3.008491E-05
3.259478E+03	1.158159E-03	3.047073E-05
3.269325E+03	1.174983E-03	3.086760E-05
3.279173E+03	1.191963E-03	3.126704E-05
3.289020E+03	1.209434E-03	3.167782E-05
3.298868E+03	1.227069E-03	3.209130E-05
3.308715E+03	1.245210E-03	3.251639E-05
3.318562E+03	1.263695E-03	3.294881E-05
3.328410E+03	1.282531E-03	3.338867E-05
3.338257E+03	1.301723E-03	3.383605E-05
3.348104E+03	1.321276E-03	3.429106E-05
3.357952E+03	1.341198E-03	3.475379E-05
3.367799E+03	1.361493E-03	3.522436E-05
3.377646E+03	1.382167E-03	3.570284E-05
3.387494E+03	1.403418E-03	3.619426E-05
3.397341E+03	1.424872E-03	3.668893E-05
3.407189E+03	1.446723E-03	3.719181E-05
3.417036E+03	1.469176E-03	3.770808E-05
3.426883E+03	1.492043E-03	3.823285E-05
3.436731E+03	1.515128E-03	3.876104E-05
3.446578E+03	1.538841E-03	3.930307E-05
3.456425E+03	1.562986E-03	3.985389E-05
3.466273E+03	1.587570E-03	4.041358E-05
3.476120E+03	1.612600E-03	4.098225E-05
3.485968E+03	1.638080E-03	4.155997E-05
3.495815E+03	1.664018E-03	4.214683E-05
3.505662E+03	1.690420E-03	4.274292E-05
3.515510E+03	1.717291E-03	4.334830E-05
3.525357E+03	1.744867E-03	4.396885E-05
3.535204E+03	1.772697E-03	4.459314E-05
3.545052E+03	1.801251E-03	4.523287E-05
3.554899E+03	1.830065E-03	4.587636E-05
3.564746E+03	1.859620E-03	4.653556E-05
3.574594E+03	1.889440E-03	4.719850E-05
3.584441E+03	1.920019E-03	4.787744E-05
3.594289E+03	1.951120E-03	4.856635E-05
3.604136E+03	1.982749E-03	4.926531E-05
3.613983E+03	2.014910E-03	4.997434E-05
3.623831E+03	2.047346E-03	5.068698E-05
3.633678E+03	2.080584E-03	5.141622E-05
3.643525E+03	2.114369E-03	5.215563E-05
3.653373E+03	2.148979E-03	5.291200E-05
3.663220E+03	2.183875E-03	5.367193E-05
3.673067E+03	2.219331E-03	5.444208E-05
3.682915E+03	2.255350E-03	5.522245E-05
3.692762E+03	2.291936E-03	5.601303E-05
3.702610E+03	2.329384E-03	5.682097E-05
3.712457E+03	2.367115E-03	5.763198E-05
3.722304E+03	2.405419E-03	5.845309E-05
3.732152E+03	2.444604E-03	5.929169E-05
3.741999E+03	2.484063E-03	6.013291E-05
3.751846E+03	2.524413E-03	6.099164E-05
3.761694E+03	2.565028E-03	6.185265E-05
3.771541E+03	2.606543E-03	6.273112E-05
3.781388E+03	2.648311E-03	6.361142E-05
3.791236E+03	2.690983E-03	6.450908E-05
3.801083E+03	2.734232E-03	6.541614E-05
3.810931E+03	2.777710E-03	6.632424E-05
3.820778E+03	2.822093E-03	6.724937E-05
3.830625E+03	2.867037E-03	6.818325E-05
3.840473E+03	2.912534E-03	6.912559E-05
3.850320E+03	2.958216E-03	7.006757E-05
3.860167E+03	3.004787E-03	7.102583E-05
3.870015E+03	3.051883E-03	7.199159E-05
3.879862E+03	3.099489E-03	7.296444E-05
3.889710E+03	3.147591E-03	7.394398E-05
3.899557E+03	3.195789E-03	7.492071E-05
3.909404E+03	3.244828E-03	7.591208E-05
3.919252E+03	3.294311E-03	7.690864E-05
3.929099E+03	3.344215E-03	7.790981E-05
3.938946E+03	3.394516E-03	7.891497E-05
3.948794E+03	3.445189E-03	7.992345E-05
3.958641E+03	3.496207E-03	8.093454E-05
3.968488E+03	3.547116E-03	8.193775E-05
3.978336E+03	3.598722E-03	8.295163E-05
3.988183E+03	3.650573E-03	8.396569E-05
3.998031E+03	3.702630E-03	8.497900E-05
4.007878E+03	3.754855E-03	8.599061E-05
4.017725E+03	3.807202E-03	8.699949E-05
4.027573E+03	3.859175E-03	8.799426E-05
4.037420E+03	3.911621E-03	8.899429E-05
4.047267E+03	3.964043E-03	8.998820E-05
4.057115E+03	4.016384E-03	9.097470E-05
4.066962E+03	4.068586E-03	9.195250E-05
4.076809E+03	4.120111E-03	9.290948E-05
4.086657E+03	4.171844E-03	9.386563E-05
4.096504E+03	4.223243E-03	9.480880E-05
4.106352E+03	4.273746E-03	9.572644E-05
4.116199E+03	4.324257E-03	9.663890E-05
4.126046E+03	4.374214E-03	9.753360E-05
4.135894E+03	4.423028E-03	9.839758E-05
4.145741E+03	4.471623E-03	9.925152E-05
4.155588E+03	4.518899E-03	1.000711E-04
4.165436E+03	4.565789E-03	1.008771E-04
4.175283E+03	4.611170E-03	1.016449E-04
4.185130E+03	4.655462E-03	1.023839E-04
4.194978E+03	4.699099E-03	1.031039E-04
4.204825E+03	4.740926E-03	1.037797E-04
4.214673E+03	4.781371E-03	1.044208E-04
4.224520E+03	4.820332E-03	1.050254E-04
4.234367E+03	4.857711E-03	1.055915E-04
4.244215E+03	4.893952E-03	1.061291E-04
4.254062E+03	4.927867E-03	1.066125E-04
4.263909E+03	4.959901E-03	1.070518E-04
4.273757E+03	4.989409E-03	1.074335E-04
4.283604E+03	5.017408E-03	1.077797E-04
4.293452E+03	5.043267E-03	1.080771E-04
4.303299E+03	5.066917E-03	1.083248E-04
4.313146E+03	5.087741E-03	1.085098E-04
4.322994E+03	5.106825E-03	1.086557E-04
4.332841E+03	5.123029E-03	1.087387E-04
4.342688E+03	5.137492E-03	1.087832E-04
4.352536E+03	5.149122E-03	1.087666E-04
4.362383E+03	5.159093E-03	1.087140E-04
4.372230E+03	5.166334E-03	1.086032E-04
4.382078E+03	5.171480E-03	1.084479E-04
4.391925E+03	5.174611E-03	1.082502E-04
4.401773E+03	5.175800E-03	1.080118E-04
4.411620E+03	5.175143E-03	1.077350E-04
4.421467E+03	5.172722E-03	1.074219E-04
4.431315E+03	5.168080E-03	1.070633E-04
4.441162E+03	5.162423E-03	1.066844E-04
4.451009E+03	5.154731E-03	1.062644E-04
4.460857E+03	5.146211E-03	1.058284E-04
4.470704E+03	5.135851E-03	1.053557E-04
4.480551E+03	5.124301E-03	1.048601E-04
4.490399E+03	5.112196E-03	1.043545E-04
4.500246E+03	5.098536E-03	1.038189E-04
4.510094E+03	5.083966E-03	1.032664E-04
4.519941E+03	5.068567E-03	1.026989E-04
4.529788E+03	5.051891E-03	1.021075E-04
4.539636E+03	5.035099E-03	1.015158E-04
4.549483E+03	5.017205E-03	1.009039E-04
4.559330E+03	4.999350E-03	1.002950E-04
4.569178E+03	4.980558E-03	9.966951E-05
4.579025E+03	4.961951E-03	9.905000E-05
4.588872E+03	4.942560E-03	9.841712E-05
4.598720E+03	4.922977E-03	9.778278E-05
4.608567E+03	4.903269E-03	9.714838E-05
4.618415E+03	4.882992E-03	9.650511E-05
4.628262E+03	4.863229E-03	9.587446E-05
4.638109E+03	4.843526E-03	9.524746E-05
4.647957E+03	4.823439E-03	9.461534E-05
4.657804E+03	4.803528E-03	9.398917E-05
4.667651E+03	4.784339E-03	9.337959E-05
4.677499E+03	4.764927E-03	9.276808E-05
4.687346E+03	4.745834E-03	9.216525E-05
4.697194E+03	4.727103E-03	9.157190E-05
4.707041E+03	4.708291E-03	9.097939E-05
4.716888E+03	4.690406E-03	9.040724E-05
4.726736E+03	4.672518E-03	8.983738E-05
4.736583E+03	4.655622E-03	8.928894E-05
4.746430E+03	4.638789E-03	8.874405E-05
4.756278E+03	4.622529E-03	8.821241E-05
4.766125E+03	4.606869E-03	8.769446E-05
4.775972E+03	4.591831E-03	8.719059E-05
4.785820E+03	4.577438E-03	8.670115E-05
4.795667E+03	4.563245E-03	8.621766E-05
4.805515E+03	4.550202E-03	8.575799E-05
4.815362E+03	4.537397E-03	8.530490E-05
4.825209E+03	4.525310E-03	8.486733E-05
4.835057E+03	4.513952E-03	8.444543E-05
4.844904E+03	4.503333E-03	8.403933E-05
4.854751E+03	4.493464E-03	8.364912E-05
4.864599E+03	4.484351E-03	8.327484E-05
4.874446E+03	4.475548E-03	8.290818E-05
4.884293E+03	4.467964E-03	8.256587E-05
4.894141E+03	4.460699E-03	8.223122E-05
4.903988E+03	4.454206E-03	8.191252E-05
4.913836E+03	4.448483E-03	8.160967E-05
4.923683E+03	4.443528E-03	8.132257E-05
4.933530E+03	4.439337E-03	8.105105E-05
4.943378E+03	4.435903E-03	8.079495E-05
4.953225E+03	4.432778E-03	8.054601E-05
4.963072E+03	4.430837E-03	8.032014E-05
4.972920E+03	4.429187E-03	8.010104E-05
4.982767E+03	4.428256E-03	7.989645E-05
4.992614E+03	4.428031E-03	7.970606E-05
5.002462E+03	4.428497E-03	7.952955E-05
5.012309E+03	4.429194E-03	7.935867E-05
5.022157E+03	4.430985E-03	7.920882E-05
5.032004E+03	4.432968E-03	7.906382E-05
5.041851E+03	4.435999E-03	7.893895E-05
5.051699E+03	4.439173E-03	7.881804E-05
5.061546E+03	4.442903E-03	7.870844E-05
5.071393E+03	4.447160E-03	7.860962E-05
5.081241E+03	4.451471E-03	7.851323E-05
5.091088E+03	4.456684E-03	7.843421E-05
5.100935E+03	4.461880E-03	7.835642E-05
5.110783E+03	4.467903E-03	7.829465E-05
5.120630E+03	4.473832E-03	7.823278E-05
5.130478E+03	4.480063E-03	7.817779E-05
5.140325E+03	4.486550E-03	7.812890E-05
5.150172E+03	4.493247E-03	7.808532E-05
5.160020E+03	4.499660E-03	7.803856E-05
5.169867E+03	4.506620E-03	7.800305E-05
5.179714E+03	4.513188E-03	7.796260E-05
5.189562E+03	4.520191E-03	7.793154E-05
5.199409E+03	4.526684E-03	7.789366E-05
5.209257E+03	4.533046E-03	7.785557E-05
5.219104E+03	4.539214E-03	7.781624E-05
5.228951E+03	4.544677E-03	7.776703E-05
5.238799E+03	4.550253E-03	7.772204E-05
5.248646E+03	4.554984E-03	7.766499E-05
5.258493E+03	4.559686E-03	7.760990E-05
5.268341E+03	4.563398E-03	7.754051E-05
5.278188E+03	4.566491E-03	7.746324E-05
5.288035E+03	4.568888E-03	7.737693E-05
5.297883E+03	4.570514E-03	7.728042E-05
5.307730E+03	4.571297E-03	7.717259E-05
5.317578E+03	4.570718E-03	7.704484E-05
5.327425E+03	4.569593E-03	7.691105E-05
5.337272E+03	4.566966E-03	7.675526E-05
5.347120E+03	4.563218E-03	7.658400E-05
5.356967E+03	4.558286E-03	7.639637E-05
5.366814E+03	4.552119E-03	7.619161E-05
5.376662E+03	4.544670E-03	7.596908E-05
5.386509E+03	4.535902E-03	7.572825E-05
5.396356E+03	4.525352E-03	7.546144E-05
5.406204E+03	4.513886E-03	7.518313E-05
5.416051E+03	4.500635E-03	7.487887E-05
5.425899E+03	4.486492E-03	7.456353E-05
5.435746E+03	4.470629E-03	7.422335E-05
5.445593E+03	4.453528E-03	7.386640E-05
5.455441E+03	4.435252E-03	7.349367E-05
5.465288E+03	4.415443E-03	7.309924E-05
5.475135E+03	4.395028E-03	7.269846E-05
5.484983E+03	4.373658E-03	7.228550E-05
5.494830E+03	4.350996E-03	7.185476E-05
5.504677E+03	4.327547E-03	7.141457E-05
5.514525E+03	4.303810E-03	7.097311E-05
5.524372E+03	4.279038E-03	7.051800E-05
5.534220E+03	4.253729E-03	7.005742E-05
5.544067E+03	4.227967E-03	6.959266E-05
5.553914E+03	4.201426E-03	6.911832E-05
5.563762E+03	4.174993E-03	6.864894E-05
5.573609E+03	4.148337E-03	6.817898E-05
5.583456E+03	4.121134E-03	6.770306E-05
5.593304E+03	4.093853E-03	6.722882E-05
5.603151E+03	4.066952E-03	6.676370E-05
5.612999E+03	4.039708E-03	6.629576E-05
5.622846E+03	4.012574E-03	6.583237E-05
5.632693E+03	3.985607E-03	6.537438E-05
5.642541E+03	3.958858E-03	6.492258E-05
5.652388E+03	3.932000E-03	6.447153E-05
5.662235E+03	3.905836E-03	6.403432E-05
5.672083E+03	3.880031E-03	6.360539E-05
5.681930E+03	3.854253E-03	6.317925E-05
5.691777E+03	3.828917E-03	6.276261E-05
5.701625E+03	3.804419E-03	6.236192E-05
5.711472E+03	3.780060E-03	6.196567E-05
5.721320E+03	3.756236E-03	6.158029E-05
5.731167E+03	3.732973E-03	6.120614E-05
5.741014E+03	3.710295E-03	6.084358E-05
5.750862E+03	3.688224E-03	6.049290E-05
5.760709E+03	3.666426E-03	6.014862E-05
5.770556E+03	3.645625E-03	5.982253E-05
5.780404E+03	3.625134E-03	5.950333E-05
5.790251E+03	3.605662E-03	5.920265E-05
5.800098E+03	3.586529E-03	5.890925E-05
5.809946E+03	3.568431E-03	5.863458E-05
5.819793E+03	3.550693E-03	5.836747E-05
5.829641E+03	3.533663E-03	5.811365E-05
5.839488E+03	3.517345E-03	5.787316E-05
5.849335E+03	3.501743E-03	5.764604E-05
5.859183E+03	3.486857E-03	5.743229E-05
5.869030E+03	3.472357E-03	5.722644E-05
5.878877E+03	3.458907E-03	5.703944E-05
5.888725E+03	3.446170E-03	5.686573E-05
5.898572E+03	3.433816E-03	5.669984E-05
5.908419E+03	3.422498E-03	5.655257E-05
5.918267E+03	3.411553E-03	5.641297E-05
5.928114E+03	3.401630E-03	5.629176E-05
5.937962E+03	3.392068E-03	5.617802E-05
5.947809E+03	3.383184E-03	5.607700E-05
5.957656E+03	3.374969E-03	5.598856E-05
5.967504E+03	3.367412E-03	5.591253E-05
5.977351E+03	3.360500E-03	5.584871E-05
5.987198E+03	3.354220E-03	5.579692E-05
5.997046E+03	3.348558E-03	5.575691E-05
6.006893E+03	3.343499E-03	5.572848E-05
6.016741E+03	3.338706E-03	5.570602E-05
6.026588E+03	3.334802E-03	5.569994E-05
6.036435E+03	3.331448E-03	5.570463E-05
6.046283E+03	3.328305E-03	5.571441E-05
6.056130E+03	3.325991E-03	5.573967E-05
6.065977E+03	3.323844E-03	5.576936E-05
6.075825E+03	3.322161E-03	5.580844E-05
6.085672E+03	3.320915E-03	5.585653E-05
6.095519E+03	3.320400E-03	5.591858E-05
6.105367E+03	3.319950E-03	5.598341E-05
6.115214E+03	3.319854E-03	5.605592E-05
6.125062E+03	3.320082E-03	5.613562E-05
6.134909E+03	3.320601E-03	5.622199E-05
6.144756E+03	3.321377E-03	5.631446E-05
6.154604E+03	3.322375E-03	5.641248E-05
6.164451E+03	3.323556E-03	5.651541E-05
6.174298E+03	3.324563E-03	5.661718E-05
6.184146E+03	3.325994E-03	5.672799E-05
6.193993E+03	3.327487E-03	5.684170E-05
6.203840E+03	3.328677E-03	5.695208E-05
6.213688E+03	3.330160E-03	5.706932E-05
6.223535E+03	3.331246E-03	5.718162E-05
6.233383E+03	3.332529E-03	5.729916E-05
6.243230E+03	3.333315E-03	5.741002E-05
6.253077E+03	3.333873E-03	5.751882E-05
6.262925E+03	3.334472E-03	5.763017E-05
6.272772E+03	3.334415E-03	5.773201E-05
6.282619E+03	3.333966E-03	5.782891E-05
6.292467E+03	3.333070E-03	5.791985E-05
6.302314E+03	3.331990E-03	5.800940E-05
6.312161E+03	3.330029E-03	5.808535E-05
6.322009E+03	3.327448E-03	5.815222E-05
6.331856E+03	3.324193E-03	5.820897E-05
6.341704E+03	3.320209E-03	5.825454E-05
6.351551E+03	3.315440E-03	5.828783E-05
6.361398E+03	3.309517E-03	5.830220E-05
6.371246E+03	3.303032E-03	5.830794E-05
6.381093E+03	3.295621E-03	5.829851E-05
6.390940E+03	3.287246E-03	5.827307E-05
6.400788E+03	3.277559E-03	5.822527E-05
6.410635E+03	3.267170E-03	5.816581E-05
6.420483E+03	3.255748E-03	5.808862E-05
6.430330E+03	3.242975E-03	5.798784E-05
6.440177E+03	3.229489E-03	5.787473E-05
6.450025E+03	3.214688E-03	5.773830E-05
6.459872E+03	3.199228E-03	5.759017E-05
6.469719E+03	3.182530E-03	5.741975E-05
6.479567E+03	3.165264E-03	5.723896E-05
6.489414E+03	3.146868E-03	5.703747E-05
6.499261E+03	3.127709E-03	5.682179E-05
6.509109E+03	3.108151E-03	5.659837E-05
6.518956E+03	3.087653E-03	5.635721E-05
6.528804E+03	3.066581E-03	5.610488E-05
6.538651E+03	3.045000E-03	5.584243E-05
6.548498E+03	3.023268E-03	5.557630E-05
6.558346E+03	3.000857E-03	5.529673E-05
6.568193E+03	2.978125E-03	5.501017E-05
6.578040E+03	2.955131E-03	5.471761E-05
6.587888E+03	2.931934E-03	5.442006E-05
6.597735E+03	2.908586E-03	5.411845E-05
6.607582E+03	2.885143E-03	5.381372E-05
6.617430E+03	2.861654E-03	5.350674E-05
6.627277E+03	2.838166E-03	5.319836E-05
6.637125E+03	2.814725E-03	5.288938E-05
6.646972E+03	2.791101E-03	5.257544E-05
6.656819E+03	2.767882E-03	5.226756E-05
6.666667E+03	2.744829E-03	5.196126E-05
6.676514E+03	2.721978E-03	5.165720E-05
6.686361E+03	2.699097E-03	5.135095E-05
6.696209E+03	2.676746E-03	5.105317E-05
6.706056E+03	2.654688E-03	5.075934E-05
6.715903E+03	2.632690E-03	5.046502E-05
6.725751E+03	2.611292E-03	5.018057E-05
6.735598E+03	2.590257E-03	4.990149E-05
6.745446E+03	2.569353E-03	4.962328E-05
6.755293E+03	2.549103E-03	4.935608E-05
6.765140E+03	2.529020E-03	4.909053E-05
6.774988E+03	2.509618E-03	4.883659E-05
6.784835E+03	2.490414E-03	4.858495E-05
6.794682E+03	2.471669E-03	4.834070E-05
6.804530E+03	2.453634E-03	4.810878E-05
6.814377E+03	2.435833E-03	4.787996E-05
6.824225E+03	2.418517E-03	4.765917E-05
6.834072E+03	2.401928E-03	4.745126E-05
6.843919E+03	2.385598E-03	4.724705E-05
6.853767E+03	2.369769E-03	4.705135E-05
6.863614E+03	2.354445E-03	4.686432E-05
6.873461E+03	2.339629E-03	4.668605E-05
6.883309E+03	2.325324E-03	4.651666E-05
6.893156E+03	2.311758E-03	4.636080E-05
6.903003E+03	2.298475E-03	4.620941E-05
6.912851E+03	2.285705E-03	4.606713E-05
6.922698E+03	2.273448E-03	4.593402E-05
6.932546E+03	2.261480E-03	4.580562E-05
6.942393E+03	2.250248E-03	4.569103E-05
6.952240E+03	2.239527E-03	4.558576E-05
6.962088E+03	2.229314E-03	4.548984E-05
6.971935E+03	2.219607E-03	4.540328E-05
6.981782E+03	2.210404E-03	4.532611E-05
6.991630E+03	2.201485E-03	4.525386E-05
7.001477E+03	2.193284E-03	4.519552E-05
7.011324E+03	2.185581E-03	4.514662E-05
7.021172E+03	2.178370E-03	4.510714E-05
7.031019E+03	2.171435E-03	4.507262E-05
7.040867E+03	2.165203E-03	4.505202E-05
7.050714E+03	2.159242E-03	4.503638E-05
7.060561E+03	2.153976E-03	4.503465E-05
7.070409E+03	2.148974E-03	4.503785E-05
7.080256E+03	2.144661E-03	4.505496E-05
7.090103E+03	2.140605E-03	4.507698E-05
7.099951E+03	2.137016E-03	4.510838E-05
7.109798E+03	2.134106E-03	4.515368E-05
7.119645E+03	2.131442E-03	4.520384E-05
7.129493E+03	2.129236E-03	4.526334E-05
7.139340E+03	2.127483E-03	4.533218E-05
7.149188E+03	2.126393E-03	4.541488E-05
7.159035E+03	2.125536E-03	4.550235E-05
7.168882E+03	2.125121E-03	4.559909E-05
7.178730E+03	2.125145E-03	4.570510E-05
7.188577E+03	2.125604E-03	4.582035E-05
7.198424E+03	2.126494E-03	4.594481E-05
7.208272E+03	2.127812E-03	4.607848E-05
7.218119E+03	2.129553E-03	4.622130E-05
7.227967E+03	2.131713E-03	4.637328E-05
7.237814E+03	2.134075E-03	4.652967E-05
7.247661E+03	2.137063E-03	4.669982E-05
7.257509E+03	2.140458E-03	4.687900E-05
7.267356E+03	2.144256E-03	4.706719E-05
7.277203E+03	2.148236E-03	4.725956E-05
7.287051E+03	2.152827E-03	4.746559E-05
7.296898E+03	2.157589E-03	4.767567E-05
7.306745E+03	2.162953E-03	4.789934E-05
7.316593E+03	2.168477E-03	4.812688E-05
7.326440E+03	2.174594E-03	4.836793E-05
7.336288E+03	2.180858E-03	4.861264E-05
7.346135E+03	2.187482E-03	4.886582E-05
7.355982E+03	2.194684E-03	4.913233E-05
7.365830E+03	2.202012E-03	4.940213E-05
7.375677E+03	2.209681E-03	4.968008E-05
7.385524E+03	2.217683E-03	4.996602E-05
7.395372E+03	2.226010E-03	5.025986E-05
7.405219E+03	2.234654E-03	5.056142E-05
7.415066E+03	2.243606E-03	5.087055E-05
7.424914E+03	2.252856E-03	5.118705E-05
7.434761E+03	2.262395E-03	5.151075E-05
7.444609E+03	2.272211E-03	5.184143E-05
7.454456E+03	2.282293E-03	5.217886E-05
7.464303E+03	2.292394E-03	5.251742E-05
7.474151E+03	2.302969E-03	5.286755E-05
7.483998E+03	2.313770E-03	5.322361E-05
7.493845E+03	2.324545E-03	5.357981E-05
7.503693E+03	2.335753E-03	5.394674E-05
7.513540E+03	2.346899E-03	5.431302E-05
7.523387E+03	2.358446E-03	5.468935E-05
7.533235E+03	2.369891E-03	5.506412E-05
7.543082E+03	2.381456E-03	5.544244E-05
7.552930E+03	2.393119E-03	5.582383E-05
7.562777E+03	2.405105E-03	5.621355E-05
7.572624E+03	2.416895E-03	5.659951E-05
7.582472E+03	2.428710E-03	5.698685E-05
7.592319E+03	2.440525E-03	5.737496E-05
7.602166E+03	2.452309E-03	5.776313E-05
7.612014E+03	2.464034E-03	5.815067E-05
7.621861E+03	2.475667E-03	5.853681E-05
7.631709E+03	2.486917E-03	5.891465E-05
7.641556E+03	2.498265E-03	5.929550E-05
