#wls	flux	fluxerr
1.600000E+03	3.128876E-16	4.995582E-18
1.640000E+03	3.334112E-16	5.316937E-18
1.680000E+03	3.561190E-16	5.672116E-18
1.720000E+03	3.812437E-16	6.064650E-18
1.760000E+03	4.090774E-16	6.498992E-18
1.800000E+03	4.399062E-16	6.979461E-18
1.840000E+03	4.741217E-16	7.512013E-18
1.880000E+03	5.121171E-16	8.102581E-18
1.920000E+03	5.542830E-16	8.757008E-18
1.960000E+03	6.010442E-16	9.481625E-18
2.000000E+03	6.528608E-16	1.028325E-17
2.040000E+03	7.102752E-16	1.116996E-17
2.080000E+03	7.736247E-16	1.214648E-17
2.120000E+03	8.433984E-16	1.321991E-17
2.160000E+03	9.199923E-16	1.439577E-17
2.200000E+03	1.003564E-15	1.567581E-17
2.240000E+03	1.094498E-15	1.706524E-17
2.280000E+03	1.193020E-15	1.856674E-17
2.320000E+03	1.299593E-15	2.018661E-17
2.360000E+03	1.414769E-15	2.193240E-17
2.400000E+03	1.539180E-15	2.381284E-17
2.440000E+03	1.673617E-15	2.583894E-17
2.480000E+03	1.818493E-15	2.801573E-17
2.520000E+03	1.974288E-15	3.034919E-17
2.560000E+03	2.141202E-15	3.284082E-17
2.600000E+03	2.318885E-15	3.548370E-17
2.640000E+03	2.506660E-15	3.826579E-17
2.680000E+03	2.703156E-15	4.116459E-17
2.720000E+03	2.906459E-15	4.414947E-17
2.760000E+03	3.113728E-15	4.717597E-17
2.800000E+03	3.321273E-15	5.018727E-17
2.840000E+03	3.524393E-15	5.311181E-17
2.880000E+03	3.717841E-15	5.587063E-17
2.920000E+03	3.895370E-15	5.837072E-17
2.960000E+03	4.049938E-15	6.050832E-17
3.000000E+03	4.174398E-15	6.217944E-17
3.010000E+03	4.199958E-15	6.251210E-17
3.020000E+03	4.223015E-15	6.280666E-17
3.030000E+03	4.243439E-15	6.306130E-17
3.040000E+03	4.261200E-15	6.327562E-17
3.050000E+03	4.276168E-15	6.344781E-17
3.060000E+03	4.288221E-15	6.357614E-17
3.070000E+03	4.297238E-15	6.365892E-17
3.080000E+03	4.303102E-15	6.369453E-17
3.090000E+03	4.305703E-15	6.368144E-17
3.100000E+03	4.305024E-15	6.361954E-17
3.110000E+03	4.300963E-15	6.350740E-17
3.120000E+03	4.293339E-15	6.334251E-17
3.130000E+03	4.282238E-15	6.312625E-17
3.140000E+03	4.267412E-15	6.285511E-17
3.150000E+03	4.248879E-15	6.252947E-17
3.160000E+03	4.226661E-15	6.214983E-17
3.170000E+03	4.200632E-15	6.171446E-17
3.180000E+03	4.170842E-15	6.122423E-17
3.190000E+03	4.137207E-15	6.067806E-17
3.200000E+03	4.099833E-15	6.007768E-17
3.210000E+03	4.058819E-15	5.942466E-17
3.220000E+03	4.014304E-15	5.872120E-17
3.230000E+03	3.966714E-15	5.797366E-17
3.240000E+03	3.916549E-15	5.718947E-17
3.250000E+03	3.864451E-15	5.637811E-17
3.260000E+03	3.811195E-15	5.555097E-17
3.270000E+03	3.757654E-15	5.472080E-17
3.280000E+03	3.704745E-15	5.390099E-17
3.290000E+03	3.653333E-15	5.310408E-17
3.300000E+03	3.604383E-15	5.234402E-17
3.310000E+03	3.558495E-15	5.162947E-17
3.320000E+03	3.516276E-15	5.096908E-17
3.330000E+03	3.478019E-15	5.036694E-17
3.340000E+03	3.443926E-15	4.982587E-17
3.350000E+03	3.413973E-15	4.934530E-17
3.360000E+03	3.387867E-15	4.892087E-17
3.370000E+03	3.365394E-15	4.854931E-17
3.380000E+03	3.346042E-15	4.822312E-17
3.390000E+03	3.329381E-15	4.793598E-17
3.400000E+03	3.314898E-15	4.768038E-17
3.410000E+03	3.301992E-15	4.744761E-17
3.420000E+03	3.290268E-15	4.723192E-17
3.430000E+03	3.279199E-15	4.702570E-17
3.440000E+03	3.268420E-15	4.682373E-17
3.450000E+03	3.257645E-15	4.662188E-17
3.460000E+03	3.246636E-15	4.641674E-17
3.470000E+03	3.235332E-15	4.620747E-17
3.480000E+03	3.223638E-15	4.599273E-17
3.490000E+03	3.211628E-15	4.577356E-17
3.500000E+03	3.199415E-15	4.555164E-17
3.510000E+03	3.187259E-15	4.533064E-17
3.520000E+03	3.175346E-15	4.511320E-17
3.530000E+03	3.163942E-15	4.490313E-17
3.540000E+03	3.153400E-15	4.470536E-17
3.550000E+03	3.143908E-15	4.452254E-17
3.560000E+03	3.135739E-15	4.435849E-17
3.570000E+03	3.129117E-15	4.421630E-17
3.580000E+03	3.124125E-15	4.409708E-17
3.590000E+03	3.120860E-15	4.400213E-17
3.600000E+03	3.119280E-15	4.393076E-17
3.610000E+03	3.119303E-15	4.388175E-17
3.620000E+03	3.120809E-15	4.385333E-17
3.630000E+03	3.123483E-15	4.384102E-17
3.640000E+03	3.127059E-15	4.384101E-17
3.650000E+03	3.131091E-15	4.384704E-17
3.660000E+03	3.135105E-15	4.385242E-17
3.670000E+03	3.138562E-15	4.384965E-17
3.680000E+03	3.140991E-15	4.383217E-17
3.690000E+03	3.141917E-15	4.379342E-17
3.700000E+03	3.140884E-15	4.372712E-17
3.710000E+03	3.137577E-15	4.362896E-17
3.720000E+03	3.131731E-15	4.349542E-17
3.730000E+03	3.123150E-15	4.332388E-17
3.740000E+03	3.111875E-15	4.311504E-17
3.750000E+03	3.097901E-15	4.286900E-17
3.760000E+03	3.081433E-15	4.258871E-17
3.770000E+03	3.062812E-15	4.227902E-17
3.780000E+03	3.042354E-15	4.194439E-17
3.790000E+03	3.020578E-15	4.159208E-17
3.800000E+03	2.997926E-15	4.122822E-17
3.810000E+03	2.974916E-15	4.086000E-17
3.820000E+03	2.952001E-15	4.049365E-17
3.830000E+03	2.929532E-15	4.013397E-17
3.840000E+03	2.907774E-15	3.978457E-17
3.850000E+03	2.886870E-15	3.944739E-17
3.860000E+03	2.866755E-15	3.912148E-17
3.870000E+03	2.847242E-15	3.880426E-17
3.880000E+03	2.827944E-15	3.849044E-17
3.890000E+03	2.808422E-15	3.817404E-17
3.900000E+03	2.788176E-15	3.784830E-17
3.910000E+03	2.766751E-15	3.750708E-17
3.920000E+03	2.743850E-15	3.714645E-17
3.930000E+03	2.719324E-15	3.676446E-17
3.940000E+03	2.693295E-15	3.636288E-17
3.950000E+03	2.666114E-15	3.594650E-17
3.960000E+03	2.638241E-15	3.552160E-17
3.970000E+03	2.610354E-15	3.509735E-17
3.980000E+03	2.583060E-15	3.468189E-17
3.990000E+03	2.556922E-15	3.428275E-17
4.000000E+03	2.532382E-15	3.390579E-17
4.010000E+03	2.509663E-15	3.355390E-17
4.020000E+03	2.488852E-15	3.322817E-17
4.030000E+03	2.469828E-15	3.292685E-17
4.040000E+03	2.452337E-15	3.264646E-17
4.050000E+03	2.436009E-15	3.238204E-17
4.060000E+03	2.420505E-15	3.212897E-17
4.070000E+03	2.405443E-15	3.188219E-17
4.080000E+03	2.390472E-15	3.163701E-17
4.090000E+03	2.375280E-15	3.138931E-17
4.100000E+03	2.359609E-15	3.113569E-17
4.110000E+03	2.343262E-15	3.087362E-17
4.120000E+03	2.326055E-15	3.060069E-17
4.130000E+03	2.307900E-15	3.031581E-17
4.140000E+03	2.288751E-15	3.001845E-17
4.150000E+03	2.268648E-15	2.970918E-17
4.160000E+03	2.247723E-15	2.938980E-17
4.170000E+03	2.226218E-15	2.906353E-17
4.180000E+03	2.204492E-15	2.873507E-17
4.190000E+03	2.182936E-15	2.840956E-17
4.200000E+03	2.162038E-15	2.809331E-17
4.210000E+03	2.142274E-15	2.779245E-17
4.220000E+03	2.123997E-15	2.751153E-17
4.230000E+03	2.107494E-15	2.725413E-17
4.240000E+03	2.092841E-15	2.702116E-17
4.250000E+03	2.079974E-15	2.681166E-17
4.260000E+03	2.068608E-15	2.662186E-17
4.270000E+03	2.058320E-15	2.644624E-17
4.280000E+03	2.048672E-15	2.627911E-17
4.290000E+03	2.039138E-15	2.611370E-17
4.300000E+03	2.029361E-15	2.594545E-17
4.310000E+03	2.019098E-15	2.577125E-17
4.320000E+03	2.008307E-15	2.559064E-17
4.330000E+03	1.997127E-15	2.540539E-17
4.340000E+03	1.985889E-15	2.521974E-17
4.350000E+03	1.974990E-15	2.503874E-17
4.360000E+03	1.964815E-15	2.486725E-17
4.370000E+03	1.955754E-15	2.471012E-17
4.380000E+03	1.948008E-15	2.456985E-17
4.390000E+03	1.941698E-15	2.444787E-17
4.400000E+03	1.936787E-15	2.434362E-17
4.410000E+03	1.933152E-15	2.425547E-17
4.420000E+03	1.930531E-15	2.418005E-17
4.430000E+03	1.928680E-15	2.411426E-17
4.440000E+03	1.927268E-15	2.405390E-17
4.450000E+03	1.925960E-15	2.399477E-17
4.460000E+03	1.924490E-15	2.393358E-17
4.470000E+03	1.922580E-15	2.386687E-17
4.480000E+03	1.920015E-15	2.379201E-17
4.490000E+03	1.916647E-15	2.370721E-17
4.500000E+03	1.912387E-15	2.361145E-17
4.510000E+03	1.907191E-15	2.350422E-17
4.520000E+03	1.901104E-15	2.338618E-17
4.530000E+03	1.894204E-15	2.325830E-17
4.540000E+03	1.886579E-15	2.312175E-17
4.550000E+03	1.878346E-15	2.297802E-17
4.560000E+03	1.869665E-15	2.282909E-17
4.570000E+03	1.860678E-15	2.267671E-17
4.580000E+03	1.851482E-15	2.252213E-17
4.590000E+03	1.842227E-15	2.236714E-17
4.600000E+03	1.832945E-15	2.221217E-17
4.610000E+03	1.823718E-15	2.205819E-17
4.620000E+03	1.814569E-15	2.190550E-17
4.630000E+03	1.805482E-15	2.175391E-17
4.640000E+03	1.796441E-15	2.160320E-17
4.650000E+03	1.787392E-15	2.145273E-17
4.660000E+03	1.778354E-15	2.130275E-17
4.670000E+03	1.769300E-15	2.115292E-17
4.680000E+03	1.760310E-15	2.100420E-17
4.690000E+03	1.751488E-15	2.085784E-17
4.700000E+03	1.743020E-15	2.071603E-17
4.710000E+03	1.735103E-15	2.058110E-17
4.720000E+03	1.728000E-15	2.045610E-17
4.730000E+03	1.721958E-15	2.034392E-17
4.740000E+03	1.717254E-15	2.024775E-17
4.750000E+03	1.714051E-15	2.016939E-17
4.760000E+03	1.712505E-15	2.011061E-17
4.770000E+03	1.712675E-15	2.007195E-17
4.780000E+03	1.714506E-15	2.005268E-17
4.790000E+03	1.717905E-15	2.005157E-17
4.800000E+03	1.722655E-15	2.006600E-17
4.810000E+03	1.728496E-15	2.009284E-17
4.820000E+03	1.735129E-15	2.012855E-17
4.830000E+03	1.742241E-15	2.016946E-17
4.840000E+03	1.749511E-15	2.021182E-17
4.850000E+03	1.756717E-15	2.025308E-17
4.860000E+03	1.763606E-15	2.029031E-17
4.870000E+03	1.770069E-15	2.032231E-17
4.880000E+03	1.776014E-15	2.034803E-17
4.890000E+03	1.781425E-15	2.036736E-17
4.900000E+03	1.786262E-15	2.037986E-17
4.910000E+03	1.790544E-15	2.038581E-17
4.920000E+03	1.794265E-15	2.038516E-17
4.930000E+03	1.797386E-15	2.037755E-17
4.940000E+03	1.799901E-15	2.036292E-17
4.950000E+03	1.801761E-15	2.034078E-17
4.960000E+03	1.802965E-15	2.031118E-17
4.970000E+03	1.803497E-15	2.027398E-17
4.980000E+03	1.803452E-15	2.023029E-17
4.990000E+03	1.802888E-15	2.018081E-17
5.000000E+03	1.801961E-15	2.012734E-17
5.010000E+03	1.800816E-15	2.007151E-17
5.020000E+03	1.799631E-15	2.001533E-17
5.030000E+03	1.798550E-15	1.996039E-17
5.040000E+03	1.797631E-15	1.990735E-17
5.050000E+03	1.796922E-15	1.985670E-17
5.060000E+03	1.796378E-15	1.980797E-17
5.070000E+03	1.795883E-15	1.975985E-17
5.080000E+03	1.795228E-15	1.971007E-17
5.090000E+03	1.794263E-15	1.965698E-17
5.100000E+03	1.792790E-15	1.959845E-17
5.110000E+03	1.790587E-15	1.953211E-17
5.120000E+03	1.787605E-15	1.945746E-17
5.130000E+03	1.783755E-15	1.937362E-17
5.140000E+03	1.779046E-15	1.928073E-17
5.150000E+03	1.773549E-15	1.917964E-17
5.160000E+03	1.767354E-15	1.907137E-17
5.170000E+03	1.760601E-15	1.895749E-17
5.180000E+03	1.753402E-15	1.883923E-17
5.190000E+03	1.745874E-15	1.871790E-17
5.200000E+03	1.738102E-15	1.859442E-17
5.210000E+03	1.730104E-15	1.846900E-17
5.220000E+03	1.721940E-15	1.834232E-17
5.230000E+03	1.713606E-15	1.821434E-17
5.240000E+03	1.705106E-15	1.808511E-17
5.250000E+03	1.696473E-15	1.795500E-17
5.260000E+03	1.687772E-15	1.782471E-17
5.270000E+03	1.679106E-15	1.769535E-17
5.280000E+03	1.670635E-15	1.756857E-17
5.290000E+03	1.662470E-15	1.744556E-17
5.300000E+03	1.654776E-15	1.732800E-17
5.310000E+03	1.647646E-15	1.721685E-17
5.320000E+03	1.641191E-15	1.711322E-17
5.330000E+03	1.635460E-15	1.701761E-17
5.340000E+03	1.630478E-15	1.693021E-17
5.350000E+03	1.626217E-15	1.685068E-17
5.360000E+03	1.622568E-15	1.677788E-17
5.370000E+03	1.619401E-15	1.671040E-17
5.380000E+03	1.616485E-15	1.664586E-17
5.390000E+03	1.613547E-15	1.658143E-17
5.400000E+03	1.610232E-15	1.651348E-17
5.410000E+03	1.606237E-15	1.643894E-17
5.420000E+03	1.601226E-15	1.635443E-17
5.430000E+03	1.594974E-15	1.625771E-17
5.440000E+03	1.587361E-15	1.614764E-17
5.450000E+03	1.578351E-15	1.602395E-17
5.460000E+03	1.568069E-15	1.588798E-17
5.470000E+03	1.556816E-15	1.574284E-17
5.480000E+03	1.545169E-15	1.559443E-17
5.490000E+03	1.533673E-15	1.544824E-17
5.500000E+03	1.522596E-15	1.530695E-17
5.510000E+03	1.511902E-15	1.517019E-17
5.520000E+03	1.501382E-15	1.503583E-17
5.530000E+03	1.490819E-15	1.490169E-17
5.540000E+03	1.480168E-15	1.476732E-17
5.550000E+03	1.469418E-15	1.463261E-17
5.560000E+03	1.458611E-15	1.449799E-17
5.570000E+03	1.447825E-15	1.436422E-17
5.580000E+03	1.437061E-15	1.423131E-17
5.590000E+03	1.426289E-15	1.409897E-17
5.600000E+03	1.415430E-15	1.396641E-17
5.610000E+03	1.404334E-15	1.383215E-17
5.620000E+03	1.392836E-15	1.369459E-17
5.630000E+03	1.380759E-15	1.355199E-17
5.640000E+03	1.367970E-15	1.340310E-17
5.650000E+03	1.354448E-15	1.324773E-17
5.660000E+03	1.340286E-15	1.308681E-17
5.670000E+03	1.325748E-15	1.292297E-17
5.680000E+03	1.311111E-15	1.275890E-17
5.690000E+03	1.296763E-15	1.259835E-17
5.700000E+03	1.283067E-15	1.244487E-17
5.710000E+03	1.270346E-15	1.230151E-17
5.720000E+03	1.258899E-15	1.217113E-17
5.730000E+03	1.248895E-15	1.205529E-17
5.740000E+03	1.240424E-15	1.195479E-17
5.750000E+03	1.233451E-15	1.186923E-17
5.760000E+03	1.227837E-15	1.179719E-17
5.770000E+03	1.223301E-15	1.173593E-17
5.780000E+03	1.219520E-15	1.168231E-17
5.790000E+03	1.216052E-15	1.163206E-17
5.800000E+03	1.212478E-15	1.158116E-17
5.810000E+03	1.208415E-15	1.152599E-17
5.820000E+03	1.203531E-15	1.146338E-17
5.830000E+03	1.197568E-15	1.139093E-17
5.840000E+03	1.190431E-15	1.130777E-17
5.850000E+03	1.182147E-15	1.121419E-17
5.860000E+03	1.172829E-15	1.111132E-17
5.870000E+03	1.162738E-15	1.100166E-17
5.880000E+03	1.152201E-15	1.088832E-17
5.890000E+03	1.141489E-15	1.077387E-17
5.900000E+03	1.130878E-15	1.066091E-17
5.910000E+03	1.120540E-15	1.055108E-17
5.920000E+03	1.110559E-15	1.044511E-17
5.930000E+03	1.100983E-15	1.034347E-17
5.940000E+03	1.091822E-15	1.024622E-17
5.950000E+03	1.083034E-15	1.015297E-17
5.960000E+03	1.074632E-15	1.006380E-17
5.970000E+03	1.066620E-15	9.978757E-18
5.980000E+03	1.058989E-15	9.897731E-18
5.990000E+03	1.051733E-15	9.820659E-18
6.000000E+03	1.044834E-15	9.747354E-18
6.010000E+03	1.038251E-15	9.677433E-18
6.020000E+03	1.031964E-15	9.610684E-18
6.030000E+03	1.025919E-15	9.546618E-18
6.040000E+03	1.020076E-15	9.484832E-18
6.050000E+03	1.014368E-15	9.424720E-18
6.060000E+03	1.008780E-15	9.366124E-18
6.070000E+03	1.003237E-15	9.308353E-18
6.080000E+03	9.977312E-16	9.251325E-18
6.090000E+03	9.921998E-16	9.194462E-18
6.100000E+03	9.866492E-16	9.137820E-18
6.110000E+03	9.810390E-16	9.081026E-18
6.120000E+03	9.753884E-16	9.024255E-18
6.130000E+03	9.697155E-16	8.967674E-18
6.140000E+03	9.640357E-16	8.911423E-18
6.150000E+03	9.583649E-16	8.855649E-18
6.160000E+03	9.527358E-16	8.800651E-18
6.170000E+03	9.471571E-16	8.746507E-18
6.180000E+03	9.416206E-16	8.693138E-18
6.190000E+03	9.361036E-16	8.640333E-18
6.200000E+03	9.305979E-16	8.588015E-18
6.210000E+03	9.250782E-16	8.535947E-18
6.220000E+03	9.194874E-16	8.483599E-18
6.230000E+03	9.138340E-16	8.431049E-18
6.240000E+03	9.081213E-16	8.378324E-18
6.250000E+03	9.024105E-16	8.325986E-18
6.260000E+03	8.968398E-16	8.275305E-18
6.270000E+03	8.915473E-16	8.227557E-18
6.280000E+03	8.866633E-16	8.183940E-18
6.290000E+03	8.822579E-16	8.145100E-18
6.300000E+03	8.783392E-16	8.111116E-18
6.310000E+03	8.748813E-16	8.081749E-18
6.320000E+03	8.717315E-16	8.055591E-18
6.330000E+03	8.687446E-16	8.031304E-18
6.340000E+03	8.657423E-16	8.007239E-18
6.350000E+03	8.626221E-16	7.982447E-18
6.360000E+03	8.593160E-16	7.956296E-18
6.370000E+03	8.558894E-16	7.929389E-18
6.380000E+03	8.525290E-16	7.903451E-18
6.390000E+03	8.494525E-16	7.880495E-18
6.400000E+03	8.469130E-16	7.862869E-18
6.410000E+03	8.450774E-16	7.852123E-18
6.420000E+03	8.440282E-16	7.849036E-18
6.430000E+03	8.437749E-16	7.853706E-18
6.440000E+03	8.442589E-16	7.865602E-18
6.450000E+03	8.453992E-16	7.883984E-18
6.460000E+03	8.471468E-16	7.908409E-18
6.470000E+03	8.495259E-16	7.939116E-18
6.480000E+03	8.525783E-16	7.976514E-18
6.490000E+03	8.561823E-16	8.019481E-18
6.500000E+03	8.600329E-16	8.065176E-18
6.510000E+03	8.634905E-16	8.107598E-18
6.520000E+03	8.654456E-16	8.136303E-18
6.530000E+03	8.639368E-16	8.132771E-18
6.540000E+03	8.584020E-16	8.091565E-18
6.550000E+03	8.508575E-16	8.031555E-18
6.560000E+03	8.424561E-16	7.963547E-18
6.570000E+03	8.338160E-16	7.893342E-18
6.580000E+03	8.252634E-16	7.824010E-18
6.590000E+03	8.169669E-16	7.757142E-18
6.600000E+03	8.090471E-16	7.693882E-18
6.610000E+03	8.015736E-16	7.634897E-18
6.620000E+03	7.945927E-16	7.580636E-18
6.630000E+03	7.881289E-16	7.531346E-18
6.640000E+03	7.821772E-16	7.486991E-18
6.650000E+03	7.766962E-16	7.447190E-18
6.660000E+03	7.716038E-16	7.411167E-18
6.670000E+03	7.668336E-16	7.378294E-18
6.680000E+03	7.622934E-16	7.347689E-18
6.690000E+03	7.579303E-16	7.318845E-18
6.700000E+03	7.537095E-16	7.291427E-18
6.710000E+03	7.496237E-16	7.265364E-18
6.720000E+03	7.457065E-16	7.240981E-18
6.730000E+03	7.420124E-16	7.218812E-18
6.740000E+03	7.385527E-16	7.198970E-18
6.750000E+03	7.353756E-16	7.181934E-18
6.760000E+03	7.324682E-16	7.167588E-18
6.770000E+03	7.297925E-16	7.155567E-18
6.780000E+03	7.273172E-16	7.145571E-18
6.790000E+03	7.249882E-16	7.137076E-18
6.800000E+03	7.227367E-16	7.129404E-18
6.810000E+03	7.205229E-16	7.122163E-18
6.820000E+03	7.182878E-16	7.114764E-18
6.830000E+03	7.160097E-16	7.106986E-18
6.840000E+03	7.136432E-16	7.098370E-18
6.850000E+03	7.112175E-16	7.089196E-18
6.860000E+03	7.087338E-16	7.079467E-18
6.870000E+03	7.062631E-16	7.069886E-18
6.880000E+03	7.038347E-16	7.060743E-18
6.890000E+03	7.015230E-16	7.052783E-18
6.900000E+03	6.993720E-16	7.046453E-18
6.910000E+03	6.974444E-16	7.042393E-18
6.920000E+03	6.957675E-16	7.040888E-18
6.930000E+03	6.943830E-16	7.042375E-18
6.940000E+03	6.932789E-16	7.046749E-18
6.950000E+03	6.924854E-16	7.054329E-18
6.960000E+03	6.919817E-16	7.064924E-18
6.970000E+03	6.917378E-16	7.078242E-18
6.980000E+03	6.917571E-16	7.094333E-18
6.990000E+03	6.919838E-16	7.112638E-18
7.000000E+03	6.923977E-16	7.132962E-18
7.010000E+03	6.929476E-16	7.154784E-18
7.020000E+03	6.936056E-16	7.177824E-18
7.030000E+03	6.943127E-16	7.201475E-18
7.040000E+03	6.950344E-16	7.225379E-18
7.050000E+03	6.956923E-16	7.248717E-18
7.060000E+03	6.962635E-16	7.271244E-18
7.070000E+03	6.966729E-16	7.292164E-18
7.080000E+03	6.969065E-16	7.311316E-18
7.090000E+03	6.969022E-16	7.328033E-18
7.100000E+03	6.966508E-16	7.342198E-18
7.110000E+03	6.961270E-16	7.353522E-18
7.120000E+03	6.953457E-16	7.362142E-18
7.130000E+03	6.943211E-16	7.368187E-18
7.140000E+03	6.930519E-16	7.371623E-18
7.150000E+03	6.916056E-16	7.373148E-18
7.160000E+03	6.900314E-16	7.373273E-18
7.170000E+03	6.883571E-16	7.372284E-18
7.180000E+03	6.866539E-16	7.370936E-18
7.190000E+03	6.849759E-16	7.369805E-18
7.200000E+03	6.833546E-16	7.369232E-18
7.210000E+03	6.818508E-16	7.369876E-18
7.220000E+03	6.804548E-16	7.371636E-18
7.230000E+03	6.791688E-16	7.374545E-18
7.240000E+03	6.779956E-16	7.378636E-18
7.250000E+03	6.768859E-16	7.383381E-18
7.260000E+03	6.758412E-16	7.388798E-18
7.270000E+03	6.748203E-16	7.394439E-18
7.280000E+03	6.738023E-16	7.400073E-18
7.290000E+03	6.727603E-16	7.405403E-18
7.300000E+03	6.716914E-16	7.410394E-18
7.310000E+03	6.706162E-16	7.415269E-18
7.320000E+03	6.695332E-16	7.420011E-18
7.330000E+03	6.684423E-16	7.424615E-18
7.340000E+03	6.673538E-16	7.429193E-18
7.350000E+03	6.662696E-16	7.433766E-18
7.360000E+03	6.651797E-16	7.438221E-18
7.370000E+03	6.640480E-16	7.442151E-18
7.380000E+03	6.628253E-16	7.444999E-18
7.390000E+03	6.614657E-16	7.446240E-18
7.400000E+03	6.598882E-16	7.444949E-18
7.410000E+03	6.580638E-16	7.440780E-18
7.420000E+03	6.558924E-16	7.432579E-18
7.430000E+03	6.533191E-16	7.419696E-18
7.440000E+03	6.503062E-16	7.401669E-18
7.450000E+03	6.468199E-16	7.378080E-18
7.460000E+03	6.428053E-16	7.348265E-18
7.470000E+03	6.382573E-16	7.312124E-18
7.480000E+03	6.331538E-16	7.269365E-18
7.490000E+03	6.275152E-16	7.220180E-18
7.500000E+03	6.213378E-16	7.164483E-18
7.510000E+03	6.146783E-16	7.102893E-18
7.520000E+03	6.075873E-16	7.035957E-18
7.530000E+03	6.001335E-16	6.964440E-18
7.540000E+03	5.924160E-16	6.889469E-18
7.550000E+03	5.845223E-16	6.812044E-18
7.560000E+03	5.765884E-16	6.733738E-18
7.570000E+03	5.687149E-16	6.655729E-18
7.580000E+03	5.610169E-16	6.579369E-18
7.590000E+03	5.536126E-16	6.506060E-18
7.600000E+03	5.465902E-16	6.436863E-18
7.610000E+03	5.400146E-16	6.372573E-18
7.620000E+03	5.339068E-16	6.313468E-18
7.630000E+03	5.282878E-16	6.259835E-18
7.640000E+03	5.230939E-16	6.210951E-18
7.650000E+03	5.182764E-16	6.166269E-18
7.660000E+03	5.137126E-16	6.124353E-18
7.670000E+03	5.093147E-16	6.084171E-18
7.680000E+03	5.049442E-16	6.044079E-18
7.690000E+03	5.005200E-16	6.003106E-18
7.700000E+03	4.959473E-16	5.960110E-18
7.710000E+03	4.911699E-16	5.914403E-18
7.720000E+03	4.861483E-16	5.865493E-18
7.730000E+03	4.809067E-16	5.813657E-18
7.740000E+03	4.754574E-16	5.759029E-18
7.750000E+03	4.698414E-16	5.702091E-18
7.760000E+03	4.641005E-16	5.643342E-18
