#wls	flux	fluxerr
1.600000E+03	3.136841E-17	3.038732E-18
1.640000E+03	3.204507E-17	3.098823E-18
1.680000E+03	3.275971E-17	3.162226E-18
1.720000E+03	3.350612E-17	3.228309E-18
1.760000E+03	3.429056E-17	3.297649E-18
1.800000E+03	3.511272E-17	3.370183E-18
1.840000E+03	3.597891E-17	3.446484E-18
1.880000E+03	3.688125E-17	3.525759E-18
1.920000E+03	3.782532E-17	3.608509E-18
1.960000E+03	3.880922E-17	3.694513E-18
2.000000E+03	3.983793E-17	3.784206E-18
2.040000E+03	4.090839E-17	3.877255E-18
2.080000E+03	4.200844E-17	3.972468E-18
2.120000E+03	4.314868E-17	4.070812E-18
2.160000E+03	4.431457E-17	4.170873E-18
2.200000E+03	4.550648E-17	4.272652E-18
2.240000E+03	4.670627E-17	4.374415E-18
2.280000E+03	4.791995E-17	4.476703E-18
2.320000E+03	4.911667E-17	4.576610E-18
2.360000E+03	5.029893E-17	4.674366E-18
2.400000E+03	5.144035E-17	4.767519E-18
2.440000E+03	5.252135E-17	4.854274E-18
2.480000E+03	5.352982E-17	4.933546E-18
2.520000E+03	5.444282E-17	5.003270E-18
2.560000E+03	5.523612E-17	5.061289E-18
2.600000E+03	5.588487E-17	5.105420E-18
2.640000E+03	5.636447E-17	5.133532E-18
2.680000E+03	5.666089E-17	5.144488E-18
2.720000E+03	5.675312E-17	5.136539E-18
2.760000E+03	5.662418E-17	5.108332E-18
2.800000E+03	5.628000E-17	5.060596E-18
2.840000E+03	5.571516E-17	4.993045E-18
2.880000E+03	5.493299E-17	4.906186E-18
2.920000E+03	5.397049E-17	4.803526E-18
2.960000E+03	5.285739E-17	4.687884E-18
3.000000E+03	5.164118E-17	4.563619E-18
3.010000E+03	5.132869E-17	4.531896E-18
3.020000E+03	5.101355E-17	4.499977E-18
3.030000E+03	5.069662E-17	4.467938E-18
3.040000E+03	5.037874E-17	4.435855E-18
3.050000E+03	5.006084E-17	4.403809E-18
3.060000E+03	4.975039E-17	4.372457E-18
3.070000E+03	4.944166E-17	4.341295E-18
3.080000E+03	4.913570E-17	4.310415E-18
3.090000E+03	4.883982E-17	4.280457E-18
3.100000E+03	4.854867E-17	4.250951E-18
3.110000E+03	4.826948E-17	4.222527E-18
3.120000E+03	4.799712E-17	4.194735E-18
3.130000E+03	4.773869E-17	4.168194E-18
3.140000E+03	4.749511E-17	4.142981E-18
3.150000E+03	4.726160E-17	4.118675E-18
3.160000E+03	4.705075E-17	4.096370E-18
3.170000E+03	4.685206E-17	4.075149E-18
3.180000E+03	4.667231E-17	4.055597E-18
3.190000E+03	4.651249E-17	4.037795E-18
3.200000E+03	4.637360E-17	4.021826E-18
3.210000E+03	4.626196E-17	4.008231E-18
3.220000E+03	4.617308E-17	3.996616E-18
3.230000E+03	4.610788E-17	3.987055E-18
3.240000E+03	4.606732E-17	3.979623E-18
3.250000E+03	4.605738E-17	3.974833E-18
3.260000E+03	4.607877E-17	3.972737E-18
3.270000E+03	4.612711E-17	3.972949E-18
3.280000E+03	4.620813E-17	3.975956E-18
3.290000E+03	4.632235E-17	3.981796E-18
3.300000E+03	4.647028E-17	3.990501E-18
3.310000E+03	4.665229E-17	4.002097E-18
3.320000E+03	4.686869E-17	4.016600E-18
3.330000E+03	4.712450E-17	4.034431E-18
3.340000E+03	4.741014E-17	4.054762E-18
3.350000E+03	4.773992E-17	4.078806E-18
3.360000E+03	4.810404E-17	4.105715E-18
3.370000E+03	4.850213E-17	4.135450E-18
3.380000E+03	4.894304E-17	4.168756E-18
3.390000E+03	4.941658E-17	4.204752E-18
3.400000E+03	4.993114E-17	4.244146E-18
3.410000E+03	5.047616E-17	4.286028E-18
3.420000E+03	5.105951E-17	4.331058E-18
3.430000E+03	5.167947E-17	4.379080E-18
3.440000E+03	5.232941E-17	4.429525E-18
3.450000E+03	5.301177E-17	4.482588E-18
3.460000E+03	5.372405E-17	4.538052E-18
3.470000E+03	5.445890E-17	4.595287E-18
3.480000E+03	5.522260E-17	4.654817E-18
3.490000E+03	5.601196E-17	4.716366E-18
3.500000E+03	5.681446E-17	4.778874E-18
3.510000E+03	5.764051E-17	4.843211E-18
3.520000E+03	5.847739E-17	4.908305E-18
3.530000E+03	5.932629E-17	4.974251E-18
3.540000E+03	6.018392E-17	5.040771E-18
3.550000E+03	6.104717E-17	5.107603E-18
3.560000E+03	6.191328E-17	5.174515E-18
3.570000E+03	6.278448E-17	5.241692E-18
3.580000E+03	6.365891E-17	5.308976E-18
3.590000E+03	6.453522E-17	5.376257E-18
3.600000E+03	6.541253E-17	5.443460E-18
3.610000E+03	6.629029E-17	5.510539E-18
3.620000E+03	6.716833E-17	5.577479E-18
3.630000E+03	6.805153E-17	5.644687E-18
3.640000E+03	6.893660E-17	5.711888E-18
3.650000E+03	6.982978E-17	5.779599E-18
3.660000E+03	7.073790E-17	5.848382E-18
3.670000E+03	7.165534E-17	5.917769E-18
3.680000E+03	7.259455E-17	5.988785E-18
3.690000E+03	7.355552E-17	6.061425E-18
3.700000E+03	7.454748E-17	6.136442E-18
3.710000E+03	7.557601E-17	6.214287E-18
3.720000E+03	7.664735E-17	6.295464E-18
3.730000E+03	7.776853E-17	6.380536E-18
3.740000E+03	7.894740E-17	6.470137E-18
3.750000E+03	8.019683E-17	6.565304E-18
3.760000E+03	8.152219E-17	6.666457E-18
3.770000E+03	8.294218E-17	6.775104E-18
3.780000E+03	8.445999E-17	6.891480E-18
3.790000E+03	8.609241E-17	7.016929E-18
3.800000E+03	8.785338E-17	7.152555E-18
3.810000E+03	8.976234E-17	7.299905E-18
3.820000E+03	9.183585E-17	7.460286E-18
3.830000E+03	9.408335E-17	7.634419E-18
3.840000E+03	9.653592E-17	7.824780E-18
3.850000E+03	9.920886E-17	8.032553E-18
3.860000E+03	1.021178E-16	8.258946E-18
3.870000E+03	1.052913E-16	8.506196E-18
3.880000E+03	1.087402E-16	8.775121E-18
3.890000E+03	1.124922E-16	9.067875E-18
3.900000E+03	1.165648E-16	9.385786E-18
3.910000E+03	1.209644E-16	9.729296E-18
3.920000E+03	1.257125E-16	1.010004E-17
3.930000E+03	1.308168E-16	1.049854E-17
3.940000E+03	1.362741E-16	1.092446E-17
3.950000E+03	1.420821E-16	1.137752E-17
3.960000E+03	1.482238E-16	1.185628E-17
3.970000E+03	1.546675E-16	1.235810E-17
3.980000E+03	1.613759E-16	1.287995E-17
3.990000E+03	1.683144E-16	1.341900E-17
4.000000E+03	1.754177E-16	1.397000E-17
4.010000E+03	1.826439E-16	1.452957E-17
4.020000E+03	1.899364E-16	1.509320E-17
4.030000E+03	1.972241E-16	1.565522E-17
4.040000E+03	2.044253E-16	1.620916E-17
4.050000E+03	2.114331E-16	1.674659E-17
4.060000E+03	2.181069E-16	1.725645E-17
4.070000E+03	2.242687E-16	1.772474E-17
4.080000E+03	2.297037E-16	1.813466E-17
4.090000E+03	2.341948E-16	1.846929E-17
4.100000E+03	2.375228E-16	1.871158E-17
4.110000E+03	2.395062E-16	1.884758E-17
4.120000E+03	2.400424E-16	1.886955E-17
4.130000E+03	2.391002E-16	1.877540E-17
4.140000E+03	2.367407E-16	1.857032E-17
4.150000E+03	2.331017E-16	1.826545E-17
4.160000E+03	2.283671E-16	1.787550E-17
4.170000E+03	2.227719E-16	1.741912E-17
4.180000E+03	2.165541E-16	1.691512E-17
4.190000E+03	2.099529E-16	1.638230E-17
4.200000E+03	2.031890E-16	1.583795E-17
4.210000E+03	1.964637E-16	1.529779E-17
4.220000E+03	1.899626E-16	1.477622E-17
4.230000E+03	1.838503E-16	1.428601E-17
4.240000E+03	1.782670E-16	1.383790E-17
4.250000E+03	1.733424E-16	1.344184E-17
4.260000E+03	1.691832E-16	1.310593E-17
4.270000E+03	1.658767E-16	1.283673E-17
4.280000E+03	1.634752E-16	1.263809E-17
4.290000E+03	1.620063E-16	1.251193E-17
4.300000E+03	1.614442E-16	1.245603E-17
4.310000E+03	1.617262E-16	1.246536E-17
4.320000E+03	1.627417E-16	1.253120E-17
4.330000E+03	1.643276E-16	1.264085E-17
4.340000E+03	1.662824E-16	1.277868E-17
4.350000E+03	1.683609E-16	1.292581E-17
4.360000E+03	1.702924E-16	1.306144E-17
4.370000E+03	1.717977E-16	1.316421E-17
4.380000E+03	1.726094E-16	1.321376E-17
4.390000E+03	1.725261E-16	1.319483E-17
4.400000E+03	1.715051E-16	1.310437E-17
4.410000E+03	1.696464E-16	1.295020E-17
4.420000E+03	1.671336E-16	1.274651E-17
4.430000E+03	1.641824E-16	1.250987E-17
4.440000E+03	1.610195E-16	1.225762E-17
4.450000E+03	1.578654E-16	1.200658E-17
4.460000E+03	1.549355E-16	1.177310E-17
4.470000E+03	1.524225E-16	1.157177E-17
4.480000E+03	1.505039E-16	1.141594E-17
4.490000E+03	1.493348E-16	1.131726E-17
4.500000E+03	1.490490E-16	1.128569E-17
4.510000E+03	1.497767E-16	1.133091E-17
4.520000E+03	1.516251E-16	1.146082E-17
4.530000E+03	1.546998E-16	1.168318E-17
4.540000E+03	1.590874E-16	1.200428E-17
4.550000E+03	1.648655E-16	1.242972E-17
4.560000E+03	1.720905E-16	1.296349E-17
4.570000E+03	1.807835E-16	1.360692E-17
4.580000E+03	1.909179E-16	1.435771E-17
4.590000E+03	2.024027E-16	1.520880E-17
4.600000E+03	2.150701E-16	1.614731E-17
4.610000E+03	2.286563E-16	1.715328E-17
4.620000E+03	2.427979E-16	1.819928E-17
4.630000E+03	2.570396E-16	1.925115E-17
4.640000E+03	2.708454E-16	2.026874E-17
4.650000E+03	2.836348E-16	2.120875E-17
4.660000E+03	2.948227E-16	2.202765E-17
4.670000E+03	3.038624E-16	2.268494E-17
4.680000E+03	3.103146E-16	2.314820E-17
4.690000E+03	3.138882E-16	2.339623E-17
4.700000E+03	3.144769E-16	2.342159E-17
4.710000E+03	3.121669E-16	2.323125E-17
4.720000E+03	3.072507E-16	2.284744E-17
4.730000E+03	3.001754E-16	2.230385E-17
4.740000E+03	2.915199E-16	2.164381E-17
4.750000E+03	2.819151E-16	2.091439E-17
4.760000E+03	2.720021E-16	2.016329E-17
4.770000E+03	2.623643E-16	1.943375E-17
4.780000E+03	2.534871E-16	1.876166E-17
4.790000E+03	2.457373E-16	1.817398E-17
4.800000E+03	2.393365E-16	1.768692E-17
4.810000E+03	2.343875E-16	1.730781E-17
4.820000E+03	2.308701E-16	1.703492E-17
4.830000E+03	2.286709E-16	1.685964E-17
4.840000E+03	2.276094E-16	1.676844E-17
4.850000E+03	2.274658E-16	1.674493E-17
4.860000E+03	2.280122E-16	1.677221E-17
4.870000E+03	2.290372E-16	1.683461E-17
4.880000E+03	2.303705E-16	1.691953E-17
4.890000E+03	2.318960E-16	1.701840E-17
4.900000E+03	2.335401E-16	1.712580E-17
4.910000E+03	2.352819E-16	1.724015E-17
4.920000E+03	2.371178E-16	1.736119E-17
4.930000E+03	2.390467E-16	1.748881E-17
4.940000E+03	2.410595E-16	1.762233E-17
4.950000E+03	2.431275E-16	1.775963E-17
4.960000E+03	2.452311E-16	1.789926E-17
4.970000E+03	2.473542E-16	1.804006E-17
4.980000E+03	2.494925E-16	1.818169E-17
4.990000E+03	2.516713E-16	1.832598E-17
5.000000E+03	2.539218E-16	1.847521E-17
5.010000E+03	2.562681E-16	1.863111E-17
5.020000E+03	2.586558E-16	1.878969E-17
5.030000E+03	2.609336E-16	1.893998E-17
5.040000E+03	2.628651E-16	1.906483E-17
5.050000E+03	2.641508E-16	1.914261E-17
5.060000E+03	2.644761E-16	1.915063E-17
5.070000E+03	2.635571E-16	1.906853E-17
5.080000E+03	2.612120E-16	1.888338E-17
5.090000E+03	2.574233E-16	1.859418E-17
5.100000E+03	2.523294E-16	1.821117E-17
5.110000E+03	2.462186E-16	1.775536E-17
5.120000E+03	2.395089E-16	1.725707E-17
5.130000E+03	2.326803E-16	1.675096E-17
5.140000E+03	2.262082E-16	1.627126E-17
5.150000E+03	2.205197E-16	1.584858E-17
5.160000E+03	2.159533E-16	1.550712E-17
5.170000E+03	2.127230E-16	1.526200E-17
5.180000E+03	2.109050E-16	1.511846E-17
5.190000E+03	2.104625E-16	1.507358E-17
5.200000E+03	2.112690E-16	1.511806E-17
5.210000E+03	2.131247E-16	1.523737E-17
5.220000E+03	2.157886E-16	1.541410E-17
5.230000E+03	2.190173E-16	1.563071E-17
5.240000E+03	2.225981E-16	1.587192E-17
5.250000E+03	2.263569E-16	1.612526E-17
5.260000E+03	2.301898E-16	1.638329E-17
5.270000E+03	2.340652E-16	1.664375E-17
5.280000E+03	2.380196E-16	1.690921E-17
5.290000E+03	2.421398E-16	1.718580E-17
5.300000E+03	2.465568E-16	1.748278E-17
5.310000E+03	2.514062E-16	1.780968E-17
5.320000E+03	2.568164E-16	1.817550E-17
5.330000E+03	2.628707E-16	1.858600E-17
5.340000E+03	2.696073E-16	1.904372E-17
5.350000E+03	2.770005E-16	1.954673E-17
5.360000E+03	2.849488E-16	2.008769E-17
5.370000E+03	2.932921E-16	2.065522E-17
5.380000E+03	3.018149E-16	2.123404E-17
5.390000E+03	3.102688E-16	2.180665E-17
5.400000E+03	3.183950E-16	2.235486E-17
5.410000E+03	3.259410E-16	2.286104E-17
5.420000E+03	3.326901E-16	2.331011E-17
5.430000E+03	3.384878E-16	2.369141E-17
5.440000E+03	3.432273E-16	2.399767E-17
5.450000E+03	3.468617E-16	2.422585E-17
5.460000E+03	3.494200E-16	2.437820E-17
5.470000E+03	3.509825E-16	2.446056E-17
5.480000E+03	3.516940E-16	2.448325E-17
5.490000E+03	3.517528E-16	2.446021E-17
5.500000E+03	3.513945E-16	2.440798E-17
5.510000E+03	3.508781E-16	2.434462E-17
5.520000E+03	3.504730E-16	2.428884E-17
5.530000E+03	3.504384E-16	2.425855E-17
5.540000E+03	3.509880E-16	2.426844E-17
5.550000E+03	3.522886E-16	2.432987E-17
5.560000E+03	3.543823E-16	2.444558E-17
5.570000E+03	3.571842E-16	2.460949E-17
5.580000E+03	3.604802E-16	2.480670E-17
5.590000E+03	3.639638E-16	2.501601E-17
5.600000E+03	3.672283E-16	2.520945E-17
5.610000E+03	3.698429E-16	2.535751E-17
5.620000E+03	3.714035E-16	2.543269E-17
5.630000E+03	3.715698E-16	2.541197E-17
5.640000E+03	3.701241E-16	2.528085E-17
5.650000E+03	3.669696E-16	2.503313E-17
5.660000E+03	3.621667E-16	2.467340E-17
5.670000E+03	3.558600E-16	2.421193E-17
5.680000E+03	3.482507E-16	2.366281E-17
5.690000E+03	3.395249E-16	2.303904E-17
5.700000E+03	3.298494E-16	2.235224E-17
5.710000E+03	3.193323E-16	2.161000E-17
5.720000E+03	3.080256E-16	2.081610E-17
5.730000E+03	2.959731E-16	1.997374E-17
5.740000E+03	2.832770E-16	1.909005E-17
5.750000E+03	2.701175E-16	1.817736E-17
5.760000E+03	2.567623E-16	1.725383E-17
5.770000E+03	2.435458E-16	1.634198E-17
5.780000E+03	2.308651E-16	1.546840E-17
5.790000E+03	2.191165E-16	1.465949E-17
5.800000E+03	2.086693E-16	1.393967E-17
5.810000E+03	1.998501E-16	1.333036E-17
5.820000E+03	1.929342E-16	1.284942E-17
5.830000E+03	1.881533E-16	1.251170E-17
5.840000E+03	1.856984E-16	1.232922E-17
5.850000E+03	1.857375E-16	1.231241E-17
5.860000E+03	1.884156E-16	1.247008E-17
5.870000E+03	1.938423E-16	1.280864E-17
5.880000E+03	2.021015E-16	1.333271E-17
5.890000E+03	2.132197E-16	1.404313E-17
5.900000E+03	2.271188E-16	1.493378E-17
5.910000E+03	2.435932E-16	1.599022E-17
5.920000E+03	2.622823E-16	1.718793E-17
5.930000E+03	2.826281E-16	1.848959E-17
5.940000E+03	3.038940E-16	1.984651E-17
5.950000E+03	3.251877E-16	2.120011E-17
5.960000E+03	3.455701E-16	2.248923E-17
5.970000E+03	3.641106E-16	2.365365E-17
5.980000E+03	3.800342E-16	2.464371E-17
5.990000E+03	3.928000E-16	2.542525E-17
6.000000E+03	4.021430E-16	2.598224E-17
6.010000E+03	4.080515E-16	2.631510E-17
6.020000E+03	4.107454E-16	2.643922E-17
6.030000E+03	4.105956E-16	2.637956E-17
6.040000E+03	4.080417E-16	2.616537E-17
6.050000E+03	4.035338E-16	2.582632E-17
6.060000E+03	3.975129E-16	2.539135E-17
6.070000E+03	3.903678E-16	2.488580E-17
6.080000E+03	3.824479E-16	2.433237E-17
6.090000E+03	3.740437E-16	2.374980E-17
6.100000E+03	3.654017E-16	2.315394E-17
6.110000E+03	3.567250E-16	2.255773E-17
6.120000E+03	3.481759E-16	2.197147E-17
6.130000E+03	3.398916E-16	2.140377E-17
6.140000E+03	3.319888E-16	2.086187E-17
6.150000E+03	3.245692E-16	2.035204E-17
6.160000E+03	3.177207E-16	1.987960E-17
6.170000E+03	3.115288E-16	1.944967E-17
6.180000E+03	3.060525E-16	1.906568E-17
6.190000E+03	3.013177E-16	1.872896E-17
6.200000E+03	2.973043E-16	1.843798E-17
6.210000E+03	2.939729E-16	1.818999E-17
6.220000E+03	2.912572E-16	1.798064E-17
6.230000E+03	2.890858E-16	1.780527E-17
6.240000E+03	2.873968E-16	1.765984E-17
6.250000E+03	2.861449E-16	1.754139E-17
6.260000E+03	2.853201E-16	1.744910E-17
6.270000E+03	2.849140E-16	1.738229E-17
6.280000E+03	2.849109E-16	1.733981E-17
6.290000E+03	2.852656E-16	1.731874E-17
6.300000E+03	2.858949E-16	1.731388E-17
6.310000E+03	2.866816E-16	1.731802E-17
6.320000E+03	2.874808E-16	1.732235E-17
6.330000E+03	2.881394E-16	1.731767E-17
6.340000E+03	2.884979E-16	1.729447E-17
6.350000E+03	2.884297E-16	1.724533E-17
6.360000E+03	2.878340E-16	1.716443E-17
6.370000E+03	2.866496E-16	1.704839E-17
6.380000E+03	2.848811E-16	1.689775E-17
6.390000E+03	2.825731E-16	1.671545E-17
6.400000E+03	2.798412E-16	1.650858E-17
6.410000E+03	2.768723E-16	1.628833E-17
6.420000E+03	2.739097E-16	1.606911E-17
6.430000E+03	2.712493E-16	1.586824E-17
6.440000E+03	2.692379E-16	1.570580E-17
6.450000E+03	2.682398E-16	1.560268E-17
6.460000E+03	2.686085E-16	1.557886E-17
6.470000E+03	2.706656E-16	1.565226E-17
6.480000E+03	2.746778E-16	1.583738E-17
6.490000E+03	2.808116E-16	1.614279E-17
6.500000E+03	2.890836E-16	1.656830E-17
6.510000E+03	2.993774E-16	1.710616E-17
6.520000E+03	3.114223E-16	1.773982E-17
6.530000E+03	3.248063E-16	1.844494E-17
6.540000E+03	3.389843E-16	1.918990E-17
6.550000E+03	3.532974E-16	1.993706E-17
6.560000E+03	3.670618E-16	2.064781E-17
6.570000E+03	3.795979E-16	2.128431E-17
6.580000E+03	3.903286E-16	2.181493E-17
6.590000E+03	3.988846E-16	2.222003E-17
6.600000E+03	4.051083E-16	2.249203E-17
6.610000E+03	4.090871E-16	2.263704E-17
6.620000E+03	4.111499E-16	2.267443E-17
6.630000E+03	4.117813E-16	2.263190E-17
6.640000E+03	4.115211E-16	2.253983E-17
6.650000E+03	4.108756E-16	2.242633E-17
6.660000E+03	4.102761E-16	2.231511E-17
6.670000E+03	4.100466E-16	2.222370E-17
6.680000E+03	4.103814E-16	2.216237E-17
6.690000E+03	4.113477E-16	2.213441E-17
6.700000E+03	4.129158E-16	2.213786E-17
6.710000E+03	4.149444E-16	2.216481E-17
6.720000E+03	4.172305E-16	2.220418E-17
6.730000E+03	4.195102E-16	2.224181E-17
6.740000E+03	4.214853E-16	2.226196E-17
6.750000E+03	4.228511E-16	2.224875E-17
6.760000E+03	4.233311E-16	2.218808E-17
6.770000E+03	4.226888E-16	2.206812E-17
6.780000E+03	4.207586E-16	2.188097E-17
6.790000E+03	4.174421E-16	2.162231E-17
6.800000E+03	4.127298E-16	2.129254E-17
6.810000E+03	4.066894E-16	2.089601E-17
6.820000E+03	3.994195E-16	2.043864E-17
6.830000E+03	3.910690E-16	1.992880E-17
6.840000E+03	3.818201E-16	1.937646E-17
6.850000E+03	3.718515E-16	1.879125E-17
6.860000E+03	3.613663E-16	1.818389E-17
6.870000E+03	3.505585E-16	1.756447E-17
6.880000E+03	3.396073E-16	1.694217E-17
6.890000E+03	3.286741E-16	1.632515E-17
6.900000E+03	3.178961E-16	1.572021E-17
6.910000E+03	3.073814E-16	1.513262E-17
6.920000E+03	2.972248E-16	1.456688E-17
6.930000E+03	2.874790E-16	1.402536E-17
6.940000E+03	2.781896E-16	1.351005E-17
6.950000E+03	2.693786E-16	1.302171E-17
6.960000E+03	2.610704E-16	1.256125E-17
6.970000E+03	2.532792E-16	1.212902E-17
6.980000E+03	2.460502E-16	1.172686E-17
6.990000E+03	2.394485E-16	1.135750E-17
7.000000E+03	2.335768E-16	1.102538E-17
7.010000E+03	2.285860E-16	1.073710E-17
7.020000E+03	2.246591E-16	1.050062E-17
7.030000E+03	2.219657E-16	1.032313E-17
7.040000E+03	2.206680E-16	1.021125E-17
7.050000E+03	2.208997E-16	1.017018E-17
7.060000E+03	2.227180E-16	1.020147E-17
7.070000E+03	2.261122E-16	1.030351E-17
7.080000E+03	2.309697E-16	1.047007E-17
7.090000E+03	2.371021E-16	1.069160E-17
7.100000E+03	2.442180E-16	1.095412E-17
7.110000E+03	2.519412E-16	1.124011E-17
7.120000E+03	2.598679E-16	1.153121E-17
7.130000E+03	2.675834E-16	1.180896E-17
7.140000E+03	2.746953E-16	1.205628E-17
7.150000E+03	2.808554E-16	1.225838E-17
7.160000E+03	2.858032E-16	1.240467E-17
7.170000E+03	2.893423E-16	1.248753E-17
7.180000E+03	2.913677E-16	1.250349E-17
7.190000E+03	2.918415E-16	1.245207E-17
7.200000E+03	2.908272E-16	1.233709E-17
7.210000E+03	2.884497E-16	1.216494E-17
7.220000E+03	2.849236E-16	1.194564E-17
7.230000E+03	2.805225E-16	1.169146E-17
7.240000E+03	2.755497E-16	1.141564E-17
7.250000E+03	2.703378E-16	1.113231E-17
7.260000E+03	2.652130E-16	1.085502E-17
7.270000E+03	2.604561E-16	1.059514E-17
7.280000E+03	2.563184E-16	1.036257E-17
7.290000E+03	2.529825E-16	1.016419E-17
7.300000E+03	2.505621E-16	1.000397E-17
7.310000E+03	2.491157E-16	9.883527E-18
7.320000E+03	2.486259E-16	9.801466E-18
7.330000E+03	2.490275E-16	9.754513E-18
7.340000E+03	2.502024E-16	9.737416E-18
7.350000E+03	2.519877E-16	9.743296E-18
7.360000E+03	2.541843E-16	9.764054E-18
7.370000E+03	2.565646E-16	9.790707E-18
7.380000E+03	2.588898E-16	9.814076E-18
7.390000E+03	2.609245E-16	9.825350E-18
7.400000E+03	2.624685E-16	9.817275E-18
7.410000E+03	2.633565E-16	9.784100E-18
7.420000E+03	2.634688E-16	9.721915E-18
7.430000E+03	2.627647E-16	9.629831E-18
7.440000E+03	2.612488E-16	9.508647E-18
7.450000E+03	2.589793E-16	9.361096E-18
7.460000E+03	2.560951E-16	9.192738E-18
7.470000E+03	2.527537E-16	9.009667E-18
7.480000E+03	2.491335E-16	8.818549E-18
7.490000E+03	2.454306E-16	8.626500E-18
7.500000E+03	2.418160E-16	8.439551E-18
7.510000E+03	2.384111E-16	8.261860E-18
7.520000E+03	2.352764E-16	8.095363E-18
7.530000E+03	2.324251E-16	7.940316E-18
7.540000E+03	2.298252E-16	7.795443E-18
7.550000E+03	2.274315E-16	7.659040E-18
7.560000E+03	2.251835E-16	7.528956E-18
7.570000E+03	2.230303E-16	7.403398E-18
7.580000E+03	2.209611E-16	7.281957E-18
7.590000E+03	2.189680E-16	7.164330E-18
7.600000E+03	2.170522E-16	7.050509E-18
7.610000E+03	2.152111E-16	6.940367E-18
7.620000E+03	2.134274E-16	6.833317E-18
7.630000E+03	2.116570E-16	6.727923E-18
7.640000E+03	2.098378E-16	6.622230E-18
7.650000E+03	2.078703E-16	6.513167E-18
7.660000E+03	2.056533E-16	6.397696E-18
7.670000E+03	2.031065E-16	6.273516E-18
7.680000E+03	2.001571E-16	6.138617E-18
7.690000E+03	1.967613E-16	5.991930E-18
7.700000E+03	1.929439E-16	5.834496E-18
7.710000E+03	1.887727E-16	5.668609E-18
7.720000E+03	1.843624E-16	5.497902E-18
7.730000E+03	1.799050E-16	5.328198E-18
7.740000E+03	1.756143E-16	5.165794E-18
7.750000E+03	1.717241E-16	5.017402E-18
7.760000E+03	1.684713E-16	4.889647E-18
