#wls	flux	fluxerr
1.600000E+03	2.786978E-17	4.709169E-18
1.640000E+03	2.834470E-17	4.764671E-18
1.680000E+03	2.883634E-17	4.821456E-18
1.720000E+03	2.934929E-17	4.880192E-18
1.760000E+03	2.988821E-17	4.941538E-18
1.800000E+03	3.044648E-17	5.004277E-18
1.840000E+03	3.102257E-17	5.068044E-18
1.880000E+03	3.162043E-17	5.133364E-18
1.920000E+03	3.223795E-17	5.199769E-18
1.960000E+03	3.286658E-17	5.265756E-18
2.000000E+03	3.352126E-17	5.333601E-18
2.040000E+03	3.418032E-17	5.399718E-18
2.080000E+03	3.485796E-17	5.466245E-18
2.120000E+03	3.553699E-17	5.530365E-18
2.160000E+03	3.622450E-17	5.593087E-18
2.200000E+03	3.691442E-17	5.653368E-18
2.240000E+03	3.759334E-17	5.709081E-18
2.280000E+03	3.826648E-17	5.760968E-18
2.320000E+03	3.892546E-17	5.807720E-18
2.360000E+03	3.956106E-17	5.847945E-18
2.400000E+03	4.016997E-17	5.881174E-18
2.440000E+03	4.074172E-17	5.905919E-18
2.480000E+03	4.127195E-17	5.921640E-18
2.520000E+03	4.174943E-17	5.926852E-18
2.560000E+03	4.216948E-17	5.921067E-18
2.600000E+03	4.252756E-17	5.903859E-18
2.640000E+03	4.281953E-17	5.874900E-18
2.680000E+03	4.304205E-17	5.834008E-18
2.720000E+03	4.319286E-17	5.781186E-18
2.760000E+03	4.326517E-17	5.715870E-18
2.800000E+03	4.327239E-17	5.640192E-18
2.840000E+03	4.321175E-17	5.554130E-18
2.880000E+03	4.310032E-17	5.460209E-18
2.920000E+03	4.294563E-17	5.359656E-18
2.960000E+03	4.276299E-17	5.254605E-18
3.000000E+03	4.256910E-17	5.147257E-18
3.010000E+03	4.252469E-17	5.120771E-18
3.020000E+03	4.247771E-17	5.093918E-18
3.030000E+03	4.243318E-17	5.067302E-18
3.040000E+03	4.239116E-17	5.040928E-18
3.050000E+03	4.234706E-17	5.014248E-18
3.060000E+03	4.231042E-17	4.988389E-18
3.070000E+03	4.227194E-17	4.962250E-18
3.080000E+03	4.223644E-17	4.936397E-18
3.090000E+03	4.220847E-17	4.911355E-18
3.100000E+03	4.217907E-17	4.886075E-18
3.110000E+03	4.215725E-17	4.861598E-18
3.120000E+03	4.213858E-17	4.837405E-18
3.130000E+03	4.212309E-17	4.813494E-18
3.140000E+03	4.211080E-17	4.789862E-18
3.150000E+03	4.210598E-17	4.766989E-18
3.160000E+03	4.210428E-17	4.744372E-18
3.170000E+03	4.210980E-17	4.722467E-18
3.180000E+03	4.211830E-17	4.700788E-18
3.190000E+03	4.212967E-17	4.679319E-18
3.200000E+03	4.215183E-17	4.658932E-18
3.210000E+03	4.217646E-17	4.638692E-18
3.220000E+03	4.220730E-17	4.619007E-18
3.230000E+03	4.224402E-17	4.599830E-18
3.240000E+03	4.228626E-17	4.581112E-18
3.250000E+03	4.232981E-17	4.562390E-18
3.260000E+03	4.238184E-17	4.544432E-18
3.270000E+03	4.243805E-17	4.526764E-18
3.280000E+03	4.249789E-17	4.509320E-18
3.290000E+03	4.256442E-17	4.492419E-18
3.300000E+03	4.263331E-17	4.475595E-18
3.310000E+03	4.270389E-17	4.458772E-18
3.320000E+03	4.278250E-17	4.442608E-18
3.330000E+03	4.285771E-17	4.425907E-18
3.340000E+03	4.293917E-17	4.409668E-18
3.350000E+03	4.301905E-17	4.393079E-18
3.360000E+03	4.309983E-17	4.376395E-18
3.370000E+03	4.318052E-17	4.359515E-18
3.380000E+03	4.326339E-17	4.342668E-18
3.390000E+03	4.334081E-17	4.325088E-18
3.400000E+03	4.341826E-17	4.307328E-18
3.410000E+03	4.349144E-17	4.288966E-18
3.420000E+03	4.356246E-17	4.270216E-18
3.430000E+03	4.363019E-17	4.250972E-18
3.440000E+03	4.369052E-17	4.230842E-18
3.450000E+03	4.374555E-17	4.210043E-18
3.460000E+03	4.379433E-17	4.188494E-18
3.470000E+03	4.383596E-17	4.166122E-18
3.480000E+03	4.387254E-17	4.143138E-18
3.490000E+03	4.389758E-17	4.118945E-18
3.500000E+03	4.391627E-17	4.094046E-18
3.510000E+03	4.392803E-17	4.068404E-18
3.520000E+03	4.392980E-17	4.041748E-18
3.530000E+03	4.392415E-17	4.014334E-18
3.540000E+03	4.391103E-17	3.986174E-18
3.550000E+03	4.389066E-17	3.957300E-18
3.560000E+03	4.386593E-17	3.927989E-18
3.570000E+03	4.383233E-17	3.897848E-18
3.580000E+03	4.379576E-17	3.867418E-18
3.590000E+03	4.375720E-17	3.836791E-18
3.600000E+03	4.371551E-17	3.805874E-18
3.610000E+03	4.367466E-17	3.775018E-18
3.620000E+03	4.363876E-17	3.744576E-18
3.630000E+03	4.360524E-17	3.714323E-18
3.640000E+03	4.357883E-17	3.684657E-18
3.650000E+03	4.356438E-17	3.655974E-18
3.660000E+03	4.356474E-17	3.628489E-18
3.670000E+03	4.358098E-17	3.602268E-18
3.680000E+03	4.361879E-17	3.577747E-18
3.690000E+03	4.368196E-17	3.555199E-18
3.700000E+03	4.377469E-17	3.534916E-18
3.710000E+03	4.390349E-17	3.517366E-18
3.720000E+03	4.406927E-17	3.502555E-18
3.730000E+03	4.428128E-17	3.491143E-18
3.740000E+03	4.454517E-17	3.483490E-18
3.750000E+03	4.486705E-17	3.479969E-18
3.760000E+03	4.525168E-17	3.480841E-18
3.770000E+03	4.570995E-17	3.486818E-18
3.780000E+03	4.624599E-17	3.498075E-18
3.790000E+03	4.687207E-17	3.515386E-18
3.800000E+03	4.759573E-17	3.539143E-18
3.810000E+03	4.842917E-17	3.570061E-18
3.820000E+03	4.938197E-17	3.608635E-18
3.830000E+03	5.046844E-17	3.655677E-18
3.840000E+03	5.170225E-17	3.711917E-18
3.850000E+03	5.309626E-17	3.777994E-18
3.860000E+03	5.466810E-17	3.854852E-18
3.870000E+03	5.643633E-17	3.943454E-18
3.880000E+03	5.841439E-17	4.044366E-18
3.890000E+03	6.062368E-17	4.158666E-18
3.900000E+03	6.307755E-17	4.286834E-18
3.910000E+03	6.579640E-17	4.429792E-18
3.920000E+03	6.879281E-17	4.587894E-18
3.930000E+03	7.207829E-17	4.761393E-18
3.940000E+03	7.566162E-17	4.950344E-18
3.950000E+03	7.953793E-17	5.153897E-18
3.960000E+03	8.370320E-17	5.371275E-18
3.970000E+03	8.813787E-17	5.600732E-18
3.980000E+03	9.281586E-17	5.840168E-18
3.990000E+03	9.770302E-17	6.087050E-18
4.000000E+03	1.027591E-16	6.338565E-18
4.010000E+03	1.079543E-16	6.592644E-18
4.020000E+03	1.132481E-16	6.846647E-18
4.030000E+03	1.186040E-16	7.098292E-18
4.040000E+03	1.239736E-16	7.344671E-18
4.050000E+03	1.293016E-16	7.582617E-18
4.060000E+03	1.345214E-16	7.808425E-18
4.070000E+03	1.395373E-16	8.016898E-18
4.080000E+03	1.442447E-16	8.202549E-18
4.090000E+03	1.485335E-16	8.359836E-18
4.100000E+03	1.522856E-16	8.483013E-18
4.110000E+03	1.553941E-16	8.567231E-18
4.120000E+03	1.577702E-16	8.608839E-18
4.130000E+03	1.593582E-16	8.606177E-18
4.140000E+03	1.601489E-16	8.560151E-18
4.150000E+03	1.601574E-16	8.472960E-18
4.160000E+03	1.594404E-16	8.348912E-18
4.170000E+03	1.580944E-16	8.194227E-18
4.180000E+03	1.562181E-16	8.014998E-18
4.190000E+03	1.539299E-16	7.818093E-18
4.200000E+03	1.513545E-16	7.610422E-18
4.210000E+03	1.486071E-16	7.398151E-18
4.220000E+03	1.458065E-16	7.187375E-18
4.230000E+03	1.430543E-16	6.983118E-18
4.240000E+03	1.404464E-16	6.789927E-18
4.250000E+03	1.380624E-16	6.611384E-18
4.260000E+03	1.359689E-16	6.450329E-18
4.270000E+03	1.342157E-16	6.308704E-18
4.280000E+03	1.328294E-16	6.187304E-18
4.290000E+03	1.318245E-16	6.086343E-18
4.300000E+03	1.311894E-16	6.004840E-18
4.310000E+03	1.308859E-16	5.940664E-18
4.320000E+03	1.308597E-16	5.891040E-18
4.330000E+03	1.310297E-16	5.852090E-18
4.340000E+03	1.312928E-16	5.819112E-18
4.350000E+03	1.315262E-16	5.786680E-18
4.360000E+03	1.316086E-16	5.749598E-18
4.370000E+03	1.314205E-16	5.702881E-18
4.380000E+03	1.308611E-16	5.642474E-18
4.390000E+03	1.298715E-16	5.566189E-18
4.400000E+03	1.284467E-16	5.474149E-18
4.410000E+03	1.266461E-16	5.369163E-18
4.420000E+03	1.245736E-16	5.255815E-18
4.430000E+03	1.223559E-16	5.139530E-18
4.440000E+03	1.201309E-16	5.026069E-18
4.450000E+03	1.180396E-16	4.921228E-18
4.460000E+03	1.162148E-16	4.830376E-18
4.470000E+03	1.147787E-16	4.758376E-18
4.480000E+03	1.138391E-16	4.709446E-18
4.490000E+03	1.134878E-16	4.687144E-18
4.500000E+03	1.137995E-16	4.694365E-18
4.510000E+03	1.148398E-16	4.733684E-18
4.520000E+03	1.166574E-16	4.807040E-18
4.530000E+03	1.192920E-16	4.916082E-18
4.540000E+03	1.227739E-16	5.062143E-18
4.550000E+03	1.271243E-16	5.246259E-18
4.560000E+03	1.323521E-16	5.469047E-18
4.570000E+03	1.384383E-16	5.730031E-18
4.580000E+03	1.453307E-16	6.027416E-18
4.590000E+03	1.529344E-16	6.357684E-18
4.600000E+03	1.610943E-16	6.714806E-18
4.610000E+03	1.695857E-16	7.089816E-18
4.620000E+03	1.781198E-16	7.470948E-18
4.630000E+03	1.863554E-16	7.844074E-18
4.640000E+03	1.939405E-16	8.194371E-18
4.650000E+03	2.005249E-16	8.506809E-18
4.660000E+03	2.058039E-16	8.767998E-18
4.670000E+03	2.095665E-16	8.968240E-18
4.680000E+03	2.117124E-16	9.102351E-18
4.690000E+03	2.122495E-16	9.169640E-18
4.700000E+03	2.113091E-16	9.174711E-18
4.710000E+03	2.091131E-16	9.126155E-18
4.720000E+03	2.059252E-16	9.034545E-18
4.730000E+03	2.020152E-16	8.910930E-18
4.740000E+03	1.976530E-16	8.766587E-18
4.750000E+03	1.930876E-16	8.612134E-18
4.760000E+03	1.885468E-16	8.457464E-18
4.770000E+03	1.842265E-16	8.311288E-18
4.780000E+03	1.802891E-16	8.181007E-18
4.790000E+03	1.768589E-16	8.072471E-18
4.800000E+03	1.740209E-16	7.989885E-18
4.810000E+03	1.718120E-16	7.935334E-18
4.820000E+03	1.702105E-16	7.908233E-18
4.830000E+03	1.691561E-16	7.906201E-18
4.840000E+03	1.685674E-16	7.925798E-18
4.850000E+03	1.683444E-16	7.962619E-18
4.860000E+03	1.683811E-16	8.011882E-18
4.870000E+03	1.685882E-16	8.069473E-18
4.880000E+03	1.688916E-16	8.131922E-18
4.890000E+03	1.692450E-16	8.197017E-18
4.900000E+03	1.696234E-16	8.263540E-18
4.910000E+03	1.700205E-16	8.331160E-18
4.920000E+03	1.704421E-16	8.400137E-18
4.930000E+03	1.709034E-16	8.471196E-18
4.940000E+03	1.714104E-16	8.544634E-18
4.950000E+03	1.719719E-16	8.620891E-18
4.960000E+03	1.725991E-16	8.700538E-18
4.970000E+03	1.733100E-16	8.784510E-18
4.980000E+03	1.741276E-16	8.874008E-18
4.990000E+03	1.750718E-16	8.970111E-18
5.000000E+03	1.761562E-16	9.073573E-18
5.010000E+03	1.773803E-16	9.184464E-18
5.020000E+03	1.787096E-16	9.301052E-18
5.030000E+03	1.800733E-16	9.419693E-18
5.040000E+03	1.813631E-16	9.534672E-18
5.050000E+03	1.824546E-16	9.639333E-18
5.060000E+03	1.832201E-16	9.726714E-18
5.070000E+03	1.835434E-16	9.790323E-18
5.080000E+03	1.833444E-16	9.825522E-18
5.090000E+03	1.826007E-16	9.830689E-18
5.100000E+03	1.813428E-16	9.807065E-18
5.110000E+03	1.796574E-16	9.758980E-18
5.120000E+03	1.776840E-16	9.693735E-18
5.130000E+03	1.755955E-16	9.620610E-18
5.140000E+03	1.735737E-16	9.549535E-18
5.150000E+03	1.718035E-16	9.490784E-18
5.160000E+03	1.704521E-16	9.453802E-18
5.170000E+03	1.696399E-16	9.445587E-18
5.180000E+03	1.694307E-16	9.470044E-18
5.190000E+03	1.698354E-16	9.528174E-18
5.200000E+03	1.708287E-16	9.618915E-18
5.210000E+03	1.723415E-16	9.738718E-18
5.220000E+03	1.742865E-16	9.882906E-18
5.230000E+03	1.765636E-16	1.004602E-17
5.240000E+03	1.790844E-16	1.022316E-17
5.250000E+03	1.817723E-16	1.041006E-17
5.260000E+03	1.845599E-16	1.060288E-17
5.270000E+03	1.874047E-16	1.079919E-17
5.280000E+03	1.902741E-16	1.099711E-17
5.290000E+03	1.931484E-16	1.119545E-17
5.300000E+03	1.960082E-16	1.139307E-17
5.310000E+03	1.988353E-16	1.158885E-17
5.320000E+03	2.016163E-16	1.178195E-17
5.330000E+03	2.043321E-16	1.197120E-17
5.340000E+03	2.069642E-16	1.215545E-17
5.350000E+03	2.094895E-16	1.233327E-17
5.360000E+03	2.118788E-16	1.250286E-17
5.370000E+03	2.141050E-16	1.266254E-17
5.380000E+03	2.161425E-16	1.281069E-17
5.390000E+03	2.179630E-16	1.294554E-17
5.400000E+03	2.195481E-16	1.306590E-17
5.410000E+03	2.208872E-16	1.317103E-17
5.420000E+03	2.219763E-16	1.326060E-17
5.430000E+03	2.228285E-16	1.333529E-17
5.440000E+03	2.234691E-16	1.339656E-17
5.450000E+03	2.239393E-16	1.344680E-17
5.460000E+03	2.242989E-16	1.348956E-17
5.470000E+03	2.246100E-16	1.352855E-17
5.480000E+03	2.249492E-16	1.356839E-17
5.490000E+03	2.253935E-16	1.361373E-17
5.500000E+03	2.260072E-16	1.366850E-17
5.510000E+03	2.268555E-16	1.373668E-17
5.520000E+03	2.279879E-16	1.382132E-17
5.530000E+03	2.294485E-16	1.392513E-17
5.540000E+03	2.312755E-16	1.405047E-17
5.550000E+03	2.334898E-16	1.419867E-17
5.560000E+03	2.360745E-16	1.436874E-17
5.570000E+03	2.389635E-16	1.455666E-17
5.580000E+03	2.420356E-16	1.475507E-17
5.590000E+03	2.451118E-16	1.495302E-17
5.600000E+03	2.479506E-16	1.513574E-17
5.610000E+03	2.502765E-16	1.528635E-17
5.620000E+03	2.518029E-16	1.538723E-17
5.630000E+03	2.522811E-16	1.542310E-17
5.640000E+03	2.515094E-16	1.538154E-17
5.650000E+03	2.493659E-16	1.525500E-17
5.660000E+03	2.458269E-16	1.504200E-17
5.670000E+03	2.409520E-16	1.474616E-17
5.680000E+03	2.348580E-16	1.437466E-17
5.690000E+03	2.277052E-16	1.393736E-17
5.700000E+03	2.196782E-16	1.344563E-17
5.710000E+03	2.109565E-16	1.291058E-17
5.720000E+03	2.017197E-16	1.234330E-17
5.730000E+03	1.921339E-16	1.175410E-17
5.740000E+03	1.823760E-16	1.115391E-17
5.750000E+03	1.726362E-16	1.055449E-17
5.760000E+03	1.631080E-16	9.967798E-18
5.770000E+03	1.539978E-16	9.406527E-18
5.780000E+03	1.455145E-16	8.883508E-18
5.790000E+03	1.378631E-16	8.411279E-18
5.800000E+03	1.312219E-16	8.000729E-18
5.810000E+03	1.257469E-16	7.661296E-18
5.820000E+03	1.215714E-16	7.401020E-18
5.830000E+03	1.187998E-16	7.226115E-18
5.840000E+03	1.175123E-16	7.141257E-18
5.850000E+03	1.177749E-16	7.150241E-18
5.860000E+03	1.196409E-16	7.256010E-18
5.870000E+03	1.231332E-16	7.459646E-18
5.880000E+03	1.282575E-16	7.761139E-18
5.890000E+03	1.349840E-16	8.158293E-18
5.900000E+03	1.432376E-16	8.646170E-18
5.910000E+03	1.528701E-16	9.215408E-18
5.920000E+03	1.636620E-16	9.852381E-18
5.930000E+03	1.753045E-16	1.053813E-17
5.940000E+03	1.874024E-16	1.124863E-17
5.950000E+03	1.995049E-16	1.195664E-17
5.960000E+03	2.111373E-16	1.263364E-17
5.970000E+03	2.218433E-16	1.325244E-17
5.980000E+03	2.312134E-16	1.378881E-17
5.990000E+03	2.389319E-16	1.422428E-17
6.000000E+03	2.447906E-16	1.454697E-17
6.010000E+03	2.486918E-16	1.475164E-17
6.020000E+03	2.506501E-16	1.483980E-17
6.030000E+03	2.507753E-16	1.481858E-17
6.040000E+03	2.492498E-16	1.469939E-17
6.050000E+03	2.463086E-16	1.449668E-17
6.060000E+03	2.422122E-16	1.422628E-17
6.070000E+03	2.372360E-16	1.390481E-17
6.080000E+03	2.316488E-16	1.354838E-17
6.090000E+03	2.257016E-16	1.317191E-17
6.100000E+03	2.196180E-16	1.278861E-17
6.110000E+03	2.135802E-16	1.240918E-17
6.120000E+03	2.077449E-16	1.204274E-17
6.130000E+03	2.022293E-16	1.169603E-17
6.140000E+03	1.971184E-16	1.137389E-17
6.150000E+03	1.924806E-16	1.108011E-17
6.160000E+03	1.883546E-16	1.081679E-17
6.170000E+03	1.847702E-16	1.058543E-17
6.180000E+03	1.817380E-16	1.038647E-17
6.190000E+03	1.792534E-16	1.021944E-17
6.200000E+03	1.773042E-16	1.008344E-17
6.210000E+03	1.758605E-16	9.976574E-18
6.220000E+03	1.748919E-16	9.896939E-18
6.230000E+03	1.743703E-16	9.842770E-18
6.240000E+03	1.742722E-16	9.812579E-18
6.250000E+03	1.745980E-16	9.806231E-18
6.260000E+03	1.753771E-16	9.825219E-18
6.270000E+03	1.766579E-16	9.872080E-18
6.280000E+03	1.784904E-16	9.949418E-18
6.290000E+03	1.809100E-16	1.005899E-17
6.300000E+03	1.839356E-16	1.020164E-17
6.310000E+03	1.875209E-16	1.037458E-17
6.320000E+03	1.915498E-16	1.057121E-17
6.330000E+03	1.958388E-16	1.078128E-17
6.340000E+03	2.001678E-16	1.099266E-17
6.350000E+03	2.042998E-16	1.119239E-17
6.360000E+03	2.080085E-16	1.136822E-17
6.370000E+03	2.110951E-16	1.150954E-17
6.380000E+03	2.134343E-16	1.160983E-17
6.390000E+03	2.149679E-16	1.166625E-17
6.400000E+03	2.157080E-16	1.167981E-17
6.410000E+03	2.157433E-16	1.165563E-17
6.420000E+03	2.152187E-16	1.160181E-17
6.430000E+03	2.143420E-16	1.152976E-17
6.440000E+03	2.133639E-16	1.145308E-17
6.450000E+03	2.125685E-16	1.138704E-17
6.460000E+03	2.122473E-16	1.134719E-17
6.470000E+03	2.126990E-16	1.134936E-17
6.480000E+03	2.141923E-16	1.140763E-17
6.490000E+03	2.169386E-16	1.153299E-17
6.500000E+03	2.210591E-16	1.173157E-17
6.510000E+03	2.265750E-16	1.200415E-17
6.520000E+03	2.334103E-16	1.234639E-17
6.530000E+03	2.413541E-16	1.274683E-17
6.540000E+03	2.500176E-16	1.318474E-17
6.550000E+03	2.588530E-16	1.363113E-17
6.560000E+03	2.672214E-16	1.405241E-17
6.570000E+03	2.744758E-16	1.441471E-17
6.580000E+03	2.800618E-16	1.468919E-17
6.590000E+03	2.836604E-16	1.485948E-17
6.600000E+03	2.852023E-16	1.492229E-17
6.610000E+03	2.848789E-16	1.488799E-17
6.620000E+03	2.831235E-16	1.477947E-17
6.630000E+03	2.805263E-16	1.462769E-17
6.640000E+03	2.776477E-16	1.446194E-17
6.650000E+03	2.749422E-16	1.430584E-17
6.660000E+03	2.727412E-16	1.417652E-17
6.670000E+03	2.712605E-16	1.408506E-17
6.680000E+03	2.705745E-16	1.403513E-17
6.690000E+03	2.706626E-16	1.402549E-17
6.700000E+03	2.713990E-16	1.404947E-17
6.710000E+03	2.725859E-16	1.409666E-17
6.720000E+03	2.739719E-16	1.415398E-17
6.730000E+03	2.752917E-16	1.420764E-17
6.740000E+03	2.762935E-16	1.424462E-17
6.750000E+03	2.767497E-16	1.425320E-17
6.760000E+03	2.764760E-16	1.422393E-17
6.770000E+03	2.753225E-16	1.414919E-17
6.780000E+03	2.731859E-16	1.402377E-17
6.790000E+03	2.700066E-16	1.384475E-17
6.800000E+03	2.657760E-16	1.361184E-17
6.810000E+03	2.605123E-16	1.332614E-17
6.820000E+03	2.542793E-16	1.299109E-17
6.830000E+03	2.471732E-16	1.261177E-17
6.840000E+03	2.393179E-16	1.219468E-17
6.850000E+03	2.308576E-16	1.174733E-17
6.860000E+03	2.219555E-16	1.127816E-17
6.870000E+03	2.127740E-16	1.079554E-17
6.880000E+03	2.034748E-16	1.030777E-17
6.890000E+03	1.942024E-16	9.822253E-18
6.900000E+03	1.850908E-16	9.345784E-18
6.910000E+03	1.762516E-16	8.884018E-18
6.920000E+03	1.677856E-16	8.442020E-18
6.930000E+03	1.597718E-16	8.023712E-18
6.940000E+03	1.522874E-16	7.632910E-18
6.950000E+03	1.454067E-16	7.273230E-18
6.960000E+03	1.391965E-16	6.947887E-18
6.970000E+03	1.337303E-16	6.660381E-18
6.980000E+03	1.290857E-16	6.414381E-18
6.990000E+03	1.253431E-16	6.213627E-18
7.000000E+03	1.225844E-16	6.061887E-18
7.010000E+03	1.208945E-16	5.963013E-18
7.020000E+03	1.203587E-16	5.920807E-18
7.030000E+03	1.210466E-16	5.938220E-18
7.040000E+03	1.230110E-16	6.017319E-18
7.050000E+03	1.262765E-16	6.158724E-18
7.060000E+03	1.308221E-16	6.360788E-18
7.070000E+03	1.365552E-16	6.618376E-18
7.080000E+03	1.433068E-16	6.922673E-18
7.090000E+03	1.508366E-16	7.261507E-18
7.100000E+03	1.588450E-16	7.619990E-18
7.110000E+03	1.669768E-16	7.980765E-18
7.120000E+03	1.748533E-16	8.325603E-18
7.130000E+03	1.821159E-16	8.637488E-18
7.140000E+03	1.884530E-16	8.901920E-18
7.150000E+03	1.936231E-16	9.107952E-18
7.160000E+03	1.974746E-16	9.249086E-18
7.170000E+03	1.999459E-16	9.323171E-18
7.180000E+03	2.010721E-16	9.332649E-18
7.190000E+03	2.009572E-16	9.283162E-18
7.200000E+03	1.997657E-16	9.183078E-18
7.210000E+03	1.976996E-16	9.042386E-18
7.220000E+03	1.949941E-16	8.872416E-18
7.230000E+03	1.918807E-16	8.684144E-18
7.240000E+03	1.885916E-16	8.488372E-18
7.250000E+03	1.853429E-16	8.294950E-18
7.260000E+03	1.823241E-16	8.112335E-18
7.270000E+03	1.796981E-16	7.947604E-18
7.280000E+03	1.775901E-16	7.805988E-18
7.290000E+03	1.760870E-16	7.690892E-18
7.300000E+03	1.752384E-16	7.604000E-18
7.310000E+03	1.750561E-16	7.545265E-18
7.320000E+03	1.755134E-16	7.512974E-18
7.330000E+03	1.765531E-16	7.504120E-18
7.340000E+03	1.780886E-16	7.514499E-18
7.350000E+03	1.800205E-16	7.539473E-18
7.360000E+03	1.822249E-16	7.573481E-18
7.370000E+03	1.845770E-16	7.611083E-18
7.380000E+03	1.869461E-16	7.646757E-18
7.390000E+03	1.891976E-16	7.674983E-18
7.400000E+03	1.911949E-16	7.690355E-18
7.410000E+03	1.928027E-16	7.687718E-18
7.420000E+03	1.938983E-16	7.662611E-18
7.430000E+03	1.943742E-16	7.611362E-18
7.440000E+03	1.941510E-16	7.531561E-18
7.450000E+03	1.931873E-16	7.422406E-18
7.460000E+03	1.914889E-16	7.284972E-18
7.470000E+03	1.891132E-16	7.122291E-18
7.480000E+03	1.861576E-16	6.938826E-18
7.490000E+03	1.827660E-16	6.740624E-18
7.500000E+03	1.790896E-16	6.533787E-18
7.510000E+03	1.752790E-16	6.324160E-18
7.520000E+03	1.714561E-16	6.116331E-18
7.530000E+03	1.677095E-16	5.913518E-18
7.540000E+03	1.641078E-16	5.718097E-18
7.550000E+03	1.606810E-16	5.530985E-18
7.560000E+03	1.574443E-16	5.352549E-18
7.570000E+03	1.543950E-16	5.182527E-18
7.580000E+03	1.515269E-16	5.020536E-18
7.590000E+03	1.488285E-16	4.866028E-18
7.600000E+03	1.462862E-16	4.718401E-18
7.610000E+03	1.438899E-16	4.577188E-18
7.620000E+03	1.416338E-16	4.442068E-18
7.630000E+03	1.395094E-16	4.312653E-18
7.640000E+03	1.375116E-16	4.188659E-18
7.650000E+03	1.356326E-16	4.069737E-18
7.660000E+03	1.338622E-16	3.955483E-18
7.670000E+03	1.321930E-16	3.845586E-18
7.680000E+03	1.306207E-16	3.739838E-18
7.690000E+03	1.291464E-16	3.638197E-18
7.700000E+03	1.277940E-16	3.541242E-18
7.710000E+03	1.266000E-16	3.449867E-18
7.720000E+03	1.256158E-16	3.365285E-18
7.730000E+03	1.249086E-16	3.289043E-18
7.740000E+03	1.245549E-16	3.222806E-18
7.750000E+03	1.246217E-16	3.167868E-18
7.760000E+03	1.251666E-16	3.125174E-18
