#wls	flux	fluxerr
1.600000E+03	2.679404E-17	6.335999E-18
1.640000E+03	2.719666E-17	6.409218E-18
1.680000E+03	2.761636E-17	6.485154E-18
1.720000E+03	2.804730E-17	6.562349E-18
1.760000E+03	2.849848E-17	6.642832E-18
1.800000E+03	2.896883E-17	6.726250E-18
1.840000E+03	2.945175E-17	6.810975E-18
1.880000E+03	2.995071E-17	6.897717E-18
1.920000E+03	3.046369E-17	6.985913E-18
1.960000E+03	3.098837E-17	7.074935E-18
2.000000E+03	3.152743E-17	7.165295E-18
2.040000E+03	3.207237E-17	7.254965E-18
2.080000E+03	3.262509E-17	7.344290E-18
2.120000E+03	3.318726E-17	7.433554E-18
2.160000E+03	3.374887E-17	7.520427E-18
2.200000E+03	3.431061E-17	7.604993E-18
2.240000E+03	3.486709E-17	7.685997E-18
2.280000E+03	3.541814E-17	7.763348E-18
2.320000E+03	3.595741E-17	7.835613E-18
2.360000E+03	3.648387E-17	7.902543E-18
2.400000E+03	3.698462E-17	7.961343E-18
2.440000E+03	3.746941E-17	8.014133E-18
2.480000E+03	3.791910E-17	8.056847E-18
2.520000E+03	3.833742E-17	8.090353E-18
2.560000E+03	3.872232E-17	8.114296E-18
2.600000E+03	3.906629E-17	8.127209E-18
2.640000E+03	3.937335E-17	8.130053E-18
2.680000E+03	3.963148E-17	8.120486E-18
2.720000E+03	3.985125E-17	8.100849E-18
2.760000E+03	4.002763E-17	8.070274E-18
2.800000E+03	4.016206E-17	8.029234E-18
2.840000E+03	4.026201E-17	7.979395E-18
2.880000E+03	4.033059E-17	7.921526E-18
2.920000E+03	4.037654E-17	7.857479E-18
2.960000E+03	4.040869E-17	7.789067E-18
3.000000E+03	4.043558E-17	7.717985E-18
3.010000E+03	4.043811E-17	7.699159E-18
3.020000E+03	4.044678E-17	7.681400E-18
3.030000E+03	4.045284E-17	7.663041E-18
3.040000E+03	4.046057E-17	7.644894E-18
3.050000E+03	4.046567E-17	7.626148E-18
3.060000E+03	4.047653E-17	7.608382E-18
3.070000E+03	4.048466E-17	7.589997E-18
3.080000E+03	4.049418E-17	7.571766E-18
3.090000E+03	4.050497E-17	7.553668E-18
3.100000E+03	4.051693E-17	7.535678E-18
3.110000E+03	4.052990E-17	7.517769E-18
3.120000E+03	4.054378E-17	7.499916E-18
3.130000E+03	4.055841E-17	7.482091E-18
3.140000E+03	4.057362E-17	7.464261E-18
3.150000E+03	4.059306E-17	7.447096E-18
3.160000E+03	4.061264E-17	7.429841E-18
3.170000E+03	4.062838E-17	7.411768E-18
3.180000E+03	4.065136E-17	7.394898E-18
3.190000E+03	4.067002E-17	7.377126E-18
3.200000E+03	4.069519E-17	7.360415E-18
3.210000E+03	4.071551E-17	7.342708E-18
3.220000E+03	4.073796E-17	7.325266E-18
3.230000E+03	4.076211E-17	7.308011E-18
3.240000E+03	4.078401E-17	7.290232E-18
3.250000E+03	4.081025E-17	7.273106E-18
3.260000E+03	4.083337E-17	7.255306E-18
3.270000E+03	4.085299E-17	7.236763E-18
3.280000E+03	4.087542E-17	7.218602E-18
3.290000E+03	4.089669E-17	7.200119E-18
3.300000E+03	4.091300E-17	7.180647E-18
3.310000E+03	4.093039E-17	7.161252E-18
3.320000E+03	4.094500E-17	7.141260E-18
3.330000E+03	4.095624E-17	7.120575E-18
3.340000E+03	4.096672E-17	7.099650E-18
3.350000E+03	4.097266E-17	7.077838E-18
3.360000E+03	4.097350E-17	7.055050E-18
3.370000E+03	4.097173E-17	7.031721E-18
3.380000E+03	4.096671E-17	7.007747E-18
3.390000E+03	4.095487E-17	6.982527E-18
3.400000E+03	4.093866E-17	6.956487E-18
3.410000E+03	4.091753E-17	6.929543E-18
3.420000E+03	4.088814E-17	6.901139E-18
3.430000E+03	4.085571E-17	6.872171E-18
3.440000E+03	4.081698E-17	6.842095E-18
3.450000E+03	4.077158E-17	6.810865E-18
3.460000E+03	4.072193E-17	6.778894E-18
3.470000E+03	4.066246E-17	6.745265E-18
3.480000E+03	4.059836E-17	6.710856E-18
3.490000E+03	4.052947E-17	6.675650E-18
3.500000E+03	4.045578E-17	6.639656E-18
3.510000E+03	4.037490E-17	6.602489E-18
3.520000E+03	4.028958E-17	6.564616E-18
3.530000E+03	4.020013E-17	6.526093E-18
3.540000E+03	4.010701E-17	6.487003E-18
3.550000E+03	4.001083E-17	6.447455E-18
3.560000E+03	3.991230E-17	6.407568E-18
3.570000E+03	3.981454E-17	6.367848E-18
3.580000E+03	3.971630E-17	6.328094E-18
3.590000E+03	3.962094E-17	6.288842E-18
3.600000E+03	3.952757E-17	6.249950E-18
3.610000E+03	3.944191E-17	6.212314E-18
3.620000E+03	3.936134E-17	6.175511E-18
3.630000E+03	3.928972E-17	6.140138E-18
3.640000E+03	3.922901E-17	6.106483E-18
3.650000E+03	3.918325E-17	6.075153E-18
3.660000E+03	3.915266E-17	6.046160E-18
3.670000E+03	3.913971E-17	6.019852E-18
3.680000E+03	3.914884E-17	5.996881E-18
3.690000E+03	3.918094E-17	5.977340E-18
3.700000E+03	3.924257E-17	5.962186E-18
3.710000E+03	3.933320E-17	5.951283E-18
3.720000E+03	3.945971E-17	5.945615E-18
3.730000E+03	3.962208E-17	5.945111E-18
3.740000E+03	3.982753E-17	5.950784E-18
3.750000E+03	4.007825E-17	5.962876E-18
3.760000E+03	4.038009E-17	5.982173E-18
3.770000E+03	4.073573E-17	6.008971E-18
3.780000E+03	4.115158E-17	6.044107E-18
3.790000E+03	4.163278E-17	6.088221E-18
3.800000E+03	4.218497E-17	6.142007E-18
3.810000E+03	4.281443E-17	6.206241E-18
3.820000E+03	4.352976E-17	6.282014E-18
3.830000E+03	4.433531E-17	6.369786E-18
3.840000E+03	4.524275E-17	6.471051E-18
3.850000E+03	4.625943E-17	6.586659E-18
3.860000E+03	4.739650E-17	6.717980E-18
3.870000E+03	4.866381E-17	6.866169E-18
3.880000E+03	5.007125E-17	7.032360E-18
3.890000E+03	5.162670E-17	7.217384E-18
3.900000E+03	5.334086E-17	7.422443E-18
3.910000E+03	5.522353E-17	7.648582E-18
3.920000E+03	5.727760E-17	7.895872E-18
3.930000E+03	5.951095E-17	8.165062E-18
3.940000E+03	6.192307E-17	8.455730E-18
3.950000E+03	6.451148E-17	8.767193E-18
3.960000E+03	6.727139E-17	9.098458E-18
3.970000E+03	7.018729E-17	9.447103E-18
3.980000E+03	7.324929E-17	9.811504E-18
3.990000E+03	7.643324E-17	1.018816E-17
4.000000E+03	7.971619E-17	1.057378E-17
4.010000E+03	8.307560E-17	1.096521E-17
4.020000E+03	8.648303E-17	1.135858E-17
4.030000E+03	8.991063E-17	1.175014E-17
4.040000E+03	9.333097E-17	1.213631E-17
4.050000E+03	9.671154E-17	1.251291E-17
4.060000E+03	1.000113E-16	1.287472E-17
4.070000E+03	1.031955E-16	1.321748E-17
4.080000E+03	1.062190E-16	1.353567E-17
4.090000E+03	1.090381E-16	1.382407E-17
4.100000E+03	1.116076E-16	1.407740E-17
4.110000E+03	1.138939E-16	1.429194E-17
4.120000E+03	1.158599E-16	1.446361E-17
4.130000E+03	1.174825E-16	1.459021E-17
4.140000E+03	1.187527E-16	1.467127E-17
4.150000E+03	1.196652E-16	1.470687E-17
4.160000E+03	1.202355E-16	1.469960E-17
4.170000E+03	1.204877E-16	1.465304E-17
4.180000E+03	1.204507E-16	1.457133E-17
4.190000E+03	1.201691E-16	1.446042E-17
4.200000E+03	1.196908E-16	1.432649E-17
4.210000E+03	1.190619E-16	1.417544E-17
4.220000E+03	1.183372E-16	1.401405E-17
4.230000E+03	1.175659E-16	1.384829E-17
4.240000E+03	1.167952E-16	1.368380E-17
4.250000E+03	1.160705E-16	1.352588E-17
4.260000E+03	1.154318E-16	1.337907E-17
4.270000E+03	1.149085E-16	1.324663E-17
4.280000E+03	1.145216E-16	1.313073E-17
4.290000E+03	1.142806E-16	1.303223E-17
4.300000E+03	1.141853E-16	1.295084E-17
4.310000E+03	1.142212E-16	1.288466E-17
4.320000E+03	1.143629E-16	1.283063E-17
4.330000E+03	1.145697E-16	1.278400E-17
4.340000E+03	1.147944E-16	1.273945E-17
4.350000E+03	1.149805E-16	1.269071E-17
4.360000E+03	1.150692E-16	1.263142E-17
4.370000E+03	1.149969E-16	1.255483E-17
4.380000E+03	1.147174E-16	1.245621E-17
4.390000E+03	1.141983E-16	1.233244E-17
4.400000E+03	1.134529E-16	1.218539E-17
4.410000E+03	1.125329E-16	1.202099E-17
4.420000E+03	1.115135E-16	1.184753E-17
4.430000E+03	1.104769E-16	1.167387E-17
4.440000E+03	1.095074E-16	1.150889E-17
4.450000E+03	1.086891E-16	1.136128E-17
4.460000E+03	1.081016E-16	1.123905E-17
4.470000E+03	1.078143E-16	1.114901E-17
4.480000E+03	1.078921E-16	1.109732E-17
4.490000E+03	1.083917E-16	1.108917E-17
4.500000E+03	1.093560E-16	1.112824E-17
4.510000E+03	1.108230E-16	1.121762E-17
4.520000E+03	1.128136E-16	1.135858E-17
4.530000E+03	1.153443E-16	1.155197E-17
4.540000E+03	1.184178E-16	1.179721E-17
4.550000E+03	1.220220E-16	1.209225E-17
4.560000E+03	1.261316E-16	1.243378E-17
4.570000E+03	1.307028E-16	1.281679E-17
4.580000E+03	1.356736E-16	1.323450E-17
4.590000E+03	1.409562E-16	1.367784E-17
4.600000E+03	1.464356E-16	1.413527E-17
4.610000E+03	1.519824E-16	1.459409E-17
4.620000E+03	1.574386E-16	1.503914E-17
4.630000E+03	1.626382E-16	1.545483E-17
4.640000E+03	1.674157E-16	1.582592E-17
4.650000E+03	1.716140E-16	1.613829E-17
4.660000E+03	1.750988E-16	1.638025E-17
4.670000E+03	1.777672E-16	1.654327E-17
4.680000E+03	1.795625E-16	1.662332E-17
4.690000E+03	1.804706E-16	1.662034E-17
4.700000E+03	1.805190E-16	1.653814E-17
4.710000E+03	1.797781E-16	1.638436E-17
4.720000E+03	1.783459E-16	1.616899E-17
4.730000E+03	1.763406E-16	1.590364E-17
4.740000E+03	1.738895E-16	1.560054E-17
4.750000E+03	1.711268E-16	1.527227E-17
4.760000E+03	1.681831E-16	1.493082E-17
4.770000E+03	1.651733E-16	1.458657E-17
4.780000E+03	1.622067E-16	1.424918E-17
4.790000E+03	1.593716E-16	1.392628E-17
4.800000E+03	1.567342E-16	1.362344E-17
4.810000E+03	1.543446E-16	1.334467E-17
4.820000E+03	1.522259E-16	1.309160E-17
4.830000E+03	1.503850E-16	1.286443E-17
4.840000E+03	1.488122E-16	1.266195E-17
4.850000E+03	1.474883E-16	1.248215E-17
4.860000E+03	1.463876E-16	1.232250E-17
4.870000E+03	1.454848E-16	1.218059E-17
4.880000E+03	1.447568E-16	1.205420E-17
4.890000E+03	1.441866E-16	1.194169E-17
4.900000E+03	1.437616E-16	1.184180E-17
4.910000E+03	1.434743E-16	1.175370E-17
4.920000E+03	1.433222E-16	1.167702E-17
4.930000E+03	1.433037E-16	1.161142E-17
4.940000E+03	1.434210E-16	1.155692E-17
4.950000E+03	1.436721E-16	1.151317E-17
4.960000E+03	1.440569E-16	1.147997E-17
4.970000E+03	1.445764E-16	1.145723E-17
4.980000E+03	1.452308E-16	1.144480E-17
4.990000E+03	1.460145E-16	1.144205E-17
5.000000E+03	1.469199E-16	1.144823E-17
5.010000E+03	1.479304E-16	1.146190E-17
5.020000E+03	1.490206E-16	1.148095E-17
5.030000E+03	1.501523E-16	1.150239E-17
5.040000E+03	1.512777E-16	1.152251E-17
5.050000E+03	1.523431E-16	1.153726E-17
5.060000E+03	1.532942E-16	1.154264E-17
5.070000E+03	1.540847E-16	1.153537E-17
5.080000E+03	1.546805E-16	1.151310E-17
5.090000E+03	1.550649E-16	1.147488E-17
5.100000E+03	1.552490E-16	1.142180E-17
5.110000E+03	1.552617E-16	1.135624E-17
5.120000E+03	1.551544E-16	1.128219E-17
5.130000E+03	1.549960E-16	1.120479E-17
5.140000E+03	1.548605E-16	1.112942E-17
5.150000E+03	1.548245E-16	1.106156E-17
5.160000E+03	1.549601E-16	1.100620E-17
5.170000E+03	1.553238E-16	1.096716E-17
5.180000E+03	1.559544E-16	1.094687E-17
5.190000E+03	1.568688E-16	1.094621E-17
5.200000E+03	1.580672E-16	1.096487E-17
5.210000E+03	1.595285E-16	1.100107E-17
5.220000E+03	1.612201E-16	1.105229E-17
5.230000E+03	1.630977E-16	1.111526E-17
5.240000E+03	1.651098E-16	1.118631E-17
5.250000E+03	1.672040E-16	1.126180E-17
5.260000E+03	1.693313E-16	1.133840E-17
5.270000E+03	1.714427E-16	1.141284E-17
5.280000E+03	1.734932E-16	1.148222E-17
5.290000E+03	1.754486E-16	1.154442E-17
5.300000E+03	1.772707E-16	1.159710E-17
5.310000E+03	1.789355E-16	1.163890E-17
5.320000E+03	1.804196E-16	1.166854E-17
5.330000E+03	1.817055E-16	1.168515E-17
5.340000E+03	1.827849E-16	1.168848E-17
5.350000E+03	1.836504E-16	1.167831E-17
5.360000E+03	1.843051E-16	1.165515E-17
5.370000E+03	1.847543E-16	1.161958E-17
5.380000E+03	1.850089E-16	1.157254E-17
5.390000E+03	1.850872E-16	1.151542E-17
5.400000E+03	1.850121E-16	1.144986E-17
5.410000E+03	1.848150E-16	1.137796E-17
5.420000E+03	1.845319E-16	1.130211E-17
5.430000E+03	1.842078E-16	1.122514E-17
5.440000E+03	1.838932E-16	1.115019E-17
5.450000E+03	1.836374E-16	1.108027E-17
5.460000E+03	1.835040E-16	1.101917E-17
5.470000E+03	1.835449E-16	1.096992E-17
5.480000E+03	1.838165E-16	1.093577E-17
5.490000E+03	1.843648E-16	1.091930E-17
5.500000E+03	1.852220E-16	1.092223E-17
5.510000E+03	1.863996E-16	1.094503E-17
5.520000E+03	1.879008E-16	1.098761E-17
5.530000E+03	1.897052E-16	1.104853E-17
5.540000E+03	1.917867E-16	1.112604E-17
5.550000E+03	1.940976E-16	1.121716E-17
5.560000E+03	1.965769E-16	1.131822E-17
5.570000E+03	1.991401E-16	1.142423E-17
5.580000E+03	2.016762E-16	1.152877E-17
5.590000E+03	2.040517E-16	1.162423E-17
5.600000E+03	2.061177E-16	1.170222E-17
5.610000E+03	2.077088E-16	1.175351E-17
5.620000E+03	2.086676E-16	1.176944E-17
5.630000E+03	2.088481E-16	1.174211E-17
5.640000E+03	2.081330E-16	1.166527E-17
5.650000E+03	2.064487E-16	1.153523E-17
5.660000E+03	2.037603E-16	1.135044E-17
5.670000E+03	2.000917E-16	1.111267E-17
5.680000E+03	1.955019E-16	1.082557E-17
5.690000E+03	1.900968E-16	1.049536E-17
5.700000E+03	1.840071E-16	1.012954E-17
5.710000E+03	1.773807E-16	9.736480E-18
5.720000E+03	1.703791E-16	9.325187E-18
5.730000E+03	1.631663E-16	8.904723E-18
5.740000E+03	1.558987E-16	8.483643E-18
5.750000E+03	1.487361E-16	8.070583E-18
5.760000E+03	1.418220E-16	7.673221E-18
5.770000E+03	1.352944E-16	7.298848E-18
5.780000E+03	1.292837E-16	6.954269E-18
5.790000E+03	1.239013E-16	6.645188E-18
5.800000E+03	1.192489E-16	6.376744E-18
5.810000E+03	1.154117E-16	6.153115E-18
5.820000E+03	1.124589E-16	5.977570E-18
5.830000E+03	1.104484E-16	5.852751E-18
5.840000E+03	1.094202E-16	5.780301E-18
5.850000E+03	1.094063E-16	5.761402E-18
5.860000E+03	1.104257E-16	5.796531E-18
5.870000E+03	1.124835E-16	5.885413E-18
5.880000E+03	1.155722E-16	6.027100E-18
5.890000E+03	1.196624E-16	6.219499E-18
5.900000E+03	1.247011E-16	6.459288E-18
5.910000E+03	1.306049E-16	6.741618E-18
5.920000E+03	1.372564E-16	7.059926E-18
5.930000E+03	1.445026E-16	7.405893E-18
5.940000E+03	1.521554E-16	7.769523E-18
5.950000E+03	1.599959E-16	8.139382E-18
5.960000E+03	1.677868E-16	8.503259E-18
5.970000E+03	1.752810E-16	8.848646E-18
5.980000E+03	1.822442E-16	9.163871E-18
5.990000E+03	1.884559E-16	9.438154E-18
6.000000E+03	1.937350E-16	9.662865E-18
6.010000E+03	1.979458E-16	9.831810E-18
6.020000E+03	2.010039E-16	9.941445E-18
6.030000E+03	2.028812E-16	9.991112E-18
6.040000E+03	2.036048E-16	9.982894E-18
6.050000E+03	2.032418E-16	9.920831E-18
6.060000E+03	2.019016E-16	9.810967E-18
6.070000E+03	1.997215E-16	9.660633E-18
6.080000E+03	1.968560E-16	9.477869E-18
6.090000E+03	1.934668E-16	9.270934E-18
6.100000E+03	1.897101E-16	9.047690E-18
6.110000E+03	1.857402E-16	8.815763E-18
6.120000E+03	1.816960E-16	8.581916E-18
6.130000E+03	1.776989E-16	8.351968E-18
6.140000E+03	1.738551E-16	8.130910E-18
6.150000E+03	1.702544E-16	7.922863E-18
6.160000E+03	1.669703E-16	7.731120E-18
6.170000E+03	1.640618E-16	7.558224E-18
6.180000E+03	1.615725E-16	7.405965E-18
6.190000E+03	1.595369E-16	7.275680E-18
6.200000E+03	1.579751E-16	7.168007E-18
6.210000E+03	1.568986E-16	7.083204E-18
6.220000E+03	1.563139E-16	7.021274E-18
6.230000E+03	1.562195E-16	6.981885E-18
6.240000E+03	1.566088E-16	6.964475E-18
6.250000E+03	1.574754E-16	6.968514E-18
6.260000E+03	1.588144E-16	6.993557E-18
6.270000E+03	1.606111E-16	7.038743E-18
6.280000E+03	1.628490E-16	7.103168E-18
6.290000E+03	1.654967E-16	7.185314E-18
6.300000E+03	1.685134E-16	7.283297E-18
6.310000E+03	1.718254E-16	7.393876E-18
6.320000E+03	1.753427E-16	7.513186E-18
6.330000E+03	1.789528E-16	7.636491E-18
6.340000E+03	1.825259E-16	7.758409E-18
6.350000E+03	1.859229E-16	7.873264E-18
6.360000E+03	1.890134E-16	7.975835E-18
6.370000E+03	1.916807E-16	8.061556E-18
6.380000E+03	1.938325E-16	8.126931E-18
6.390000E+03	1.954158E-16	8.170131E-18
6.400000E+03	1.964170E-16	8.190965E-18
6.410000E+03	1.968563E-16	8.190607E-18
6.420000E+03	1.967989E-16	8.172070E-18
6.430000E+03	1.963436E-16	8.139684E-18
6.440000E+03	1.956097E-16	8.098561E-18
6.450000E+03	1.947433E-16	8.054880E-18
6.460000E+03	1.938941E-16	8.014904E-18
6.470000E+03	1.932172E-16	7.985113E-18
6.480000E+03	1.928549E-16	7.971451E-18
6.490000E+03	1.929475E-16	7.979800E-18
6.500000E+03	1.936079E-16	8.014959E-18
6.510000E+03	1.949364E-16	8.081164E-18
6.520000E+03	1.970049E-16	8.181472E-18
6.530000E+03	1.998307E-16	8.316759E-18
6.540000E+03	2.033303E-16	8.483744E-18
6.550000E+03	2.073051E-16	8.674367E-18
6.560000E+03	2.114999E-16	8.878111E-18
6.570000E+03	2.156556E-16	9.084190E-18
6.580000E+03	2.195447E-16	9.282983E-18
6.590000E+03	2.229867E-16	9.466689E-18
6.600000E+03	2.258756E-16	9.630529E-18
6.610000E+03	2.281747E-16	9.772566E-18
6.620000E+03	2.299201E-16	9.893931E-18
6.630000E+03	2.312083E-16	9.998344E-18
6.640000E+03	2.321752E-16	1.009131E-17
6.650000E+03	2.329784E-16	1.017936E-17
6.660000E+03	2.337553E-16	1.026828E-17
6.670000E+03	2.346232E-16	1.036310E-17
6.680000E+03	2.356469E-16	1.046662E-17
6.690000E+03	2.368365E-16	1.057928E-17
6.700000E+03	2.381495E-16	1.069917E-17
6.710000E+03	2.394887E-16	1.082185E-17
6.720000E+03	2.407248E-16	1.094135E-17
6.730000E+03	2.417033E-16	1.105039E-17
6.740000E+03	2.422643E-16	1.114128E-17
6.750000E+03	2.422603E-16	1.120674E-17
6.760000E+03	2.415588E-16	1.124000E-17
6.770000E+03	2.400667E-16	1.123602E-17
6.780000E+03	2.377127E-16	1.119066E-17
6.790000E+03	2.344728E-16	1.110198E-17
6.800000E+03	2.303477E-16	1.096918E-17
6.810000E+03	2.253738E-16	1.079319E-17
6.820000E+03	2.196219E-16	1.057665E-17
6.830000E+03	2.131749E-16	1.032290E-17
6.840000E+03	2.061536E-16	1.003721E-17
6.850000E+03	1.986832E-16	9.725242E-18
6.860000E+03	1.909013E-16	9.393410E-18
6.870000E+03	1.829485E-16	9.048434E-18
6.880000E+03	1.749620E-16	8.697041E-18
6.890000E+03	1.670705E-16	8.345665E-18
6.900000E+03	1.593926E-16	8.000395E-18
6.910000E+03	1.520285E-16	7.666489E-18
6.920000E+03	1.450680E-16	7.348792E-18
6.930000E+03	1.385829E-16	7.051306E-18
6.940000E+03	1.326351E-16	6.777588E-18
6.950000E+03	1.272783E-16	6.530815E-18
6.960000E+03	1.225546E-16	6.313599E-18
6.970000E+03	1.185036E-16	6.128448E-18
6.980000E+03	1.151576E-16	5.977489E-18
6.990000E+03	1.125475E-16	5.862781E-18
7.000000E+03	1.107030E-16	5.786315E-18
7.010000E+03	1.096491E-16	5.749834E-18
7.020000E+03	1.094033E-16	5.754654E-18
7.030000E+03	1.099804E-16	5.801946E-18
7.040000E+03	1.113786E-16	5.891956E-18
7.050000E+03	1.135793E-16	6.024003E-18
7.060000E+03	1.165417E-16	6.196178E-18
7.070000E+03	1.201908E-16	6.404688E-18
7.080000E+03	1.244245E-16	6.644216E-18
7.090000E+03	1.291077E-16	6.907607E-18
7.100000E+03	1.340794E-16	7.186219E-18
7.110000E+03	1.391565E-16	7.470167E-18
7.120000E+03	1.441517E-16	7.749249E-18
7.130000E+03	1.488789E-16	8.013281E-18
7.140000E+03	1.531727E-16	8.253148E-18
7.150000E+03	1.568988E-16	8.461400E-18
7.160000E+03	1.599609E-16	8.632644E-18
7.170000E+03	1.623150E-16	8.764318E-18
7.180000E+03	1.639504E-16	8.855720E-18
7.190000E+03	1.649091E-16	8.909007E-18
7.200000E+03	1.652598E-16	8.927850E-18
7.210000E+03	1.650998E-16	8.917476E-18
7.220000E+03	1.645405E-16	8.883923E-18
7.230000E+03	1.637043E-16	8.833825E-18
7.240000E+03	1.627146E-16	8.773890E-18
7.250000E+03	1.616882E-16	8.710451E-18
7.260000E+03	1.607355E-16	8.649485E-18
7.270000E+03	1.599485E-16	8.595949E-18
7.280000E+03	1.594011E-16	8.553803E-18
7.290000E+03	1.591521E-16	8.526154E-18
7.300000E+03	1.592320E-16	8.514571E-18
7.310000E+03	1.596560E-16	8.519758E-18
7.320000E+03	1.604133E-16	8.541028E-18
7.330000E+03	1.614754E-16	8.576732E-18
7.340000E+03	1.627931E-16	8.624124E-18
7.350000E+03	1.643040E-16	8.679768E-18
7.360000E+03	1.659324E-16	8.739563E-18
7.370000E+03	1.675908E-16	8.798828E-18
7.380000E+03	1.691870E-16	8.852682E-18
7.390000E+03	1.706241E-16	8.896089E-18
7.400000E+03	1.718025E-16	8.923938E-18
7.410000E+03	1.726290E-16	8.931542E-18
7.420000E+03	1.730217E-16	8.914899E-18
7.430000E+03	1.729068E-16	8.870520E-18
7.440000E+03	1.722412E-16	8.796563E-18
7.450000E+03	1.709997E-16	8.692176E-18
7.460000E+03	1.691851E-16	8.557978E-18
7.470000E+03	1.668348E-16	8.396354E-18
7.480000E+03	1.640052E-16	8.210628E-18
7.490000E+03	1.607689E-16	8.004896E-18
7.500000E+03	1.572115E-16	7.783837E-18
7.510000E+03	1.534251E-16	7.552375E-18
7.520000E+03	1.494911E-16	7.314811E-18
7.530000E+03	1.454858E-16	7.075103E-18
7.540000E+03	1.414690E-16	6.836330E-18
7.550000E+03	1.374942E-16	6.601192E-18
7.560000E+03	1.335975E-16	6.371487E-18
7.570000E+03	1.298109E-16	6.148772E-18
7.580000E+03	1.261585E-16	5.934177E-18
7.590000E+03	1.226606E-16	5.728619E-18
7.600000E+03	1.193363E-16	5.532936E-18
7.610000E+03	1.162000E-16	5.347699E-18
7.620000E+03	1.132695E-16	5.173622E-18
7.630000E+03	1.105559E-16	5.011070E-18
7.640000E+03	1.080751E-16	4.860619E-18
7.650000E+03	1.058373E-16	4.722546E-18
7.660000E+03	1.038531E-16	4.597138E-18
7.670000E+03	1.021283E-16	4.484444E-18
7.680000E+03	1.006715E-16	4.384634E-18
7.690000E+03	9.948633E-17	4.297635E-18
7.700000E+03	9.858302E-17	4.223669E-18
7.710000E+03	9.796833E-17	4.162788E-18
7.720000E+03	9.765669E-17	4.115363E-18
7.730000E+03	9.765996E-17	4.081648E-18
7.740000E+03	9.799152E-17	4.061948E-18
7.750000E+03	9.866504E-17	4.056577E-18
7.760000E+03	9.968691E-17	4.065548E-18
