#wls	flux	fluxerr
1.596806E+03	9.308839E-05	3.131032E-06
1.636727E+03	9.324982E-05	3.113784E-06
1.676647E+03	9.351797E-05	3.099530E-06
1.716567E+03	9.389927E-05	3.088390E-06
1.756487E+03	9.443270E-05	3.081542E-06
1.796407E+03	9.511109E-05	3.078621E-06
1.836327E+03	9.596018E-05	3.080326E-06
1.876248E+03	9.702419E-05	3.087909E-06
1.916168E+03	9.831695E-05	3.101608E-06
1.956088E+03	9.987105E-05	3.122228E-06
1.996008E+03	1.017220E-04	3.150618E-06
2.035928E+03	1.038912E-04	3.187144E-06
2.075848E+03	1.064387E-04	3.233312E-06
2.115768E+03	1.093933E-04	3.289608E-06
2.155689E+03	1.128256E-04	3.357704E-06
2.195609E+03	1.167746E-04	3.438251E-06
2.235529E+03	1.213236E-04	3.533122E-06
2.275449E+03	1.265449E-04	3.643746E-06
2.315369E+03	1.324978E-04	3.771071E-06
2.355289E+03	1.392908E-04	3.917330E-06
2.395210E+03	1.470222E-04	4.084295E-06
2.435130E+03	1.558222E-04	4.274467E-06
2.475050E+03	1.657624E-04	4.488534E-06
2.514970E+03	1.770145E-04	4.729741E-06
2.554890E+03	1.897381E-04	5.000731E-06
2.594810E+03	2.040463E-04	5.302675E-06
2.634731E+03	2.201290E-04	5.638507E-06
2.674651E+03	2.381447E-04	6.010052E-06
2.714571E+03	2.582332E-04	6.418394E-06
2.754491E+03	2.805292E-04	6.864249E-06
2.794411E+03	3.051128E-04	7.346773E-06
2.834331E+03	3.319780E-04	7.862940E-06
2.874251E+03	3.610636E-04	8.408431E-06
2.914172E+03	3.920408E-04	8.972897E-06
2.954092E+03	4.244713E-04	9.544064E-06
2.994012E+03	4.576330E-04	1.010413E-05
3.003992E+03	4.659324E-04	1.024000E-05
3.013972E+03	4.742039E-04	1.037350E-05
3.023952E+03	4.824262E-04	1.050420E-05
3.033932E+03	4.905776E-04	1.063164E-05
3.043912E+03	4.986352E-04	1.075534E-05
3.053892E+03	5.065759E-04	1.087484E-05
3.063872E+03	5.143759E-04	1.098967E-05
3.073852E+03	5.220494E-04	1.110017E-05
3.083832E+03	5.295722E-04	1.120588E-05
3.093812E+03	5.368451E-04	1.130476E-05
3.103792E+03	5.439581E-04	1.139877E-05
3.113772E+03	5.507754E-04	1.148514E-05
3.123752E+03	5.573885E-04	1.156585E-05
3.133733E+03	5.637021E-04	1.163901E-05
3.143713E+03	5.697352E-04	1.170510E-05
3.153693E+03	5.754716E-04	1.176389E-05
3.163673E+03	5.808978E-04	1.181520E-05
3.173653E+03	5.860035E-04	1.185892E-05
3.183633E+03	5.907824E-04	1.189502E-05
3.193613E+03	5.951971E-04	1.192288E-05
3.203593E+03	5.993590E-04	1.194481E-05
3.213573E+03	6.031710E-04	1.195900E-05
3.223553E+03	6.067214E-04	1.196728E-05
3.233533E+03	6.100012E-04	1.196958E-05
3.243513E+03	6.130465E-04	1.196669E-05
3.253493E+03	6.159711E-04	1.196089E-05
3.263473E+03	6.187307E-04	1.195139E-05
3.273453E+03	6.214615E-04	1.194085E-05
3.283433E+03	6.242427E-04	1.193080E-05
3.293413E+03	6.271640E-04	1.192295E-05
3.303393E+03	6.303237E-04	1.191912E-05
3.313373E+03	6.337963E-04	1.192064E-05
3.323353E+03	6.377558E-04	1.193070E-05
3.333333E+03	6.422539E-04	1.195012E-05
3.343313E+03	6.474671E-04	1.198200E-05
3.353293E+03	6.534756E-04	1.202763E-05
3.363273E+03	6.603803E-04	1.208862E-05
3.373253E+03	6.682680E-04	1.216630E-05
3.383234E+03	6.772443E-04	1.226231E-05
3.393214E+03	6.873491E-04	1.237706E-05
3.403194E+03	6.986810E-04	1.251199E-05
3.413174E+03	7.112834E-04	1.266754E-05
3.423154E+03	7.252715E-04	1.284540E-05
3.433134E+03	7.407447E-04	1.304693E-05
3.443114E+03	7.578061E-04	1.327354E-05
3.453094E+03	7.765083E-04	1.352571E-05
3.463074E+03	7.969532E-04	1.380476E-05
3.473054E+03	8.190568E-04	1.410877E-05
3.483034E+03	8.427624E-04	1.443635E-05
3.493014E+03	8.677658E-04	1.478189E-05
3.502994E+03	8.937727E-04	1.514010E-05
3.512974E+03	9.203401E-04	1.550327E-05
3.522954E+03	9.468935E-04	1.586168E-05
3.532934E+03	9.729434E-04	1.620725E-05
3.542914E+03	9.979070E-04	1.653052E-05
3.552894E+03	1.021130E-03	1.682108E-05
3.562874E+03	1.042153E-03	1.707194E-05
3.572854E+03	1.060383E-03	1.727411E-05
3.582834E+03	1.075343E-03	1.742067E-05
3.592814E+03	1.086797E-03	1.750876E-05
3.602794E+03	1.095097E-03	1.754502E-05
3.612774E+03	1.100935E-03	1.754134E-05
3.622754E+03	1.105019E-03	1.750962E-05
3.632735E+03	1.107994E-03	1.746055E-05
3.642715E+03	1.110439E-03	1.740349E-05
3.652695E+03	1.112835E-03	1.734612E-05
3.662675E+03	1.115681E-03	1.729621E-05
3.672655E+03	1.119409E-03	1.726026E-05
3.682635E+03	1.124385E-03	1.724371E-05
3.692615E+03	1.131015E-03	1.725243E-05
3.702595E+03	1.139641E-03	1.729120E-05
3.712575E+03	1.150512E-03	1.736331E-05
3.722555E+03	1.163782E-03	1.747054E-05
3.732535E+03	1.179453E-03	1.761237E-05
3.742515E+03	1.197299E-03	1.778490E-05
3.752495E+03	1.216970E-03	1.798249E-05
3.762475E+03	1.238007E-03	1.819798E-05
3.772455E+03	1.259796E-03	1.842212E-05
3.782435E+03	1.281702E-03	1.864556E-05
3.792415E+03	1.303217E-03	1.886094E-05
3.802395E+03	1.323748E-03	1.905986E-05
3.812375E+03	1.342821E-03	1.923577E-05
3.822355E+03	1.359925E-03	1.938177E-05
3.832335E+03	1.374663E-03	1.949268E-05
3.842315E+03	1.386715E-03	1.956451E-05
3.852295E+03	1.395866E-03	1.959485E-05
3.862275E+03	1.402259E-03	1.958634E-05
3.872255E+03	1.406296E-03	1.954514E-05
3.882236E+03	1.408884E-03	1.948429E-05
3.892216E+03	1.411125E-03	1.941925E-05
3.902196E+03	1.414021E-03	1.936385E-05
3.912176E+03	1.418373E-03	1.932884E-05
3.922156E+03	1.424639E-03	1.932018E-05
3.932136E+03	1.433046E-03	1.934055E-05
3.942116E+03	1.443551E-03	1.938896E-05
3.952096E+03	1.455961E-03	1.946248E-05
3.962076E+03	1.469904E-03	1.955580E-05
3.972056E+03	1.484846E-03	1.966159E-05
3.982036E+03	1.500284E-03	1.977308E-05
3.992016E+03	1.515619E-03	1.988234E-05
4.001996E+03	1.530264E-03	1.998177E-05
4.011976E+03	1.543692E-03	2.006469E-05
4.021956E+03	1.555445E-03	2.012543E-05
4.031936E+03	1.565061E-03	2.015835E-05
4.041916E+03	1.572137E-03	2.015871E-05
4.051896E+03	1.576387E-03	2.012333E-05
4.061876E+03	1.577544E-03	2.004928E-05
4.071856E+03	1.575425E-03	1.993482E-05
4.081836E+03	1.569905E-03	1.977892E-05
4.091816E+03	1.560893E-03	1.958098E-05
4.101796E+03	1.548423E-03	1.934202E-05
4.111776E+03	1.532737E-03	1.906556E-05
4.121756E+03	1.514216E-03	1.875682E-05
4.131737E+03	1.493427E-03	1.842320E-05
4.141717E+03	1.470988E-03	1.807261E-05
4.151697E+03	1.447416E-03	1.771158E-05
4.161677E+03	1.423215E-03	1.734640E-05
4.171657E+03	1.398840E-03	1.698262E-05
4.181637E+03	1.374638E-03	1.662444E-05
4.191617E+03	1.350879E-03	1.627501E-05
4.201597E+03	1.327854E-03	1.593775E-05
4.211577E+03	1.305758E-03	1.561485E-05
4.221557E+03	1.284781E-03	1.530839E-05
4.231537E+03	1.265162E-03	1.502103E-05
4.241517E+03	1.247193E-03	1.475601E-05
4.251497E+03	1.231179E-03	1.451671E-05
4.261477E+03	1.217425E-03	1.430643E-05
4.271457E+03	1.206228E-03	1.412837E-05
4.281437E+03	1.197761E-03	1.398424E-05
4.291417E+03	1.192087E-03	1.387445E-05
4.301397E+03	1.189025E-03	1.379661E-05
4.311377E+03	1.188237E-03	1.374651E-05
4.321357E+03	1.189210E-03	1.371805E-05
4.331337E+03	1.191272E-03	1.370332E-05
4.341317E+03	1.193697E-03	1.369392E-05
4.351297E+03	1.195856E-03	1.368265E-05
4.361277E+03	1.197283E-03	1.366421E-05
4.371257E+03	1.197781E-03	1.363648E-05
4.381238E+03	1.197310E-03	1.359902E-05
4.391218E+03	1.195583E-03	1.354865E-05
4.401198E+03	1.192031E-03	1.347895E-05
4.411178E+03	1.186255E-03	1.338552E-05
4.421158E+03	1.178064E-03	1.326631E-05
4.431138E+03	1.167478E-03	1.312161E-05
4.441118E+03	1.154724E-03	1.295409E-05
4.451098E+03	1.140349E-03	1.276994E-05
4.461078E+03	1.125068E-03	1.257714E-05
4.471058E+03	1.109813E-03	1.238609E-05
4.481038E+03	1.095595E-03	1.220797E-05
4.491018E+03	1.083487E-03	1.205461E-05
4.500998E+03	1.074475E-03	1.193676E-05
4.510978E+03	1.069383E-03	1.186338E-05
4.520958E+03	1.068859E-03	1.184142E-05
4.530938E+03	1.073304E-03	1.187505E-05
4.540918E+03	1.082773E-03	1.196465E-05
4.550898E+03	1.097086E-03	1.210800E-05
4.560878E+03	1.115732E-03	1.229924E-05
4.570858E+03	1.137988E-03	1.253025E-05
4.580838E+03	1.162914E-03	1.279053E-05
4.590818E+03	1.189483E-03	1.306872E-05
4.600798E+03	1.216701E-03	1.335381E-05
4.610778E+03	1.243650E-03	1.363574E-05
4.620758E+03	1.269481E-03	1.390519E-05
4.630739E+03	1.293450E-03	1.415403E-05
4.640719E+03	1.314978E-03	1.437599E-05
4.650699E+03	1.333637E-03	1.456645E-05
4.660679E+03	1.349159E-03	1.472254E-05
4.670659E+03	1.361413E-03	1.484292E-05
4.680639E+03	1.370545E-03	1.492923E-05
4.690619E+03	1.376818E-03	1.498439E-05
4.700599E+03	1.380694E-03	1.501350E-05
4.710579E+03	1.382777E-03	1.502315E-05
4.720559E+03	1.383533E-03	1.501843E-05
4.730539E+03	1.383132E-03	1.500117E-05
4.740519E+03	1.381708E-03	1.497283E-05
4.750499E+03	1.379389E-03	1.493478E-05
4.760479E+03	1.376315E-03	1.488857E-05
4.770459E+03	1.372726E-03	1.483674E-05
4.780439E+03	1.368920E-03	1.478252E-05
4.790419E+03	1.365271E-03	1.472993E-05
4.800399E+03	1.362171E-03	1.468317E-05
4.810379E+03	1.359975E-03	1.464601E-05
4.820359E+03	1.358970E-03	1.462151E-05
4.830339E+03	1.359335E-03	1.461152E-05
4.840319E+03	1.361050E-03	1.461578E-05
4.850299E+03	1.363963E-03	1.463259E-05
4.860279E+03	1.367833E-03	1.465931E-05
4.870259E+03	1.372351E-03	1.469260E-05
4.880240E+03	1.377150E-03	1.472848E-05
4.890220E+03	1.381904E-03	1.476345E-05
4.900200E+03	1.386217E-03	1.479327E-05
4.910180E+03	1.389733E-03	1.481416E-05
4.920160E+03	1.392089E-03	1.482225E-05
4.930140E+03	1.392948E-03	1.481402E-05
4.940120E+03	1.392117E-03	1.478745E-05
4.950100E+03	1.389714E-03	1.474386E-05
4.960080E+03	1.386237E-03	1.468858E-05
4.970060E+03	1.382345E-03	1.462865E-05
4.980040E+03	1.378684E-03	1.457091E-05
4.990020E+03	1.375620E-03	1.451921E-05
5.000000E+03	1.373270E-03	1.447478E-05
5.009980E+03	1.371482E-03	1.443598E-05
5.019960E+03	1.369920E-03	1.439928E-05
5.029940E+03	1.368074E-03	1.435930E-05
5.039920E+03	1.365447E-03	1.431089E-05
5.049900E+03	1.361559E-03	1.424905E-05
5.059880E+03	1.356050E-03	1.417011E-05
5.069860E+03	1.348696E-03	1.407180E-05
5.079840E+03	1.339409E-03	1.395333E-05
5.089820E+03	1.328339E-03	1.381639E-05
5.099800E+03	1.315920E-03	1.366557E-05
5.109780E+03	1.302808E-03	1.350777E-05
5.119760E+03	1.289850E-03	1.335183E-05
5.129741E+03	1.277819E-03	1.320575E-05
5.139721E+03	1.267306E-03	1.307560E-05
5.149701E+03	1.258702E-03	1.296537E-05
5.159681E+03	1.252165E-03	1.287660E-05
5.169661E+03	1.247628E-03	1.280853E-05
5.179641E+03	1.244866E-03	1.275879E-05
5.189621E+03	1.243617E-03	1.272461E-05
5.199601E+03	1.243659E-03	1.270369E-05
5.209581E+03	1.244855E-03	1.269459E-05
5.219561E+03	1.247096E-03	1.269617E-05
5.229541E+03	1.250374E-03	1.270833E-05
5.239521E+03	1.254703E-03	1.273121E-05
5.249501E+03	1.260084E-03	1.276478E-05
5.259481E+03	1.266474E-03	1.280860E-05
5.269461E+03	1.273759E-03	1.286150E-05
5.279441E+03	1.281741E-03	1.292149E-05
5.289421E+03	1.290198E-03	1.298634E-05
5.299401E+03	1.298775E-03	1.305252E-05
5.309381E+03	1.307094E-03	1.311627E-05
5.319361E+03	1.314710E-03	1.317320E-05
5.329341E+03	1.321176E-03	1.321891E-05
5.339321E+03	1.326045E-03	1.324904E-05
5.349301E+03	1.328970E-03	1.326025E-05
5.359281E+03	1.329710E-03	1.325026E-05
5.369261E+03	1.328270E-03	1.321925E-05
5.379242E+03	1.324860E-03	1.316945E-05
5.389222E+03	1.319873E-03	1.310484E-05
5.399202E+03	1.313770E-03	1.303011E-05
5.409182E+03	1.306958E-03	1.294936E-05
5.419162E+03	1.299806E-03	1.286630E-05
5.429142E+03	1.292621E-03	1.278398E-05
5.439122E+03	1.285628E-03	1.270468E-05
5.449102E+03	1.279039E-03	1.263051E-05
5.459082E+03	1.273199E-03	1.256489E-05
5.469062E+03	1.268565E-03	1.251230E-05
5.479042E+03	1.265612E-03	1.247737E-05
5.489022E+03	1.264527E-03	1.246187E-05
5.499002E+03	1.265102E-03	1.246369E-05
5.508982E+03	1.266768E-03	1.247719E-05
5.518962E+03	1.268729E-03	1.249449E-05
5.528942E+03	1.270059E-03	1.250643E-05
5.538922E+03	1.269863E-03	1.250419E-05
5.548902E+03	1.267528E-03	1.248169E-05
5.558882E+03	1.262868E-03	1.243705E-05
5.568862E+03	1.256103E-03	1.237239E-05
5.578842E+03	1.247790E-03	1.229316E-05
5.588822E+03	1.238746E-03	1.220734E-05
5.598802E+03	1.229938E-03	1.212443E-05
5.608782E+03	1.222307E-03	1.205365E-05
5.618762E+03	1.216642E-03	1.200277E-05
5.628743E+03	1.213512E-03	1.197739E-05
5.638723E+03	1.213163E-03	1.197994E-05
5.648703E+03	1.215506E-03	1.200955E-05
5.658683E+03	1.220115E-03	1.206205E-05
5.668663E+03	1.226303E-03	1.213064E-05
5.678643E+03	1.233147E-03	1.220621E-05
5.688623E+03	1.239683E-03	1.227918E-05
5.698603E+03	1.245059E-03	1.234112E-05
5.708583E+03	1.248659E-03	1.238584E-05
5.718563E+03	1.250191E-03	1.241042E-05
5.728543E+03	1.249564E-03	1.241387E-05
5.738523E+03	1.246943E-03	1.239778E-05
5.748503E+03	1.242605E-03	1.236481E-05
5.758483E+03	1.236915E-03	1.231855E-05
5.768463E+03	1.230199E-03	1.226219E-05
5.778443E+03	1.222701E-03	1.219814E-05
5.788423E+03	1.214555E-03	1.212768E-05
5.798403E+03	1.205800E-03	1.205117E-05
5.808383E+03	1.196470E-03	1.196894E-05
5.818363E+03	1.186836E-03	1.188364E-05
5.828343E+03	1.177481E-03	1.180111E-05
5.838323E+03	1.169125E-03	1.172856E-05
5.848303E+03	1.162368E-03	1.167207E-05
5.858283E+03	1.157511E-03	1.163465E-05
5.868263E+03	1.154532E-03	1.161618E-05
5.878244E+03	1.153159E-03	1.161395E-05
5.888224E+03	1.152830E-03	1.162234E-05
5.898204E+03	1.152879E-03	1.163466E-05
5.908184E+03	1.152640E-03	1.164419E-05
5.918164E+03	1.151618E-03	1.164594E-05
5.928144E+03	1.149515E-03	1.163685E-05
5.938124E+03	1.146328E-03	1.161686E-05
5.948104E+03	1.142382E-03	1.158924E-05
5.958084E+03	1.138158E-03	1.155886E-05
5.968064E+03	1.133986E-03	1.152907E-05
5.978044E+03	1.129966E-03	1.150088E-05
5.988024E+03	1.125926E-03	1.147256E-05
5.998004E+03	1.121618E-03	1.144159E-05
6.007984E+03	1.116789E-03	1.140539E-05
6.017964E+03	1.111212E-03	1.136162E-05
6.027944E+03	1.104853E-03	1.130991E-05
6.037924E+03	1.097858E-03	1.125175E-05
6.047904E+03	1.090495E-03	1.118987E-05
6.057884E+03	1.083017E-03	1.112688E-05
6.067864E+03	1.075616E-03	1.106472E-05
6.077844E+03	1.068445E-03	1.100502E-05
6.087824E+03	1.061654E-03	1.094933E-05
6.097804E+03	1.055431E-03	1.089962E-05
6.107784E+03	1.049957E-03	1.085779E-05
6.117764E+03	1.045302E-03	1.082462E-05
6.127745E+03	1.041372E-03	1.079917E-05
6.137725E+03	1.037942E-03	1.077915E-05
6.147705E+03	1.034649E-03	1.076085E-05
6.157685E+03	1.031134E-03	1.074049E-05
6.167665E+03	1.027184E-03	1.071587E-05
6.177645E+03	1.022976E-03	1.068879E-05
6.187625E+03	1.018977E-03	1.066415E-05
6.197605E+03	1.015539E-03	1.064562E-05
6.207585E+03	1.012900E-03	1.063573E-05
6.217565E+03	1.011004E-03	1.063394E-05
6.227545E+03	1.009517E-03	1.063677E-05
6.237525E+03	1.007981E-03	1.063940E-05
6.247505E+03	1.005909E-03	1.063668E-05
6.257485E+03	1.002873E-03	1.062406E-05
6.267465E+03	9.986565E-04	1.059917E-05
6.277445E+03	9.933969E-04	1.056340E-05
6.287425E+03	9.874575E-04	1.052056E-05
6.297405E+03	9.813725E-04	1.047631E-05
6.307385E+03	9.757702E-04	1.043736E-05
6.317365E+03	9.712453E-04	1.041010E-05
6.327345E+03	9.681853E-04	1.039878E-05
6.337325E+03	9.667017E-04	1.040468E-05
6.347305E+03	9.665974E-04	1.042579E-05
6.357285E+03	9.674556E-04	1.045772E-05
6.367265E+03	9.686683E-04	1.049393E-05
6.377246E+03	9.695664E-04	1.052721E-05
6.387226E+03	9.696815E-04	1.055244E-05
6.397206E+03	9.688544E-04	1.056782E-05
6.407186E+03	9.671874E-04	1.057440E-05
6.417166E+03	9.648817E-04	1.057429E-05
6.427146E+03	9.620862E-04	1.056904E-05
6.437126E+03	9.589910E-04	1.056066E-05
6.447106E+03	9.557736E-04	1.055107E-05
6.457086E+03	9.527321E-04	1.054352E-05
6.467066E+03	9.502779E-04	1.054255E-05
6.477046E+03	9.490665E-04	1.055549E-05
6.487026E+03	9.499423E-04	1.059180E-05
6.497006E+03	9.538486E-04	1.066219E-05
6.506986E+03	9.613625E-04	1.077335E-05
6.516966E+03	9.726098E-04	1.092699E-05
6.526946E+03	9.866754E-04	1.111307E-05
6.536926E+03	1.001406E-03	1.130751E-05
6.546906E+03	1.014434E-03	1.148353E-05
6.556886E+03	1.023523E-03	1.161558E-05
6.566866E+03	1.026936E-03	1.168354E-05
6.576846E+03	1.023884E-03	1.167789E-05
6.586826E+03	1.014569E-03	1.160037E-05
6.596806E+03	1.000034E-03	1.146237E-05
6.606786E+03	9.821362E-04	1.128479E-05
6.616766E+03	9.629761E-04	1.109150E-05
6.626747E+03	9.444103E-04	1.090384E-05
6.636727E+03	9.277028E-04	1.073646E-05
6.646707E+03	9.135930E-04	1.059808E-05
6.656687E+03	9.023861E-04	1.049247E-05
6.666667E+03	8.940324E-04	1.041926E-05
6.676647E+03	8.881915E-04	1.037469E-05
6.686627E+03	8.843490E-04	1.035294E-05
6.696607E+03	8.818626E-04	1.034660E-05
6.706587E+03	8.800575E-04	1.034784E-05
6.716567E+03	8.783509E-04	1.034983E-05
6.726547E+03	8.763278E-04	1.034766E-05
6.736527E+03	8.737490E-04	1.033846E-05
6.746507E+03	8.705395E-04	1.032130E-05
6.756487E+03	8.667716E-04	1.029698E-05
6.766467E+03	8.625944E-04	1.026723E-05
6.776447E+03	8.581834E-04	1.023410E-05
6.786427E+03	8.536565E-04	1.019898E-05
6.796407E+03	8.490883E-04	1.016276E-05
6.806387E+03	8.445111E-04	1.012582E-05
6.816367E+03	8.399475E-04	1.008842E-05
6.826347E+03	8.354239E-04	1.005088E-05
6.836327E+03	8.309447E-04	1.001325E-05
6.846307E+03	8.265296E-04	9.975781E-06
6.856287E+03	8.222144E-04	9.938902E-06
6.866267E+03	8.180055E-04	9.902699E-06
6.876248E+03	8.139110E-04	9.867274E-06
6.886228E+03	8.099242E-04	9.832557E-06
6.896208E+03	8.060088E-04	9.798114E-06
6.906188E+03	8.021417E-04	9.763668E-06
6.916168E+03	7.982505E-04	9.728343E-06
6.926148E+03	7.943193E-04	9.691947E-06
6.936128E+03	7.903505E-04	9.654513E-06
6.946108E+03	7.863652E-04	9.616303E-06
6.956088E+03	7.824222E-04	9.578041E-06
6.966068E+03	7.785533E-04	9.540125E-06
6.976048E+03	7.748078E-04	9.503168E-06
6.986028E+03	7.711805E-04	9.467118E-06
6.996008E+03	7.676807E-04	9.432101E-06
7.005988E+03	7.642658E-04	9.397604E-06
7.015968E+03	7.609003E-04	9.363201E-06
7.025948E+03	7.575577E-04	9.328574E-06
7.035928E+03	7.542170E-04	9.293476E-06
7.045908E+03	7.509347E-04	9.258610E-06
7.055888E+03	7.477553E-04	9.224538E-06
7.065868E+03	7.447680E-04	9.192373E-06
7.075848E+03	7.420577E-04	9.163176E-06
7.085828E+03	7.396535E-04	9.137321E-06
7.095808E+03	7.375450E-04	9.114695E-06
7.105788E+03	7.357269E-04	9.095246E-06
7.115768E+03	7.341938E-04	9.078922E-06
7.125749E+03	7.329491E-04	9.065775E-06
7.135729E+03	7.320110E-04	9.056045E-06
7.145709E+03	7.313563E-04	9.049458E-06
7.155689E+03	7.309789E-04	9.045949E-06
7.165669E+03	7.308213E-04	9.044818E-06
7.175649E+03	7.307486E-04	9.044405E-06
7.185629E+03	7.306124E-04	9.042888E-06
7.195609E+03	7.302469E-04	9.038224E-06
7.205589E+03	7.294766E-04	9.028253E-06
7.215569E+03	7.282241E-04	9.012031E-06
7.225549E+03	7.264129E-04	8.988629E-06
7.235529E+03	7.240982E-04	8.958746E-06
7.245509E+03	7.213850E-04	8.923699E-06
7.255489E+03	7.184137E-04	8.885246E-06
7.265469E+03	7.152819E-04	8.844612E-06
7.275449E+03	7.120683E-04	8.802791E-06
7.285429E+03	7.087973E-04	8.760101E-06
7.295409E+03	7.053322E-04	8.714875E-06
7.305389E+03	7.015378E-04	8.665462E-06
7.315369E+03	6.972500E-04	8.609859E-06
7.325349E+03	6.923648E-04	8.546808E-06
7.335329E+03	6.868661E-04	8.476139E-06
7.345309E+03	6.807992E-04	8.398436E-06
7.355289E+03	6.743310E-04	8.315787E-06
7.365269E+03	6.677231E-04	8.231440E-06
7.375250E+03	6.612812E-04	8.149187E-06
7.385230E+03	6.553113E-04	8.072814E-06
7.395210E+03	6.501364E-04	8.006313E-06
7.405190E+03	6.459432E-04	7.951989E-06
7.415170E+03	6.428153E-04	7.910881E-06
7.425150E+03	6.406925E-04	7.882255E-06
7.435130E+03	6.394293E-04	7.864331E-06
7.445110E+03	6.388194E-04	7.854581E-06
7.455090E+03	6.386063E-04	7.849870E-06
7.465070E+03	6.386297E-04	7.848237E-06
7.475050E+03	6.388328E-04	7.848998E-06
7.485030E+03	6.392753E-04	7.852899E-06
7.495010E+03	6.400926E-04	7.861615E-06
7.504990E+03	6.412967E-04	7.875309E-06
7.514970E+03	6.426693E-04	7.891313E-06
7.524950E+03	6.439551E-04	7.906510E-06
7.534930E+03	6.449255E-04	7.918113E-06
7.544910E+03	6.453685E-04	7.923535E-06
7.554890E+03	6.451513E-04	7.921165E-06
7.564870E+03	6.442141E-04	7.910285E-06
7.574850E+03	6.425923E-04	7.891345E-06
7.584830E+03	6.403981E-04	7.865734E-06
7.594810E+03	6.377277E-04	7.834646E-06
7.604790E+03	6.347401E-04	7.800045E-06
7.614770E+03	6.315635E-04	7.763518E-06
7.624750E+03	6.283404E-04	7.726829E-06
7.634731E+03	6.251757E-04	7.691279E-06
7.644711E+03	6.221752E-04	7.658186E-06
7.654691E+03	6.194055E-04	7.628387E-06
7.664671E+03	6.169028E-04	7.602346E-06
7.674651E+03	6.146544E-04	7.579927E-06
7.684631E+03	6.126581E-04	7.561126E-06
7.694611E+03	6.108465E-04	7.545134E-06
7.704591E+03	6.092725E-04	7.532625E-06
7.714571E+03	6.080529E-04	7.525073E-06
7.724551E+03	6.073310E-04	7.524281E-06
7.734531E+03	6.072279E-04	7.531793E-06
7.744511E+03	6.077511E-04	7.547752E-06
