#wls	flux	fluxerr
1.600000E+03	2.050017E-16	1.570359E-16
1.640000E+03	2.134185E-16	1.633626E-16
1.680000E+03	2.226050E-16	1.702508E-16
1.720000E+03	2.326684E-16	1.777763E-16
1.760000E+03	2.436571E-16	1.859685E-16
1.800000E+03	2.556912E-16	1.949101E-16
1.840000E+03	2.688544E-16	2.046535E-16
1.880000E+03	2.832833E-16	2.152894E-16
1.920000E+03	2.991017E-16	2.268953E-16
1.960000E+03	3.164432E-16	2.395525E-16
2.000000E+03	3.354038E-16	2.533093E-16
2.040000E+03	3.561362E-16	2.682521E-16
2.080000E+03	3.787799E-16	2.844505E-16
2.120000E+03	4.034075E-16	3.019167E-16
2.160000E+03	4.300948E-16	3.206575E-16
2.200000E+03	4.588403E-16	3.406129E-16
2.240000E+03	4.896080E-16	3.616877E-16
2.280000E+03	5.224605E-16	3.838493E-16
2.320000E+03	5.575102E-16	4.070881E-16
2.360000E+03	5.951551E-16	4.315856E-16
2.400000E+03	6.357811E-16	4.574906E-16
2.440000E+03	6.797553E-16	4.849099E-16
2.480000E+03	7.275109E-16	5.139655E-16
2.520000E+03	7.793869E-16	5.446742E-16
2.560000E+03	8.356386E-16	5.769540E-16
2.600000E+03	8.965839E-16	6.107219E-16
2.640000E+03	9.623217E-16	6.456964E-16
2.680000E+03	1.032937E-15	6.815402E-16
2.720000E+03	1.108267E-15	7.177059E-16
2.760000E+03	1.188117E-15	7.535852E-16
2.800000E+03	1.271980E-15	7.883388E-16
2.840000E+03	1.359226E-15	8.210349E-16
2.880000E+03	1.449049E-15	8.506347E-16
2.920000E+03	1.540496E-15	8.760335E-16
2.960000E+03	1.632517E-15	8.961101E-16
3.000000E+03	1.723986E-15	9.097640E-16
3.010000E+03	1.746613E-15	9.120405E-16
3.020000E+03	1.769129E-15	9.138421E-16
3.030000E+03	1.791466E-15	9.151283E-16
3.040000E+03	1.813675E-15	9.159202E-16
3.050000E+03	1.835689E-15	9.161784E-16
3.060000E+03	1.857481E-15	9.158846E-16
3.070000E+03	1.879023E-15	9.150216E-16
3.080000E+03	1.900366E-15	9.136105E-16
3.090000E+03	1.921406E-15	9.115972E-16
3.100000E+03	1.942196E-15	9.090038E-16
3.110000E+03	1.962671E-15	9.057972E-16
3.120000E+03	1.982848E-15	9.019824E-16
3.130000E+03	2.002703E-15	8.975467E-16
3.140000E+03	2.022217E-15	8.924789E-16
3.150000E+03	2.041370E-15	8.867689E-16
3.160000E+03	2.060183E-15	8.804248E-16
3.170000E+03	2.078603E-15	8.734225E-16
3.180000E+03	2.096657E-15	8.657720E-16
3.190000E+03	2.114333E-15	8.574683E-16
3.200000E+03	2.131624E-15	8.485076E-16
3.210000E+03	2.148564E-15	8.389024E-16
3.220000E+03	2.165075E-15	8.286224E-16
3.230000E+03	2.181273E-15	8.177109E-16
3.240000E+03	2.197050E-15	8.061273E-16
3.250000E+03	2.212527E-15	7.939152E-16
3.260000E+03	2.227642E-15	7.810513E-16
3.270000E+03	2.242449E-15	7.675536E-16
3.280000E+03	2.256966E-15	7.534273E-16
3.290000E+03	2.271182E-15	7.386672E-16
3.300000E+03	2.285195E-15	7.233034E-16
3.310000E+03	2.298964E-15	7.073209E-16
3.320000E+03	2.312524E-15	6.907285E-16
3.330000E+03	2.325981E-15	6.735553E-16
3.340000E+03	2.339305E-15	6.557891E-16
3.350000E+03	2.352536E-15	6.374393E-16
3.360000E+03	2.365719E-15	6.185149E-16
3.370000E+03	2.378928E-15	5.990330E-16
3.380000E+03	2.392142E-15	5.789853E-16
3.390000E+03	2.405402E-15	5.583812E-16
3.400000E+03	2.418781E-15	5.372376E-16
3.410000E+03	2.432283E-15	5.155564E-16
3.420000E+03	2.445939E-15	4.933482E-16
3.430000E+03	2.459710E-15	4.706130E-16
3.440000E+03	2.473648E-15	4.473735E-16
3.450000E+03	2.487758E-15	4.236497E-16
3.460000E+03	2.501974E-15	3.994577E-16
3.470000E+03	2.516282E-15	3.748349E-16
3.480000E+03	2.530618E-15	3.498281E-16
3.490000E+03	2.544967E-15	3.245121E-16
3.500000E+03	2.559173E-15	2.989747E-16
3.510000E+03	2.573184E-15	2.733617E-16
3.520000E+03	2.586842E-15	2.478704E-16
3.530000E+03	2.600004E-15	2.227954E-16
3.540000E+03	2.612511E-15	1.985743E-16
3.550000E+03	2.624172E-15	1.758582E-16
3.560000E+03	2.634851E-15	1.556158E-16
3.570000E+03	2.644335E-15	1.391987E-16
3.580000E+03	2.652494E-15	1.282459E-16
3.590000E+03	2.659276E-15	1.241283E-16
3.600000E+03	2.664653E-15	1.270104E-16
3.610000E+03	2.668736E-15	1.355399E-16
3.620000E+03	2.671670E-15	1.477124E-16
3.630000E+03	2.673642E-15	1.617237E-16
3.640000E+03	2.674885E-15	1.762703E-16
3.650000E+03	2.675586E-15	1.904961E-16
3.660000E+03	2.676007E-15	2.038730E-16
3.670000E+03	2.676322E-15	2.160817E-16
3.680000E+03	2.676745E-15	2.269484E-16
3.690000E+03	2.677493E-15	2.363967E-16
3.700000E+03	2.678691E-15	2.444105E-16
3.710000E+03	2.680492E-15	2.510255E-16
3.720000E+03	2.683076E-15	2.563188E-16
3.730000E+03	2.686528E-15	2.603880E-16
3.740000E+03	2.690934E-15	2.633550E-16
3.750000E+03	2.696406E-15	2.653631E-16
3.760000E+03	2.702956E-15	2.665603E-16
3.770000E+03	2.710621E-15	2.671055E-16
3.780000E+03	2.719436E-15	2.671609E-16
3.790000E+03	2.729356E-15	2.668775E-16
3.800000E+03	2.740330E-15	2.663953E-16
3.810000E+03	2.752274E-15	2.658346E-16
3.820000E+03	2.765073E-15	2.652907E-16
3.830000E+03	2.778601E-15	2.648328E-16
3.840000E+03	2.792657E-15	2.644974E-16
3.850000E+03	2.807062E-15	2.642998E-16
3.860000E+03	2.821618E-15	2.642333E-16
3.870000E+03	2.836065E-15	2.642710E-16
3.880000E+03	2.850166E-15	2.643778E-16
3.890000E+03	2.863732E-15	2.645182E-16
3.900000E+03	2.876541E-15	2.646516E-16
3.910000E+03	2.888363E-15	2.647380E-16
3.920000E+03	2.899066E-15	2.647486E-16
3.930000E+03	2.908523E-15	2.646586E-16
3.940000E+03	2.916568E-15	2.644427E-16
3.950000E+03	2.923159E-15	2.640905E-16
3.960000E+03	2.928266E-15	2.635946E-16
3.970000E+03	2.931859E-15	2.629498E-16
3.980000E+03	2.933911E-15	2.621520E-16
3.990000E+03	2.934508E-15	2.612078E-16
4.000000E+03	2.933654E-15	2.601163E-16
4.010000E+03	2.931386E-15	2.588791E-16
4.020000E+03	2.927796E-15	2.575015E-16
4.030000E+03	2.922908E-15	2.559822E-16
4.040000E+03	2.916824E-15	2.543258E-16
4.050000E+03	2.909558E-15	2.525283E-16
4.060000E+03	2.901249E-15	2.505958E-16
4.070000E+03	2.891954E-15	2.485270E-16
4.080000E+03	2.881769E-15	2.463231E-16
4.090000E+03	2.870849E-15	2.439901E-16
4.100000E+03	2.859274E-15	2.415268E-16
4.110000E+03	2.847248E-15	2.389423E-16
4.120000E+03	2.834869E-15	2.362359E-16
4.130000E+03	2.822302E-15	2.334122E-16
4.140000E+03	2.809699E-15	2.304736E-16
4.150000E+03	2.797146E-15	2.274160E-16
4.160000E+03	2.784738E-15	2.242347E-16
4.170000E+03	2.772506E-15	2.209174E-16
4.180000E+03	2.760405E-15	2.174434E-16
4.190000E+03	2.748401E-15	2.137894E-16
4.200000E+03	2.736308E-15	2.099168E-16
4.210000E+03	2.723973E-15	2.057851E-16
4.220000E+03	2.711099E-15	2.013391E-16
4.230000E+03	2.697418E-15	1.965217E-16
4.240000E+03	2.682610E-15	1.912697E-16
4.250000E+03	2.666310E-15	1.855152E-16
4.260000E+03	2.648257E-15	1.791989E-16
4.270000E+03	2.628166E-15	1.722632E-16
4.280000E+03	2.605822E-15	1.646627E-16
4.290000E+03	2.581105E-15	1.563702E-16
4.300000E+03	2.554052E-15	1.473872E-16
4.310000E+03	2.524822E-15	1.377501E-16
4.320000E+03	2.493681E-15	1.275438E-16
4.330000E+03	2.461184E-15	1.169329E-16
4.340000E+03	2.427992E-15	1.061855E-16
4.350000E+03	2.395080E-15	9.573511E-17
4.360000E+03	2.363545E-15	8.623954E-17
4.370000E+03	2.334689E-15	7.863011E-17
4.380000E+03	2.309801E-15	7.399168E-17
4.390000E+03	2.289840E-15	7.310341E-17
4.400000E+03	2.274992E-15	7.583185E-17
4.410000E+03	2.264739E-15	8.119676E-17
4.420000E+03	2.258310E-15	8.803420E-17
4.430000E+03	2.254948E-15	9.542900E-17
4.440000E+03	2.254055E-15	1.027894E-16
4.450000E+03	2.255127E-15	1.097694E-16
4.460000E+03	2.257817E-15	1.161854E-16
4.470000E+03	2.261759E-15	1.219463E-16
4.480000E+03	2.266614E-15	1.270154E-16
4.490000E+03	2.272016E-15	1.313833E-16
4.500000E+03	2.277576E-15	1.350522E-16
4.510000E+03	2.282885E-15	1.380279E-16
4.520000E+03	2.287539E-15	1.403153E-16
4.530000E+03	2.291124E-15	1.419153E-16
4.540000E+03	2.293358E-15	1.428318E-16
4.550000E+03	2.293953E-15	1.430630E-16
4.560000E+03	2.292748E-15	1.426087E-16
4.570000E+03	2.289658E-15	1.414672E-16
4.580000E+03	2.284735E-15	1.396380E-16
4.590000E+03	2.278092E-15	1.371172E-16
4.600000E+03	2.269915E-15	1.338980E-16
4.610000E+03	2.260553E-15	1.299779E-16
4.620000E+03	2.250341E-15	1.253507E-16
4.630000E+03	2.239681E-15	1.200166E-16
4.640000E+03	2.229044E-15	1.139900E-16
4.650000E+03	2.218891E-15	1.073085E-16
4.660000E+03	2.209627E-15	1.000507E-16
4.670000E+03	2.201757E-15	9.237837E-17
4.680000E+03	2.195732E-15	8.458284E-17
4.690000E+03	2.192015E-15	7.716865E-17
4.700000E+03	2.191105E-15	7.094099E-17
4.710000E+03	2.193471E-15	6.699151E-17
4.720000E+03	2.199517E-15	6.636412E-17
4.730000E+03	2.209310E-15	6.936408E-17
4.740000E+03	2.222593E-15	7.529081E-17
4.750000E+03	2.238926E-15	8.304683E-17
4.760000E+03	2.257728E-15	9.168225E-17
4.770000E+03	2.278508E-15	1.005551E-16
4.780000E+03	2.300713E-15	1.092731E-16
4.790000E+03	2.323787E-15	1.176111E-16
4.800000E+03	2.347241E-15	1.254496E-16
4.810000E+03	2.370475E-15	1.327244E-16
4.820000E+03	2.393036E-15	1.394143E-16
4.830000E+03	2.414359E-15	1.455111E-16
4.840000E+03	2.434040E-15	1.510245E-16
4.850000E+03	2.451640E-15	1.559655E-16
4.860000E+03	2.466887E-15	1.603546E-16
4.870000E+03	2.479497E-15	1.642097E-16
4.880000E+03	2.489341E-15	1.675561E-16
4.890000E+03	2.496345E-15	1.704200E-16
4.900000E+03	2.500484E-15	1.728274E-16
4.910000E+03	2.501811E-15	1.748074E-16
4.920000E+03	2.500425E-15	1.763885E-16
4.930000E+03	2.496480E-15	1.776008E-16
4.940000E+03	2.490077E-15	1.784679E-16
4.950000E+03	2.481430E-15	1.790193E-16
4.960000E+03	2.470664E-15	1.792771E-16
4.970000E+03	2.457989E-15	1.792680E-16
4.980000E+03	2.443572E-15	1.790152E-16
4.990000E+03	2.427610E-15	1.785432E-16
5.000000E+03	2.410301E-15	1.778760E-16
5.010000E+03	2.391863E-15	1.770376E-16
5.020000E+03	2.372435E-15	1.760454E-16
5.030000E+03	2.352215E-15	1.749195E-16
5.040000E+03	2.331336E-15	1.736744E-16
5.050000E+03	2.309962E-15	1.723260E-16
5.060000E+03	2.288196E-15	1.708852E-16
5.070000E+03	2.266125E-15	1.693610E-16
5.080000E+03	2.243862E-15	1.677645E-16
5.090000E+03	2.221482E-15	1.661035E-16
5.100000E+03	2.199019E-15	1.643829E-16
5.110000E+03	2.176492E-15	1.626065E-16
5.120000E+03	2.153971E-15	1.607821E-16
5.130000E+03	2.131430E-15	1.589101E-16
5.140000E+03	2.108888E-15	1.569939E-16
5.150000E+03	2.086369E-15	1.550363E-16
5.160000E+03	2.063912E-15	1.530401E-16
5.170000E+03	2.041558E-15	1.510068E-16
5.180000E+03	2.019413E-15	1.489411E-16
5.190000E+03	1.997547E-15	1.468443E-16
5.200000E+03	1.976109E-15	1.447227E-16
5.210000E+03	1.955199E-15	1.425793E-16
5.220000E+03	1.934996E-15	1.404230E-16
5.230000E+03	1.915585E-15	1.382567E-16
5.240000E+03	1.897085E-15	1.360865E-16
5.250000E+03	1.879526E-15	1.339118E-16
5.260000E+03	1.862953E-15	1.317332E-16
5.270000E+03	1.847352E-15	1.295456E-16
5.280000E+03	1.832640E-15	1.273365E-16
5.290000E+03	1.818740E-15	1.250914E-16
5.300000E+03	1.805581E-15	1.227921E-16
5.310000E+03	1.793055E-15	1.204138E-16
5.320000E+03	1.781077E-15	1.179289E-16
5.330000E+03	1.769613E-15	1.153092E-16
5.340000E+03	1.758679E-15	1.125259E-16
5.350000E+03	1.748344E-15	1.095499E-16
5.360000E+03	1.738715E-15	1.063507E-16
5.370000E+03	1.729969E-15	1.028986E-16
5.380000E+03	1.722267E-15	9.915808E-17
5.390000E+03	1.715791E-15	9.509145E-17
5.400000E+03	1.710645E-15	9.065403E-17
5.410000E+03	1.706909E-15	8.580199E-17
5.420000E+03	1.704549E-15	8.049643E-17
5.430000E+03	1.703386E-15	7.471920E-17
5.440000E+03	1.703192E-15	6.850711E-17
5.450000E+03	1.703584E-15	6.199726E-17
5.460000E+03	1.704018E-15	5.551123E-17
5.470000E+03	1.704013E-15	4.968137E-17
5.480000E+03	1.703012E-15	4.552893E-17
5.490000E+03	1.700581E-15	4.424828E-17
5.500000E+03	1.696507E-15	4.637794E-17
5.510000E+03	1.690683E-15	5.119266E-17
5.520000E+03	1.683226E-15	5.749584E-17
5.530000E+03	1.674403E-15	6.432320E-17
5.540000E+03	1.664473E-15	7.107828E-17
5.550000E+03	1.653731E-15	7.744041E-17
5.560000E+03	1.642418E-15	8.325602E-17
5.570000E+03	1.630717E-15	8.846709E-17
5.580000E+03	1.618796E-15	9.307128E-17
5.590000E+03	1.606763E-15	9.709449E-17
5.600000E+03	1.594685E-15	1.005768E-16
5.610000E+03	1.582604E-15	1.035651E-16
5.620000E+03	1.570519E-15	1.061055E-16
5.630000E+03	1.558401E-15	1.082420E-16
5.640000E+03	1.546221E-15	1.100158E-16
5.650000E+03	1.533921E-15	1.114629E-16
5.660000E+03	1.521458E-15	1.126161E-16
5.670000E+03	1.508773E-15	1.135034E-16
5.680000E+03	1.495818E-15	1.141495E-16
5.690000E+03	1.482574E-15	1.145778E-16
5.700000E+03	1.469028E-15	1.148089E-16
5.710000E+03	1.455188E-15	1.148625E-16
5.720000E+03	1.441102E-15	1.147587E-16
5.730000E+03	1.426829E-15	1.145168E-16
5.740000E+03	1.412463E-15	1.141570E-16
5.750000E+03	1.398085E-15	1.136972E-16
5.760000E+03	1.383838E-15	1.131590E-16
5.770000E+03	1.369826E-15	1.125596E-16
5.780000E+03	1.356172E-15	1.119170E-16
5.790000E+03	1.343030E-15	1.112506E-16
5.800000E+03	1.330488E-15	1.105737E-16
5.810000E+03	1.318690E-15	1.099033E-16
5.820000E+03	1.307738E-15	1.092526E-16
5.830000E+03	1.297722E-15	1.086333E-16
5.840000E+03	1.288707E-15	1.080537E-16
5.850000E+03	1.280778E-15	1.075235E-16
5.860000E+03	1.273961E-15	1.070455E-16
5.870000E+03	1.268285E-15	1.066210E-16
5.880000E+03	1.263738E-15	1.062454E-16
5.890000E+03	1.260268E-15	1.059075E-16
5.900000E+03	1.257822E-15	1.055925E-16
5.910000E+03	1.256317E-15	1.052802E-16
5.920000E+03	1.255604E-15	1.049417E-16
5.930000E+03	1.255547E-15	1.045482E-16
5.940000E+03	1.255975E-15	1.040679E-16
5.950000E+03	1.256705E-15	1.034706E-16
5.960000E+03	1.257493E-15	1.027246E-16
5.970000E+03	1.258134E-15	1.018060E-16
5.980000E+03	1.258355E-15	1.006901E-16
5.990000E+03	1.257922E-15	9.935944E-17
6.000000E+03	1.256595E-15	9.779826E-17
6.010000E+03	1.254136E-15	9.599188E-17
6.020000E+03	1.250368E-15	9.392933E-17
6.030000E+03	1.245111E-15	9.159746E-17
6.040000E+03	1.238297E-15	8.898860E-17
6.050000E+03	1.229841E-15	8.609138E-17
6.060000E+03	1.219793E-15	8.290184E-17
6.070000E+03	1.208209E-15	7.941505E-17
6.080000E+03	1.195245E-15	7.563308E-17
6.090000E+03	1.181071E-15	7.156053E-17
6.100000E+03	1.165934E-15	6.721119E-17
6.110000E+03	1.150111E-15	6.260838E-17
6.120000E+03	1.133932E-15	5.779184E-17
6.130000E+03	1.117736E-15	5.282452E-17
6.140000E+03	1.101911E-15	4.781002E-17
6.150000E+03	1.086896E-15	4.291731E-17
6.160000E+03	1.073145E-15	3.841644E-17
6.170000E+03	1.061111E-15	3.471640E-17
6.180000E+03	1.051261E-15	3.235025E-17
6.190000E+03	1.043922E-15	3.178929E-17
6.200000E+03	1.039114E-15	3.309216E-17
6.210000E+03	1.036500E-15	3.582268E-17
6.220000E+03	1.035591E-15	3.940220E-17
6.230000E+03	1.035913E-15	4.336433E-17
6.240000E+03	1.037077E-15	4.740698E-17
6.250000E+03	1.038733E-15	5.135255E-17
6.260000E+03	1.040592E-15	5.510375E-17
6.270000E+03	1.042482E-15	5.861522E-17
6.280000E+03	1.044246E-15	6.186871E-17
6.290000E+03	1.045743E-15	6.486115E-17
6.300000E+03	1.046940E-15	6.760325E-17
6.310000E+03	1.047751E-15	7.010587E-17
6.320000E+03	1.048186E-15	7.238705E-17
6.330000E+03	1.048221E-15	7.446235E-17
6.340000E+03	1.047877E-15	7.634950E-17
6.350000E+03	1.047171E-15	7.806499E-17
6.360000E+03	1.046128E-15	7.962471E-17
6.370000E+03	1.044774E-15	8.104375E-17
6.380000E+03	1.043125E-15	8.233515E-17
6.390000E+03	1.041197E-15	8.351099E-17
6.400000E+03	1.039038E-15	8.458483E-17
6.410000E+03	1.036653E-15	8.556591E-17
6.420000E+03	1.034093E-15	8.646644E-17
6.430000E+03	1.031386E-15	8.729563E-17
6.440000E+03	1.028577E-15	8.806344E-17
6.450000E+03	1.025726E-15	8.878078E-17
6.460000E+03	1.022911E-15	8.945949E-17
6.470000E+03	1.020181E-15	9.010842E-17
6.480000E+03	1.017594E-15	9.073704E-17
6.490000E+03	1.015201E-15	9.135398E-17
6.500000E+03	1.013015E-15	9.196376E-17
6.510000E+03	1.011081E-15	9.257337E-17
6.520000E+03	1.009394E-15	9.318484E-17
6.530000E+03	1.007915E-15	9.379610E-17
6.540000E+03	1.006632E-15	9.440647E-17
6.550000E+03	1.005461E-15	9.500777E-17
6.560000E+03	1.004297E-15	9.558865E-17
6.570000E+03	1.003064E-15	9.613953E-17
6.580000E+03	1.001622E-15	9.664423E-17
6.590000E+03	9.998430E-16	9.708703E-17
6.600000E+03	9.976137E-16	9.745400E-17
6.610000E+03	9.947857E-16	9.772809E-17
6.620000E+03	9.912638E-16	9.789836E-17
6.630000E+03	9.870155E-16	9.796113E-17
6.640000E+03	9.819792E-16	9.791099E-17
6.650000E+03	9.761637E-16	9.775056E-17
6.660000E+03	9.696300E-16	9.748845E-17
6.670000E+03	9.624368E-16	9.713354E-17
6.680000E+03	9.546808E-16	9.669869E-17
6.690000E+03	9.464867E-16	9.619944E-17
6.700000E+03	9.379325E-16	9.564629E-17
6.710000E+03	9.291222E-16	9.505189E-17
6.720000E+03	9.201791E-16	9.443032E-17
6.730000E+03	9.111461E-16	9.378695E-17
6.740000E+03	9.020810E-16	9.312814E-17
6.750000E+03	8.930408E-16	9.245987E-17
6.760000E+03	8.840373E-16	9.178312E-17
6.770000E+03	8.750878E-16	9.109933E-17
6.780000E+03	8.662031E-16	9.040919E-17
6.790000E+03	8.573906E-16	8.971311E-17
6.800000E+03	8.486422E-16	8.900994E-17
6.810000E+03	8.399817E-16	8.830204E-17
6.820000E+03	8.314196E-16	8.759053E-17
6.830000E+03	8.229535E-16	8.687530E-17
6.840000E+03	8.146127E-16	8.615970E-17
6.850000E+03	8.063970E-16	8.544409E-17
6.860000E+03	7.983209E-16	8.473042E-17
6.870000E+03	7.903978E-16	8.402060E-17
6.880000E+03	7.826248E-16	8.331481E-17
6.890000E+03	7.750412E-16	8.261773E-17
6.900000E+03	7.676401E-16	8.192914E-17
6.910000E+03	7.604132E-16	8.124864E-17
6.920000E+03	7.533789E-16	8.057864E-17
6.930000E+03	7.465254E-16	7.991828E-17
6.940000E+03	7.398532E-16	7.926799E-17
6.950000E+03	7.333754E-16	7.862945E-17
6.960000E+03	7.270755E-16	7.800114E-17
6.970000E+03	7.209496E-16	7.738287E-17
6.980000E+03	7.149933E-16	7.677429E-17
6.990000E+03	7.092009E-16	7.617493E-17
7.000000E+03	7.035527E-16	7.558276E-17
7.010000E+03	6.980698E-16	7.500008E-17
7.020000E+03	6.927180E-16	7.442327E-17
7.030000E+03	6.874901E-16	7.385157E-17
7.040000E+03	6.823920E-16	7.328560E-17
7.050000E+03	6.774018E-16	7.272299E-17
7.060000E+03	6.725105E-16	7.216272E-17
7.070000E+03	6.677083E-16	7.160370E-17
7.080000E+03	6.629852E-16	7.104477E-17
7.090000E+03	6.583438E-16	7.048614E-17
7.100000E+03	6.537476E-16	6.992382E-17
7.110000E+03	6.491872E-16	6.935672E-17
7.120000E+03	6.446679E-16	6.878531E-17
7.130000E+03	6.401831E-16	6.820885E-17
7.140000E+03	6.357160E-16	6.762542E-17
7.150000E+03	6.312779E-16	6.703619E-17
7.160000E+03	6.268444E-16	6.643847E-17
7.170000E+03	6.224457E-16	6.583537E-17
7.180000E+03	6.180761E-16	6.522620E-17
7.190000E+03	6.137458E-16	6.461195E-17
7.200000E+03	6.094548E-16	6.399253E-17
7.210000E+03	6.052434E-16	6.337213E-17
7.220000E+03	6.011029E-16	6.274979E-17
7.230000E+03	5.970634E-16	6.212868E-17
7.240000E+03	5.931305E-16	6.150940E-17
7.250000E+03	5.893341E-16	6.089511E-17
7.260000E+03	5.856783E-16	6.028630E-17
7.270000E+03	5.821782E-16	5.968459E-17
7.280000E+03	5.788591E-16	5.909263E-17
7.290000E+03	5.757200E-16	5.851035E-17
7.300000E+03	5.727821E-16	5.793995E-17
7.310000E+03	5.700282E-16	5.737971E-17
7.320000E+03	5.674759E-16	5.683144E-17
7.330000E+03	5.651408E-16	5.629676E-17
7.340000E+03	5.630004E-16	5.577352E-17
7.350000E+03	5.610670E-16	5.526309E-17
7.360000E+03	5.593269E-16	5.476435E-17
7.370000E+03	5.577895E-16	5.427850E-17
7.380000E+03	5.564387E-16	5.380440E-17
7.390000E+03	5.552695E-16	5.334215E-17
7.400000E+03	5.542764E-16	5.289199E-17
7.410000E+03	5.534413E-16	5.245324E-17
7.420000E+03	5.527583E-16	5.202664E-17
7.430000E+03	5.522212E-16	5.161328E-17
7.440000E+03	5.518235E-16	5.121460E-17
7.450000E+03	5.515707E-16	5.083353E-17
7.460000E+03	5.514430E-16	5.047106E-17
7.470000E+03	5.514566E-16	5.013190E-17
7.480000E+03	5.516018E-16	4.981869E-17
7.490000E+03	5.518683E-16	4.953417E-17
7.500000E+03	5.522443E-16	4.928104E-17
7.510000E+03	5.527181E-16	4.906175E-17
7.520000E+03	5.533030E-16	4.888045E-17
7.530000E+03	5.539630E-16	4.873608E-17
7.540000E+03	5.547008E-16	4.862985E-17
7.550000E+03	5.555078E-16	4.856057E-17
7.560000E+03	5.563885E-16	4.852683E-17
7.570000E+03	5.573079E-16	4.852255E-17
7.580000E+03	5.582661E-16	4.854416E-17
7.590000E+03	5.592458E-16	4.858667E-17
7.600000E+03	5.602357E-16	4.864663E-17
7.610000E+03	5.611781E-16	4.871833E-17
7.620000E+03	5.620619E-16	4.880228E-17
7.630000E+03	5.628336E-16	4.889744E-17
7.640000E+03	5.634403E-16	4.900448E-17
7.650000E+03	5.638763E-16	4.912886E-17
7.660000E+03	5.641064E-16	4.927326E-17
7.670000E+03	5.641235E-16	4.944166E-17
7.680000E+03	5.639362E-16	4.963765E-17
7.690000E+03	5.635685E-16	4.986420E-17
7.700000E+03	5.630571E-16	5.012357E-17
7.710000E+03	5.624614E-16	5.041855E-17
7.720000E+03	5.618049E-16	5.074767E-17
7.730000E+03	5.611671E-16	5.111388E-17
7.740000E+03	5.605841E-16	5.151610E-17
7.750000E+03	5.601015E-16	5.195416E-17
7.760000E+03	5.597587E-16	5.242770E-17
