#wls	flux	fluxerr
1.600000E+03	1.011457E-16	7.742670E-17
1.640000E+03	1.023321E-16	7.826801E-17
1.680000E+03	1.036793E-16	7.922088E-17
1.720000E+03	1.051578E-16	8.026070E-17
1.760000E+03	1.067980E-16	8.140839E-17
1.800000E+03	1.086120E-16	8.267028E-17
1.840000E+03	1.106341E-16	8.406921E-17
1.880000E+03	1.128802E-16	8.561310E-17
1.920000E+03	1.153676E-16	8.731035E-17
1.960000E+03	1.181381E-16	8.918680E-17
2.000000E+03	1.212142E-16	9.125272E-17
2.040000E+03	1.246211E-16	9.351887E-17
2.080000E+03	1.284110E-16	9.601445E-17
2.120000E+03	1.326164E-16	9.875208E-17
2.160000E+03	1.372992E-16	1.017635E-16
2.200000E+03	1.424755E-16	1.050434E-16
2.240000E+03	1.482168E-16	1.086242E-16
2.280000E+03	1.545748E-16	1.125189E-16
2.320000E+03	1.616066E-16	1.167394E-16
2.360000E+03	1.693747E-16	1.212953E-16
2.400000E+03	1.779166E-16	1.261710E-16
2.440000E+03	1.873354E-16	1.313893E-16
2.480000E+03	1.977451E-16	1.369691E-16
2.520000E+03	2.091662E-16	1.428518E-16
2.560000E+03	2.216859E-16	1.490122E-16
2.600000E+03	2.354715E-16	1.554611E-16
2.640000E+03	2.505473E-16	1.620942E-16
2.680000E+03	2.670491E-16	1.688596E-16
2.720000E+03	2.850743E-16	1.756544E-16
2.760000E+03	3.047136E-16	1.823447E-16
2.800000E+03	3.260462E-16	1.887600E-16
2.840000E+03	3.491320E-16	1.946887E-16
2.880000E+03	3.740563E-16	1.999026E-16
2.920000E+03	4.008197E-16	2.040983E-16
2.960000E+03	4.295457E-16	2.070106E-16
3.000000E+03	4.601387E-16	2.082467E-16
3.010000E+03	4.681019E-16	2.082635E-16
3.020000E+03	4.761289E-16	2.081252E-16
3.030000E+03	4.843404E-16	2.078794E-16
3.040000E+03	4.926069E-16	2.074649E-16
3.050000E+03	5.009861E-16	2.069020E-16
3.060000E+03	5.095381E-16	2.062102E-16
3.070000E+03	5.181277E-16	2.053300E-16
3.080000E+03	5.268794E-16	2.043071E-16
3.090000E+03	5.356541E-16	2.030836E-16
3.100000E+03	5.445776E-16	2.017047E-16
3.110000E+03	5.536435E-16	2.001640E-16
3.120000E+03	5.627063E-16	1.984064E-16
3.130000E+03	5.718936E-16	1.964767E-16
3.140000E+03	5.811962E-16	1.943700E-16
3.150000E+03	5.905331E-16	1.920588E-16
3.160000E+03	5.998913E-16	1.895411E-16
3.170000E+03	6.094010E-16	1.868603E-16
3.180000E+03	6.189051E-16	1.839704E-16
3.190000E+03	6.284603E-16	1.808941E-16
3.200000E+03	6.379765E-16	1.776127E-16
3.210000E+03	6.475831E-16	1.741710E-16
3.220000E+03	6.571873E-16	1.705534E-16
3.230000E+03	6.667679E-16	1.667673E-16
3.240000E+03	6.763774E-16	1.628409E-16
3.250000E+03	6.859159E-16	1.587672E-16
3.260000E+03	6.953559E-16	1.545616E-16
3.270000E+03	7.047441E-16	1.502590E-16
3.280000E+03	7.139721E-16	1.458634E-16
3.290000E+03	7.231586E-16	1.414300E-16
3.300000E+03	7.321121E-16	1.369542E-16
3.310000E+03	7.408682E-16	1.324810E-16
3.320000E+03	7.494595E-16	1.280553E-16
3.330000E+03	7.576826E-16	1.236834E-16
3.340000E+03	7.657178E-16	1.194374E-16
3.350000E+03	7.732764E-16	1.153124E-16
3.360000E+03	7.805318E-16	1.113735E-16
3.370000E+03	7.872676E-16	1.076227E-16
3.380000E+03	7.934990E-16	1.040897E-16
3.390000E+03	7.991645E-16	1.007848E-16
3.400000E+03	8.042821E-16	9.771854E-17
3.410000E+03	8.087227E-16	9.487340E-17
3.420000E+03	8.124421E-16	9.223324E-17
3.430000E+03	8.154807E-16	8.978302E-17
3.440000E+03	8.178144E-16	8.749365E-17
3.450000E+03	8.194323E-16	8.533359E-17
3.460000E+03	8.203375E-16	8.327143E-17
3.470000E+03	8.206175E-16	8.128523E-17
3.480000E+03	8.202316E-16	7.934324E-17
3.490000E+03	8.192946E-16	7.743417E-17
3.500000E+03	8.177969E-16	7.554117E-17
3.510000E+03	8.159470E-16	7.367526E-17
3.520000E+03	8.137001E-16	7.183242E-17
3.530000E+03	8.112914E-16	7.004269E-17
3.540000E+03	8.088384E-16	6.833408E-17
3.550000E+03	8.064132E-16	6.673935E-17
3.560000E+03	8.042267E-16	6.530999E-17
3.570000E+03	8.023741E-16	6.409172E-17
3.580000E+03	8.011183E-16	6.314149E-17
3.590000E+03	8.005566E-16	6.249014E-17
3.600000E+03	8.005907E-16	6.212940E-17
3.610000E+03	8.013092E-16	6.203819E-17
3.620000E+03	8.024576E-16	6.214971E-17
3.630000E+03	8.039291E-16	6.240129E-17
3.640000E+03	8.055702E-16	6.272763E-17
3.650000E+03	8.072497E-16	6.307050E-17
3.660000E+03	8.089141E-16	6.338498E-17
3.670000E+03	8.104356E-16	6.362799E-17
3.680000E+03	8.118145E-16	6.377390E-17
3.690000E+03	8.130244E-16	6.380158E-17
3.700000E+03	8.140126E-16	6.369367E-17
3.710000E+03	8.148850E-16	6.345010E-17
3.720000E+03	8.155713E-16	6.306114E-17
3.730000E+03	8.161935E-16	6.253550E-17
3.740000E+03	8.167399E-16	6.187435E-17
3.750000E+03	8.172454E-16	6.108514E-17
3.760000E+03	8.177849E-16	6.018068E-17
3.770000E+03	8.183850E-16	5.917258E-17
3.780000E+03	8.190263E-16	5.807189E-17
3.790000E+03	8.197660E-16	5.689820E-17
3.800000E+03	8.206120E-16	5.567068E-17
3.810000E+03	8.215643E-16	5.441082E-17
3.820000E+03	8.226124E-16	5.314148E-17
3.830000E+03	8.237356E-16	5.188609E-17
3.840000E+03	8.248696E-16	5.066601E-17
3.850000E+03	8.260543E-16	4.950849E-17
3.860000E+03	8.272189E-16	4.843175E-17
3.870000E+03	8.283306E-16	4.745303E-17
3.880000E+03	8.293599E-16	4.658435E-17
3.890000E+03	8.302808E-16	4.583099E-17
3.900000E+03	8.310721E-16	4.519199E-17
3.910000E+03	8.317146E-16	4.466058E-17
3.920000E+03	8.321899E-16	4.422448E-17
3.930000E+03	8.325106E-16	4.386868E-17
3.940000E+03	8.325970E-16	4.356989E-17
3.950000E+03	8.324300E-16	4.330526E-17
3.960000E+03	8.320467E-16	4.305450E-17
3.970000E+03	8.313690E-16	4.279326E-17
3.980000E+03	8.304076E-16	4.250489E-17
3.990000E+03	8.291235E-16	4.217424E-17
4.000000E+03	8.275429E-16	4.179355E-17
4.010000E+03	8.256527E-16	4.135658E-17
4.020000E+03	8.234828E-16	4.086320E-17
4.030000E+03	8.210567E-16	4.031677E-17
4.040000E+03	8.184879E-16	3.972833E-17
4.050000E+03	8.157813E-16	3.910668E-17
4.060000E+03	8.130902E-16	3.846973E-17
4.070000E+03	8.104250E-16	3.782903E-17
4.080000E+03	8.078827E-16	3.719976E-17
4.090000E+03	8.055232E-16	3.659312E-17
4.100000E+03	8.033887E-16	3.601550E-17
4.110000E+03	8.014676E-16	3.546741E-17
4.120000E+03	7.998051E-16	3.494859E-17
4.130000E+03	7.984219E-16	3.445443E-17
4.140000E+03	7.973403E-16	3.397934E-17
4.150000E+03	7.965491E-16	3.351709E-17
4.160000E+03	7.961005E-16	3.306566E-17
4.170000E+03	7.960120E-16	3.262447E-17
4.180000E+03	7.963208E-16	3.219661E-17
4.190000E+03	7.970431E-16	3.178627E-17
4.200000E+03	7.982273E-16	3.140089E-17
4.210000E+03	7.998811E-16	3.104684E-17
4.220000E+03	8.020072E-16	3.072856E-17
4.230000E+03	8.046243E-16	3.044914E-17
4.240000E+03	8.077544E-16	3.020812E-17
4.250000E+03	8.114095E-16	2.999931E-17
4.260000E+03	8.156145E-16	2.981395E-17
4.270000E+03	8.204437E-16	2.964385E-17
4.280000E+03	8.259389E-16	2.947868E-17
4.290000E+03	8.322030E-16	2.931144E-17
4.300000E+03	8.392953E-16	2.913519E-17
4.310000E+03	8.473139E-16	2.894564E-17
4.320000E+03	8.562934E-16	2.874092E-17
4.330000E+03	8.662865E-16	2.852687E-17
4.340000E+03	8.772585E-16	2.831404E-17
4.350000E+03	8.891801E-16	2.812223E-17
4.360000E+03	9.019367E-16	2.797514E-17
4.370000E+03	9.154265E-16	2.789784E-17
4.380000E+03	9.295002E-16	2.791100E-17
4.390000E+03	9.440137E-16	2.802612E-17
4.400000E+03	9.588571E-16	2.823997E-17
4.410000E+03	9.739484E-16	2.853585E-17
4.420000E+03	9.892155E-16	2.888675E-17
4.430000E+03	1.004600E-15	2.926008E-17
4.440000E+03	1.020074E-15	2.962778E-17
4.450000E+03	1.035558E-15	2.996930E-17
4.460000E+03	1.050935E-15	3.027147E-17
4.470000E+03	1.066052E-15	3.052886E-17
4.480000E+03	1.080710E-15	3.073788E-17
4.490000E+03	1.094591E-15	3.088840E-17
4.500000E+03	1.107376E-15	3.097108E-17
4.510000E+03	1.118703E-15	3.097939E-17
4.520000E+03	1.128202E-15	3.090963E-17
4.530000E+03	1.135577E-15	3.076693E-17
4.540000E+03	1.140572E-15	3.056158E-17
4.550000E+03	1.143109E-15	3.030641E-17
4.560000E+03	1.143177E-15	3.001597E-17
4.570000E+03	1.140875E-15	2.970429E-17
4.580000E+03	1.136442E-15	2.937935E-17
4.590000E+03	1.130136E-15	2.904518E-17
4.600000E+03	1.122319E-15	2.870479E-17
4.610000E+03	1.113380E-15	2.835422E-17
4.620000E+03	1.103706E-15	2.798943E-17
4.630000E+03	1.093681E-15	2.760916E-17
4.640000E+03	1.083674E-15	2.721237E-17
4.650000E+03	1.073931E-15	2.680268E-17
4.660000E+03	1.064698E-15	2.639314E-17
4.670000E+03	1.056159E-15	2.599937E-17
4.680000E+03	1.048397E-15	2.563864E-17
4.690000E+03	1.041472E-15	2.532405E-17
4.700000E+03	1.035354E-15	2.505409E-17
4.710000E+03	1.029971E-15	2.482179E-17
4.720000E+03	1.025202E-15	2.461958E-17
4.730000E+03	1.020879E-15	2.443761E-17
4.740000E+03	1.016849E-15	2.427155E-17
4.750000E+03	1.012935E-15	2.412055E-17
4.760000E+03	1.009073E-15	2.398354E-17
4.770000E+03	1.005234E-15	2.386048E-17
4.780000E+03	1.001484E-15	2.375123E-17
4.790000E+03	9.980093E-16	2.365014E-17
4.800000E+03	9.950619E-16	2.355310E-17
4.810000E+03	9.929464E-16	2.346228E-17
4.820000E+03	9.919752E-16	2.338258E-17
4.830000E+03	9.924148E-16	2.332381E-17
4.840000E+03	9.944509E-16	2.329598E-17
4.850000E+03	9.981796E-16	2.330123E-17
4.860000E+03	1.003560E-15	2.333759E-17
4.870000E+03	1.010400E-15	2.339975E-17
4.880000E+03	1.018411E-15	2.347667E-17
4.890000E+03	1.027219E-15	2.355968E-17
4.900000E+03	1.036425E-15	2.364623E-17
4.910000E+03	1.045643E-15	2.373560E-17
4.920000E+03	1.054560E-15	2.383196E-17
4.930000E+03	1.062988E-15	2.393862E-17
4.940000E+03	1.070918E-15	2.404900E-17
4.950000E+03	1.078461E-15	2.415326E-17
4.960000E+03	1.085829E-15	2.424344E-17
4.970000E+03	1.093341E-15	2.431214E-17
4.980000E+03	1.101344E-15	2.436023E-17
4.990000E+03	1.110195E-15	2.439890E-17
5.000000E+03	1.120206E-15	2.444269E-17
5.010000E+03	1.131618E-15	2.451197E-17
5.020000E+03	1.144578E-15	2.462608E-17
5.030000E+03	1.159119E-15	2.479162E-17
5.040000E+03	1.175189E-15	2.500804E-17
5.050000E+03	1.192649E-15	2.526653E-17
5.060000E+03	1.211314E-15	2.554411E-17
5.070000E+03	1.230965E-15	2.581680E-17
5.080000E+03	1.251428E-15	2.606905E-17
5.090000E+03	1.272512E-15	2.629010E-17
5.100000E+03	1.294058E-15	2.648345E-17
5.110000E+03	1.315929E-15	2.666404E-17
5.120000E+03	1.337947E-15	2.684717E-17
5.130000E+03	1.360006E-15	2.706028E-17
5.140000E+03	1.381944E-15	2.733868E-17
5.150000E+03	1.403672E-15	2.771619E-17
5.160000E+03	1.425099E-15	2.823112E-17
5.170000E+03	1.446187E-15	2.891759E-17
5.180000E+03	1.466898E-15	2.978231E-17
5.190000E+03	1.487257E-15	3.081742E-17
5.200000E+03	1.507248E-15	3.200421E-17
5.210000E+03	1.526935E-15	3.330410E-17
5.220000E+03	1.546406E-15	3.466717E-17
5.230000E+03	1.565898E-15	3.604195E-17
5.240000E+03	1.585702E-15	3.736842E-17
5.250000E+03	1.606235E-15	3.859015E-17
5.260000E+03	1.627884E-15	3.966000E-17
5.270000E+03	1.651030E-15	4.054000E-17
5.280000E+03	1.675911E-15	4.120312E-17
5.290000E+03	1.702712E-15	4.163686E-17
5.300000E+03	1.731539E-15	4.183839E-17
5.310000E+03	1.762389E-15	4.181640E-17
5.320000E+03	1.795147E-15	4.158931E-17
5.330000E+03	1.829640E-15	4.118265E-17
5.340000E+03	1.865576E-15	4.063374E-17
5.350000E+03	1.902636E-15	3.999007E-17
5.360000E+03	1.940401E-15	3.929840E-17
5.370000E+03	1.978365E-15	3.860803E-17
5.380000E+03	2.015860E-15	3.795360E-17
5.390000E+03	2.052056E-15	3.733900E-17
5.400000E+03	2.085939E-15	3.675970E-17
5.410000E+03	2.116469E-15	3.620962E-17
5.420000E+03	2.142748E-15	3.567679E-17
5.430000E+03	2.163958E-15	3.516868E-17
5.440000E+03	2.179495E-15	3.469635E-17
5.450000E+03	2.189085E-15	3.424930E-17
5.460000E+03	2.192567E-15	3.384299E-17
5.470000E+03	2.189994E-15	3.352063E-17
5.480000E+03	2.181472E-15	3.330318E-17
5.490000E+03	2.167161E-15	3.321335E-17
5.500000E+03	2.147147E-15	3.325893E-17
5.510000E+03	2.121725E-15	3.339058E-17
5.520000E+03	2.091239E-15	3.354535E-17
5.530000E+03	2.056138E-15	3.367370E-17
5.540000E+03	2.017052E-15	3.372146E-17
5.550000E+03	1.974867E-15	3.366101E-17
5.560000E+03	1.930524E-15	3.349121E-17
5.570000E+03	1.885112E-15	3.320991E-17
5.580000E+03	1.839755E-15	3.283069E-17
5.590000E+03	1.795563E-15	3.238721E-17
5.600000E+03	1.753524E-15	3.191228E-17
5.610000E+03	1.714527E-15	3.144782E-17
5.620000E+03	1.679291E-15	3.103521E-17
5.630000E+03	1.648356E-15	3.069405E-17
5.640000E+03	1.622096E-15	3.043867E-17
5.650000E+03	1.600731E-15	3.028224E-17
5.660000E+03	1.584345E-15	3.022439E-17
5.670000E+03	1.572894E-15	3.026548E-17
5.680000E+03	1.566296E-15	3.040859E-17
5.690000E+03	1.564328E-15	3.064388E-17
5.700000E+03	1.566763E-15	3.096381E-17
5.710000E+03	1.573326E-15	3.136498E-17
5.720000E+03	1.583696E-15	3.183724E-17
5.730000E+03	1.597545E-15	3.237501E-17
5.740000E+03	1.614531E-15	3.297774E-17
5.750000E+03	1.634241E-15	3.363710E-17
5.760000E+03	1.656232E-15	3.434829E-17
5.770000E+03	1.680036E-15	3.511112E-17
5.780000E+03	1.705087E-15	3.591704E-17
5.790000E+03	1.730820E-15	3.675958E-17
5.800000E+03	1.756705E-15	3.763381E-17
5.810000E+03	1.782145E-15	3.852301E-17
5.820000E+03	1.806672E-15	3.941610E-17
5.830000E+03	1.829753E-15	4.031014E-17
5.840000E+03	1.850962E-15	4.120693E-17
5.850000E+03	1.869901E-15	4.211925E-17
5.860000E+03	1.886210E-15	4.306667E-17
5.870000E+03	1.899614E-15	4.406139E-17
5.880000E+03	1.909853E-15	4.511299E-17
5.890000E+03	1.916633E-15	4.622496E-17
5.900000E+03	1.919721E-15	4.737772E-17
5.910000E+03	1.918915E-15	4.852098E-17
5.920000E+03	1.914136E-15	4.956448E-17
5.930000E+03	1.905440E-15	5.037365E-17
5.940000E+03	1.893079E-15	5.080930E-17
5.950000E+03	1.877298E-15	5.076989E-17
5.960000E+03	1.858345E-15	5.021700E-17
5.970000E+03	1.836467E-15	4.918504E-17
5.980000E+03	1.811848E-15	4.777151E-17
5.990000E+03	1.784631E-15	4.611715E-17
6.000000E+03	1.754998E-15	4.438078E-17
6.010000E+03	1.723297E-15	4.270022E-17
6.020000E+03	1.689983E-15	4.115996E-17
6.030000E+03	1.655664E-15	3.980010E-17
6.040000E+03	1.621019E-15	3.862649E-17
6.050000E+03	1.586811E-15	3.761940E-17
6.060000E+03	1.553724E-15	3.675187E-17
6.070000E+03	1.522410E-15	3.600088E-17
6.080000E+03	1.493405E-15	3.534313E-17
6.090000E+03	1.467051E-15	3.476233E-17
6.100000E+03	1.443574E-15	3.425089E-17
6.110000E+03	1.422988E-15	3.379971E-17
6.120000E+03	1.405158E-15	3.340386E-17
6.130000E+03	1.389861E-15	3.306171E-17
6.140000E+03	1.376795E-15	3.276781E-17
6.150000E+03	1.365636E-15	3.251989E-17
6.160000E+03	1.356120E-15	3.232088E-17
6.170000E+03	1.347980E-15	3.217096E-17
6.180000E+03	1.341068E-15	3.207470E-17
6.190000E+03	1.335290E-15	3.203769E-17
6.200000E+03	1.330667E-15	3.206074E-17
6.210000E+03	1.327307E-15	3.214462E-17
6.220000E+03	1.325381E-15	3.229078E-17
6.230000E+03	1.325182E-15	3.249947E-17
6.240000E+03	1.326975E-15	3.277306E-17
6.250000E+03	1.331018E-15	3.311792E-17
6.260000E+03	1.337491E-15	3.353697E-17
6.270000E+03	1.346504E-15	3.403464E-17
6.280000E+03	1.358045E-15	3.461464E-17
6.290000E+03	1.371968E-15	3.527321E-17
6.300000E+03	1.388032E-15	3.600394E-17
6.310000E+03	1.405936E-15	3.679809E-17
6.320000E+03	1.425291E-15	3.763825E-17
6.330000E+03	1.445695E-15	3.850465E-17
6.340000E+03	1.466699E-15	3.937565E-17
6.350000E+03	1.487823E-15	4.022492E-17
6.360000E+03	1.508619E-15	4.103047E-17
6.370000E+03	1.528581E-15	4.177623E-17
6.380000E+03	1.547286E-15	4.245311E-17
6.390000E+03	1.564297E-15	4.305979E-17
6.400000E+03	1.579255E-15	4.360166E-17
6.410000E+03	1.591874E-15	4.408274E-17
6.420000E+03	1.601977E-15	4.450872E-17
6.430000E+03	1.609462E-15	4.488506E-17
6.440000E+03	1.614332E-15	4.521252E-17
6.450000E+03	1.616689E-15	4.549299E-17
6.460000E+03	1.616749E-15	4.573214E-17
6.470000E+03	1.614817E-15	4.593612E-17
6.480000E+03	1.611253E-15	4.611669E-17
6.490000E+03	1.606497E-15	4.629336E-17
6.500000E+03	1.600964E-15	4.648651E-17
6.510000E+03	1.595111E-15	4.672313E-17
6.520000E+03	1.589338E-15	4.703287E-17
6.530000E+03	1.584071E-15	4.744392E-17
6.540000E+03	1.579656E-15	4.798090E-17
6.550000E+03	1.576400E-15	4.866227E-17
6.560000E+03	1.574500E-15	4.949029E-17
6.570000E+03	1.573955E-15	5.044929E-17
6.580000E+03	1.574596E-15	5.150498E-17
6.590000E+03	1.575973E-15	5.259820E-17
6.600000E+03	1.577453E-15	5.365649E-17
6.610000E+03	1.578336E-15	5.460739E-17
6.620000E+03	1.577943E-15	5.538642E-17
6.630000E+03	1.575691E-15	5.594901E-17
6.640000E+03	1.571206E-15	5.627993E-17
6.650000E+03	1.564364E-15	5.639261E-17
6.660000E+03	1.555310E-15	5.632388E-17
6.670000E+03	1.544300E-15	5.611637E-17
6.680000E+03	1.531759E-15	5.581035E-17
6.690000E+03	1.518093E-15	5.543711E-17
6.700000E+03	1.503699E-15	5.502159E-17
6.710000E+03	1.488867E-15	5.457872E-17
6.720000E+03	1.473785E-15	5.411659E-17
6.730000E+03	1.458570E-15	5.363776E-17
6.740000E+03	1.443224E-15	5.313563E-17
6.750000E+03	1.427763E-15	5.260140E-17
6.760000E+03	1.412128E-15	5.202139E-17
6.770000E+03	1.396291E-15	5.138085E-17
6.780000E+03	1.380227E-15	5.066757E-17
6.790000E+03	1.364014E-15	4.987863E-17
6.800000E+03	1.347805E-15	4.901978E-17
6.810000E+03	1.331829E-15	4.810757E-17
6.820000E+03	1.316414E-15	4.716918E-17
6.830000E+03	1.301929E-15	4.623614E-17
6.840000E+03	1.288684E-15	4.533888E-17
6.850000E+03	1.277029E-15	4.450562E-17
6.860000E+03	1.267172E-15	4.375171E-17
6.870000E+03	1.259234E-15	4.308534E-17
6.880000E+03	1.253292E-15	4.251223E-17
6.890000E+03	1.249280E-15	4.203232E-17
6.900000E+03	1.247099E-15	4.164550E-17
6.910000E+03	1.246563E-15	4.134806E-17
6.920000E+03	1.247420E-15	4.112992E-17
6.930000E+03	1.249377E-15	4.097803E-17
6.940000E+03	1.252113E-15	4.087746E-17
6.950000E+03	1.255352E-15	4.081202E-17
6.960000E+03	1.258836E-15	4.076690E-17
6.970000E+03	1.262346E-15	4.072999E-17
6.980000E+03	1.265764E-15	4.069166E-17
6.990000E+03	1.269025E-15	4.064603E-17
7.000000E+03	1.272100E-15	4.059015E-17
7.010000E+03	1.275094E-15	4.052430E-17
7.020000E+03	1.278057E-15	4.044843E-17
7.030000E+03	1.281123E-15	4.036635E-17
7.040000E+03	1.284346E-15	4.027774E-17
7.050000E+03	1.287800E-15	4.018423E-17
7.060000E+03	1.291438E-15	4.008479E-17
7.070000E+03	1.295184E-15	3.997600E-17
7.080000E+03	1.298878E-15	3.985329E-17
7.090000E+03	1.302290E-15	3.971121E-17
7.100000E+03	1.305175E-15	3.954203E-17
7.110000E+03	1.307296E-15	3.933975E-17
7.120000E+03	1.308400E-15	3.909906E-17
7.130000E+03	1.308360E-15	3.881633E-17
7.140000E+03	1.307039E-15	3.848893E-17
7.150000E+03	1.304473E-15	3.812008E-17
7.160000E+03	1.300678E-15	3.770955E-17
7.170000E+03	1.295798E-15	3.726108E-17
7.180000E+03	1.289933E-15	3.677647E-17
7.190000E+03	1.283223E-15	3.625453E-17
7.200000E+03	1.275769E-15	3.569270E-17
7.210000E+03	1.267698E-15	3.508932E-17
7.220000E+03	1.259089E-15	3.443900E-17
7.230000E+03	1.250096E-15	3.374085E-17
7.240000E+03	1.240821E-15	3.299584E-17
7.250000E+03	1.231487E-15	3.220866E-17
7.260000E+03	1.222238E-15	3.138657E-17
7.270000E+03	1.213270E-15	3.054184E-17
7.280000E+03	1.204716E-15	2.968463E-17
7.290000E+03	1.196706E-15	2.882852E-17
7.300000E+03	1.189228E-15	2.798524E-17
7.310000E+03	1.182250E-15	2.716298E-17
7.320000E+03	1.175644E-15	2.637063E-17
7.330000E+03	1.169205E-15	2.561675E-17
7.340000E+03	1.162663E-15	2.490383E-17
7.350000E+03	1.155693E-15	2.423392E-17
7.360000E+03	1.147991E-15	2.360551E-17
7.370000E+03	1.139293E-15	2.300657E-17
7.380000E+03	1.129417E-15	2.242809E-17
7.390000E+03	1.118305E-15	2.186888E-17
7.400000E+03	1.106052E-15	2.133073E-17
7.410000E+03	1.092827E-15	2.082387E-17
7.420000E+03	1.078911E-15	2.036077E-17
7.430000E+03	1.064611E-15	1.994146E-17
7.440000E+03	1.050234E-15	1.956386E-17
7.450000E+03	1.036131E-15	1.922690E-17
7.460000E+03	1.022595E-15	1.892293E-17
7.470000E+03	1.009957E-15	1.865470E-17
7.480000E+03	9.985307E-16	1.843972E-17
7.490000E+03	9.886652E-16	1.830408E-17
7.500000E+03	9.806328E-16	1.828411E-17
7.510000E+03	9.747411E-16	1.841778E-17
7.520000E+03	9.711736E-16	1.872356E-17
7.530000E+03	9.700661E-16	1.920744E-17
7.540000E+03	9.714362E-16	1.986182E-17
7.550000E+03	9.751787E-16	2.065604E-17
7.560000E+03	9.811182E-16	2.154731E-17
7.570000E+03	9.890083E-16	2.248932E-17
7.580000E+03	9.985125E-16	2.343058E-17
7.590000E+03	1.009298E-15	2.432503E-17
7.600000E+03	1.021008E-15	2.513929E-17
7.610000E+03	1.033304E-15	2.585494E-17
7.620000E+03	1.045840E-15	2.647199E-17
7.630000E+03	1.058300E-15	2.700925E-17
7.640000E+03	1.070403E-15	2.749724E-17
7.650000E+03	1.081814E-15	2.797171E-17
7.660000E+03	1.092154E-15	2.846325E-17
7.670000E+03	1.100925E-15	2.898397E-17
7.680000E+03	1.107580E-15	2.953080E-17
7.690000E+03	1.111591E-15	3.008963E-17
7.700000E+03	1.112578E-15	3.063787E-17
7.710000E+03	1.110248E-15	3.114981E-17
7.720000E+03	1.104465E-15	3.160254E-17
7.730000E+03	1.095227E-15	3.197469E-17
7.740000E+03	1.082646E-15	3.225063E-17
7.750000E+03	1.066923E-15	3.242160E-17
7.760000E+03	1.048335E-15	3.248347E-17
