#wls	flux	fluxerr
1.600000E+03	3.024225E-17	2.320908E-17
1.640000E+03	3.067511E-17	2.353091E-17
1.680000E+03	3.114426E-17	2.387889E-17
1.720000E+03	3.165193E-17	2.425448E-17
1.760000E+03	3.220617E-17	2.466353E-17
1.800000E+03	3.279849E-17	2.509918E-17
1.840000E+03	3.344300E-17	2.557181E-17
1.880000E+03	3.414300E-17	2.608348E-17
1.920000E+03	3.490206E-17	2.663637E-17
1.960000E+03	3.571803E-17	2.722819E-17
2.000000E+03	3.660696E-17	2.787046E-17
2.040000E+03	3.756736E-17	2.856121E-17
2.080000E+03	3.861034E-17	2.930792E-17
2.120000E+03	3.974131E-17	3.011359E-17
2.160000E+03	4.096604E-17	3.098132E-17
2.200000E+03	4.229067E-17	3.191431E-17
2.240000E+03	4.372851E-17	3.292096E-17
2.280000E+03	4.528677E-17	3.400480E-17
2.320000E+03	4.698017E-17	3.517475E-17
2.360000E+03	4.880954E-17	3.642900E-17
2.400000E+03	5.079032E-17	3.777638E-17
2.440000E+03	5.293874E-17	3.922591E-17
2.480000E+03	5.526371E-17	4.078075E-17
2.520000E+03	5.778204E-17	4.244955E-17
2.560000E+03	6.049387E-17	4.422826E-17
2.600000E+03	6.343244E-17	4.613668E-17
2.640000E+03	6.658748E-17	4.816244E-17
2.680000E+03	6.998193E-17	5.031703E-17
2.720000E+03	7.362873E-17	5.260428E-17
2.760000E+03	7.752883E-17	5.501923E-17
2.800000E+03	8.169940E-17	5.756836E-17
2.840000E+03	8.612360E-17	6.023413E-17
2.880000E+03	9.082044E-17	6.302446E-17
2.920000E+03	9.577245E-17	6.592206E-17
2.960000E+03	1.009543E-16	6.890510E-17
3.000000E+03	1.063672E-16	7.197067E-17
3.010000E+03	1.077600E-16	7.275195E-17
3.020000E+03	1.091509E-16	7.352716E-17
3.030000E+03	1.105626E-16	7.431153E-17
3.040000E+03	1.119826E-16	7.509662E-17
3.050000E+03	1.134101E-16	7.588187E-17
3.060000E+03	1.148560E-16	7.667467E-17
3.070000E+03	1.163078E-16	7.746647E-17
3.080000E+03	1.177644E-16	7.825664E-17
3.090000E+03	1.192249E-16	7.904456E-17
3.100000E+03	1.207004E-16	7.983766E-17
3.110000E+03	1.221779E-16	8.062724E-17
3.120000E+03	1.236687E-16	8.142074E-17
3.130000E+03	1.251594E-16	8.220942E-17
3.140000E+03	1.266489E-16	8.299260E-17
3.150000E+03	1.281486E-16	8.377773E-17
3.160000E+03	1.296576E-16	8.456415E-17
3.170000E+03	1.311622E-16	8.534306E-17
3.180000E+03	1.326614E-16	8.611377E-17
3.190000E+03	1.341791E-16	8.689189E-17
3.200000E+03	1.356766E-16	8.765230E-17
3.210000E+03	1.371906E-16	8.841878E-17
3.220000E+03	1.386947E-16	8.917435E-17
3.230000E+03	1.402005E-16	8.992651E-17
3.240000E+03	1.416943E-16	9.066645E-17
3.250000E+03	1.432003E-16	9.140979E-17
3.260000E+03	1.446922E-16	9.213964E-17
3.270000E+03	1.461816E-16	9.286349E-17
3.280000E+03	1.476548E-16	9.357266E-17
3.290000E+03	1.491362E-16	9.428271E-17
3.300000E+03	1.506122E-16	9.498498E-17
3.310000E+03	1.520692E-16	9.567086E-17
3.320000E+03	1.535316E-16	9.635591E-17
3.330000E+03	1.549733E-16	9.702356E-17
3.340000E+03	1.564188E-16	9.768933E-17
3.350000E+03	1.578547E-16	9.834474E-17
3.360000E+03	1.592802E-16	9.898935E-17
3.370000E+03	1.606820E-16	9.961489E-17
3.380000E+03	1.620976E-16	1.002446E-16
3.390000E+03	1.634882E-16	1.008546E-16
3.400000E+03	1.648789E-16	1.014601E-16
3.410000E+03	1.662565E-16	1.020531E-16
3.420000E+03	1.676205E-16	1.026333E-16
3.430000E+03	1.689708E-16	1.032005E-16
3.440000E+03	1.703195E-16	1.037622E-16
3.450000E+03	1.716666E-16	1.043182E-16
3.460000E+03	1.729992E-16	1.048607E-16
3.470000E+03	1.743174E-16	1.053896E-16
3.480000E+03	1.756336E-16	1.059124E-16
3.490000E+03	1.769478E-16	1.064291E-16
3.500000E+03	1.782478E-16	1.069321E-16
3.510000E+03	1.795460E-16	1.074288E-16
3.520000E+03	1.808306E-16	1.079121E-16
3.530000E+03	1.821262E-16	1.083965E-16
3.540000E+03	1.834087E-16	1.088676E-16
3.550000E+03	1.846787E-16	1.093255E-16
3.560000E+03	1.859609E-16	1.097849E-16
3.570000E+03	1.872436E-16	1.102385E-16
3.580000E+03	1.885154E-16	1.106796E-16
3.590000E+03	1.898009E-16	1.111225E-16
3.600000E+03	1.910770E-16	1.115534E-16
3.610000E+03	1.923680E-16	1.119865E-16
3.620000E+03	1.936512E-16	1.124082E-16
3.630000E+03	1.949508E-16	1.128325E-16
3.640000E+03	1.962560E-16	1.132528E-16
3.650000E+03	1.975676E-16	1.136696E-16
3.660000E+03	1.988866E-16	1.140831E-16
3.670000E+03	2.002254E-16	1.145003E-16
3.680000E+03	2.015733E-16	1.149149E-16
3.690000E+03	2.029316E-16	1.153273E-16
3.700000E+03	2.043011E-16	1.157380E-16
3.710000E+03	2.056941E-16	1.161536E-16
3.720000E+03	2.071004E-16	1.165681E-16
3.730000E+03	2.085322E-16	1.169882E-16
3.740000E+03	2.099793E-16	1.174081E-16
3.750000E+03	2.114538E-16	1.178342E-16
3.760000E+03	2.129457E-16	1.182608E-16
3.770000E+03	2.144561E-16	1.186884E-16
3.780000E+03	2.160076E-16	1.191293E-16
3.790000E+03	2.175688E-16	1.195659E-16
3.800000E+03	2.191727E-16	1.200163E-16
3.810000E+03	2.207990E-16	1.204692E-16
3.820000E+03	2.224591E-16	1.209306E-16
3.830000E+03	2.241432E-16	1.213952E-16
3.840000E+03	2.258628E-16	1.218689E-16
3.850000E+03	2.276081E-16	1.223466E-16
3.860000E+03	2.294007E-16	1.228397E-16
3.870000E+03	2.312203E-16	1.233372E-16
3.880000E+03	2.330677E-16	1.238396E-16
3.890000E+03	2.349639E-16	1.243580E-16
3.900000E+03	2.368890E-16	1.248818E-16
3.910000E+03	2.388434E-16	1.254113E-16
3.920000E+03	2.408376E-16	1.259522E-16
3.930000E+03	2.428720E-16	1.265047E-16
3.940000E+03	2.449467E-16	1.270688E-16
3.950000E+03	2.470518E-16	1.276397E-16
3.960000E+03	2.491974E-16	1.282226E-16
3.970000E+03	2.513738E-16	1.288128E-16
3.980000E+03	2.535906E-16	1.294155E-16
3.990000E+03	2.558380E-16	1.300258E-16
4.000000E+03	2.581256E-16	1.306490E-16
4.010000E+03	2.604434E-16	1.312801E-16
4.020000E+03	2.627911E-16	1.319195E-16
4.030000E+03	2.651782E-16	1.325722E-16
4.040000E+03	2.675944E-16	1.332335E-16
4.050000E+03	2.700394E-16	1.339034E-16
4.060000E+03	2.725223E-16	1.345871E-16
4.070000E+03	2.750234E-16	1.352750E-16
4.080000E+03	2.775517E-16	1.359721E-16
4.090000E+03	2.801065E-16	1.366787E-16
4.100000E+03	2.826874E-16	1.373947E-16
4.110000E+03	2.852935E-16	1.381203E-16
4.120000E+03	2.879149E-16	1.388511E-16
4.130000E+03	2.905602E-16	1.395918E-16
4.140000E+03	2.932287E-16	1.403424E-16
4.150000E+03	2.959010E-16	1.410942E-16
4.160000E+03	2.985952E-16	1.418562E-16
4.170000E+03	3.013013E-16	1.426239E-16
4.180000E+03	3.040185E-16	1.433977E-16
4.190000E+03	3.067370E-16	1.441731E-16
4.200000E+03	3.094746E-16	1.449589E-16
4.210000E+03	3.122030E-16	1.457423E-16
4.220000E+03	3.149493E-16	1.465362E-16
4.230000E+03	3.176852E-16	1.473278E-16
4.240000E+03	3.204285E-16	1.481256E-16
4.250000E+03	3.231696E-16	1.489255E-16
4.260000E+03	3.259078E-16	1.497273E-16
4.270000E+03	3.286336E-16	1.505269E-16
4.280000E+03	3.313556E-16	1.513283E-16
4.290000E+03	3.340641E-16	1.521274E-16
4.300000E+03	3.367588E-16	1.529240E-16
4.310000E+03	3.394480E-16	1.537221E-16
4.320000E+03	3.421135E-16	1.545134E-16
4.330000E+03	3.447637E-16	1.553017E-16
4.340000E+03	3.473980E-16	1.560869E-16
4.350000E+03	3.500073E-16	1.568645E-16
4.360000E+03	3.525909E-16	1.576345E-16
4.370000E+03	3.551486E-16	1.583965E-16
4.380000E+03	3.576798E-16	1.591502E-16
4.390000E+03	3.601842E-16	1.598952E-16
4.400000E+03	3.626527E-16	1.606274E-16
4.410000E+03	3.650848E-16	1.613464E-16
4.420000E+03	3.674891E-16	1.620557E-16
4.430000E+03	3.698565E-16	1.627512E-16
4.440000E+03	3.721869E-16	1.634324E-16
4.450000E+03	3.744713E-16	1.640954E-16
4.460000E+03	3.767186E-16	1.647435E-16
4.470000E+03	3.789201E-16	1.653729E-16
4.480000E+03	3.810846E-16	1.659871E-16
4.490000E+03	3.832036E-16	1.665821E-16
4.500000E+03	3.852778E-16	1.671578E-16
4.510000E+03	3.872990E-16	1.677107E-16
4.520000E+03	3.892850E-16	1.682479E-16
4.530000E+03	3.912197E-16	1.687624E-16
4.540000E+03	3.931042E-16	1.692542E-16
4.550000E+03	3.949481E-16	1.697274E-16
4.560000E+03	3.967444E-16	1.701785E-16
4.570000E+03	3.984946E-16	1.706080E-16
4.580000E+03	4.002007E-16	1.710165E-16
4.590000E+03	4.018729E-16	1.714079E-16
4.600000E+03	4.034966E-16	1.717758E-16
4.610000E+03	4.050825E-16	1.721245E-16
4.620000E+03	4.066330E-16	1.724546E-16
4.630000E+03	4.081426E-16	1.727633E-16
4.640000E+03	4.096222E-16	1.730551E-16
4.650000E+03	4.110748E-16	1.733306E-16
4.660000E+03	4.124952E-16	1.735873E-16
4.670000E+03	4.138945E-16	1.738293E-16
4.680000E+03	4.152678E-16	1.740540E-16
4.690000E+03	4.166264E-16	1.742656E-16
4.700000E+03	4.179653E-16	1.744614E-16
4.710000E+03	4.192878E-16	1.746419E-16
4.720000E+03	4.206052E-16	1.748111E-16
4.730000E+03	4.219123E-16	1.749660E-16
4.740000E+03	4.232204E-16	1.751103E-16
4.750000E+03	4.245241E-16	1.752409E-16
4.760000E+03	4.258263E-16	1.753579E-16
4.770000E+03	4.271375E-16	1.754645E-16
4.780000E+03	4.284522E-16	1.755571E-16
4.790000E+03	4.297805E-16	1.756387E-16
4.800000E+03	4.311163E-16	1.757055E-16
4.810000E+03	4.324614E-16	1.757566E-16
4.820000E+03	4.338332E-16	1.757976E-16
4.830000E+03	4.352087E-16	1.758177E-16
4.840000E+03	4.366129E-16	1.758254E-16
4.850000E+03	4.380303E-16	1.758126E-16
4.860000E+03	4.394690E-16	1.757808E-16
4.870000E+03	4.409290E-16	1.757282E-16
4.880000E+03	4.424097E-16	1.756526E-16
4.890000E+03	4.439025E-16	1.755485E-16
4.900000E+03	4.454221E-16	1.754199E-16
4.910000E+03	4.469510E-16	1.752578E-16
4.920000E+03	4.485036E-16	1.750655E-16
4.930000E+03	4.500695E-16	1.748369E-16
4.940000E+03	4.516464E-16	1.745687E-16
4.950000E+03	4.532315E-16	1.742576E-16
4.960000E+03	4.548297E-16	1.739032E-16
4.970000E+03	4.564295E-16	1.734985E-16
4.980000E+03	4.580353E-16	1.730429E-16
4.990000E+03	4.596352E-16	1.725293E-16
5.000000E+03	4.612329E-16	1.719566E-16
5.010000E+03	4.628240E-16	1.713207E-16
5.020000E+03	4.643958E-16	1.706140E-16
5.030000E+03	4.659514E-16	1.698354E-16
5.040000E+03	4.674857E-16	1.689802E-16
5.050000E+03	4.689936E-16	1.680440E-16
5.060000E+03	4.704696E-16	1.670222E-16
5.070000E+03	4.719001E-16	1.659073E-16
5.080000E+03	4.732959E-16	1.647006E-16
5.090000E+03	4.746431E-16	1.633945E-16
5.100000E+03	4.759361E-16	1.619847E-16
5.110000E+03	4.771693E-16	1.604668E-16
5.120000E+03	4.783370E-16	1.588363E-16
5.130000E+03	4.794419E-16	1.570920E-16
5.140000E+03	4.804705E-16	1.552270E-16
5.150000E+03	4.814176E-16	1.532375E-16
5.160000E+03	4.822780E-16	1.511200E-16
5.170000E+03	4.830552E-16	1.488736E-16
5.180000E+03	4.837365E-16	1.464928E-16
5.190000E+03	4.843177E-16	1.439747E-16
5.200000E+03	4.848032E-16	1.413194E-16
5.210000E+03	4.851815E-16	1.385224E-16
5.220000E+03	4.854496E-16	1.355821E-16
5.230000E+03	4.856133E-16	1.324995E-16
5.240000E+03	4.856625E-16	1.292716E-16
5.250000E+03	4.856039E-16	1.259003E-16
5.260000E+03	4.854208E-16	1.223817E-16
5.270000E+03	4.851371E-16	1.187227E-16
5.280000E+03	4.847292E-16	1.149188E-16
5.290000E+03	4.842144E-16	1.109759E-16
5.300000E+03	4.835863E-16	1.068950E-16
5.310000E+03	4.828475E-16	1.026796E-16
5.320000E+03	4.820090E-16	9.833581E-17
5.330000E+03	4.810664E-16	9.386736E-17
5.340000E+03	4.800318E-16	8.928233E-17
5.350000E+03	4.788942E-16	8.458572E-17
5.360000E+03	4.776746E-16	7.979016E-17
5.370000E+03	4.763707E-16	7.490620E-17
5.380000E+03	4.749964E-16	6.994997E-17
5.390000E+03	4.735423E-16	6.493810E-17
5.400000E+03	4.720305E-16	5.989743E-17
5.410000E+03	4.704597E-16	5.485952E-17
5.420000E+03	4.688368E-16	4.986886E-17
5.430000E+03	4.671758E-16	4.498830E-17
5.440000E+03	4.654758E-16	4.030556E-17
5.450000E+03	4.637428E-16	3.594881E-17
5.460000E+03	4.619831E-16	3.210216E-17
5.470000E+03	4.602096E-16	2.901849E-17
5.480000E+03	4.584202E-16	2.700211E-17
5.490000E+03	4.566195E-16	2.633033E-17
5.500000E+03	4.548200E-16	2.709944E-17
5.510000E+03	4.530208E-16	2.912547E-17
5.520000E+03	4.512358E-16	3.209248E-17
5.530000E+03	4.494560E-16	3.569009E-17
5.540000E+03	4.477084E-16	3.967872E-17
5.550000E+03	4.459829E-16	4.388751E-17
5.560000E+03	4.442834E-16	4.820169E-17
5.570000E+03	4.426204E-16	5.254522E-17
5.580000E+03	4.409964E-16	5.686663E-17
5.590000E+03	4.394136E-16	6.113113E-17
5.600000E+03	4.378664E-16	6.531406E-17
5.610000E+03	4.363630E-16	6.940035E-17
5.620000E+03	4.349040E-16	7.337926E-17
5.630000E+03	4.334824E-16	7.724248E-17
5.640000E+03	4.321121E-16	8.098807E-17
5.650000E+03	4.307853E-16	8.461229E-17
5.660000E+03	4.295008E-16	8.811398E-17
5.670000E+03	4.282572E-16	9.149298E-17
5.680000E+03	4.270528E-16	9.474982E-17
5.690000E+03	4.258922E-16	9.788715E-17
5.700000E+03	4.247662E-16	1.009049E-16
5.710000E+03	4.236719E-16	1.038046E-16
5.720000E+03	4.226133E-16	1.065899E-16
5.730000E+03	4.215802E-16	1.092610E-16
5.740000E+03	4.205762E-16	1.118215E-16
5.750000E+03	4.195907E-16	1.142718E-16
5.760000E+03	4.186268E-16	1.166156E-16
5.770000E+03	4.176808E-16	1.188548E-16
5.780000E+03	4.167487E-16	1.209914E-16
5.790000E+03	4.158198E-16	1.230252E-16
5.800000E+03	4.148968E-16	1.249601E-16
5.810000E+03	4.139760E-16	1.267978E-16
5.820000E+03	4.130537E-16	1.285401E-16
5.830000E+03	4.121261E-16	1.301887E-16
5.840000E+03	4.111899E-16	1.317455E-16
5.850000E+03	4.102351E-16	1.332100E-16
5.860000E+03	4.092723E-16	1.345885E-16
5.870000E+03	4.082923E-16	1.358806E-16
5.880000E+03	4.072927E-16	1.370885E-16
5.890000E+03	4.062717E-16	1.382142E-16
5.900000E+03	4.052278E-16	1.392599E-16
5.910000E+03	4.041601E-16	1.402279E-16
5.920000E+03	4.030747E-16	1.411232E-16
5.930000E+03	4.019581E-16	1.419438E-16
5.940000E+03	4.008239E-16	1.426971E-16
5.950000E+03	3.996665E-16	1.433838E-16
5.960000E+03	3.984868E-16	1.440072E-16
5.970000E+03	3.972868E-16	1.445704E-16
5.980000E+03	3.960684E-16	1.450770E-16
5.990000E+03	3.948341E-16	1.455306E-16
6.000000E+03	3.935933E-16	1.459374E-16
6.010000E+03	3.923358E-16	1.462964E-16
6.020000E+03	3.910783E-16	1.466164E-16
6.030000E+03	3.898177E-16	1.468990E-16
6.040000E+03	3.885511E-16	1.471458E-16
6.050000E+03	3.872955E-16	1.473658E-16
6.060000E+03	3.860547E-16	1.475632E-16
6.070000E+03	3.848195E-16	1.477369E-16
6.080000E+03	3.836003E-16	1.478935E-16
6.090000E+03	3.824008E-16	1.480369E-16
6.100000E+03	3.812245E-16	1.481707E-16
6.110000E+03	3.800814E-16	1.483011E-16
6.120000E+03	3.789615E-16	1.484266E-16
6.130000E+03	3.778743E-16	1.485529E-16
6.140000E+03	3.768287E-16	1.486856E-16
6.150000E+03	3.758139E-16	1.488224E-16
6.160000E+03	3.748384E-16	1.489684E-16
6.170000E+03	3.739034E-16	1.491259E-16
6.180000E+03	3.730163E-16	1.492995E-16
6.190000E+03	3.721650E-16	1.494858E-16
6.200000E+03	3.713560E-16	1.496887E-16
6.210000E+03	3.705891E-16	1.499096E-16
6.220000E+03	3.698633E-16	1.501491E-16
6.230000E+03	3.691776E-16	1.504079E-16
6.240000E+03	3.685305E-16	1.506863E-16
6.250000E+03	3.679197E-16	1.509842E-16
6.260000E+03	3.673431E-16	1.513015E-16
6.270000E+03	3.667977E-16	1.516376E-16
6.280000E+03	3.662804E-16	1.519917E-16
6.290000E+03	3.657878E-16	1.523629E-16
6.300000E+03	3.653161E-16	1.527499E-16
6.310000E+03	3.648613E-16	1.531513E-16
6.320000E+03	3.644192E-16	1.535655E-16
6.330000E+03	3.639917E-16	1.539935E-16
6.340000E+03	3.635615E-16	1.544279E-16
6.350000E+03	3.631367E-16	1.548721E-16
6.360000E+03	3.626997E-16	1.553185E-16
6.370000E+03	3.622585E-16	1.557703E-16
6.380000E+03	3.618020E-16	1.562223E-16
6.390000E+03	3.613319E-16	1.566751E-16
6.400000E+03	3.608371E-16	1.571232E-16
6.410000E+03	3.603131E-16	1.575644E-16
6.420000E+03	3.597557E-16	1.579960E-16
6.430000E+03	3.591670E-16	1.584184E-16
6.440000E+03	3.585432E-16	1.588291E-16
6.450000E+03	3.578678E-16	1.592200E-16
6.460000E+03	3.571567E-16	1.595974E-16
6.470000E+03	3.563940E-16	1.599530E-16
6.480000E+03	3.555833E-16	1.602876E-16
6.490000E+03	3.547157E-16	1.605961E-16
6.500000E+03	3.537957E-16	1.608792E-16
6.510000E+03	3.528213E-16	1.611351E-16
6.520000E+03	3.517913E-16	1.613618E-16
6.530000E+03	3.507044E-16	1.615576E-16
6.540000E+03	3.495600E-16	1.617209E-16
6.550000E+03	3.483511E-16	1.618472E-16
6.560000E+03	3.470905E-16	1.619411E-16
6.570000E+03	3.457719E-16	1.619983E-16
6.580000E+03	3.443958E-16	1.620178E-16
6.590000E+03	3.429691E-16	1.620016E-16
6.600000E+03	3.414864E-16	1.619458E-16
6.610000E+03	3.399489E-16	1.618499E-16
6.620000E+03	3.383580E-16	1.617131E-16
6.630000E+03	3.367213E-16	1.615382E-16
6.640000E+03	3.350404E-16	1.613246E-16
6.650000E+03	3.333109E-16	1.610694E-16
6.660000E+03	3.315408E-16	1.607752E-16
6.670000E+03	3.297259E-16	1.604393E-16
6.680000E+03	3.278804E-16	1.600675E-16
6.690000E+03	3.259939E-16	1.596542E-16
6.700000E+03	3.240747E-16	1.592026E-16
6.710000E+03	3.221246E-16	1.587131E-16
6.720000E+03	3.201457E-16	1.581859E-16
6.730000E+03	3.181399E-16	1.576215E-16
6.740000E+03	3.161029E-16	1.570175E-16
6.750000E+03	3.140547E-16	1.563833E-16
6.760000E+03	3.119789E-16	1.557106E-16
6.770000E+03	3.098833E-16	1.550028E-16
6.780000E+03	3.077751E-16	1.542635E-16
6.790000E+03	3.056500E-16	1.534904E-16
6.800000E+03	3.035094E-16	1.526841E-16
6.810000E+03	3.013544E-16	1.518452E-16
6.820000E+03	2.991921E-16	1.509772E-16
6.830000E+03	2.970177E-16	1.500778E-16
6.840000E+03	2.948378E-16	1.491505E-16
6.850000E+03	2.926475E-16	1.481930E-16
6.860000E+03	2.904477E-16	1.472059E-16
6.870000E+03	2.882446E-16	1.461926E-16
6.880000E+03	2.860388E-16	1.451537E-16
6.890000E+03	2.838250E-16	1.440868E-16
6.900000E+03	2.816040E-16	1.429926E-16
6.910000E+03	2.793814E-16	1.418745E-16
6.920000E+03	2.771521E-16	1.407300E-16
6.930000E+03	2.749218E-16	1.395627E-16
6.940000E+03	2.726907E-16	1.383730E-16
6.950000E+03	2.704537E-16	1.371588E-16
6.960000E+03	2.682109E-16	1.359206E-16
6.970000E+03	2.659679E-16	1.346619E-16
6.980000E+03	2.637195E-16	1.333805E-16
6.990000E+03	2.614712E-16	1.320797E-16
7.000000E+03	2.592181E-16	1.307578E-16
7.010000E+03	2.569655E-16	1.294179E-16
7.020000E+03	2.547086E-16	1.280583E-16
7.030000E+03	2.524479E-16	1.266800E-16
7.040000E+03	2.501887E-16	1.252862E-16
7.050000E+03	2.479265E-16	1.238755E-16
7.060000E+03	2.456620E-16	1.224490E-16
7.070000E+03	2.434007E-16	1.210101E-16
7.080000E+03	2.411334E-16	1.195552E-16
7.090000E+03	2.388709E-16	1.180903E-16
7.100000E+03	2.366090E-16	1.166144E-16
7.110000E+03	2.343489E-16	1.151289E-16
7.120000E+03	2.320916E-16	1.136352E-16
7.130000E+03	2.298383E-16	1.121348E-16
7.140000E+03	2.275903E-16	1.106295E-16
7.150000E+03	2.253490E-16	1.091209E-16
7.160000E+03	2.231112E-16	1.076086E-16
7.170000E+03	2.208832E-16	1.060966E-16
7.180000E+03	2.186665E-16	1.045868E-16
7.190000E+03	2.164627E-16	1.030812E-16
7.200000E+03	2.142694E-16	1.015797E-16
7.210000E+03	2.120926E-16	1.000865E-16
7.220000E+03	2.099299E-16	9.860154E-17
7.230000E+03	2.077875E-16	9.712911E-17
7.240000E+03	2.056591E-16	9.566745E-17
7.250000E+03	2.035590E-16	9.422460E-17
7.260000E+03	2.014769E-16	9.279701E-17
7.270000E+03	1.994229E-16	9.139070E-17
7.280000E+03	1.973909E-16	9.000420E-17
7.290000E+03	1.953910E-16	8.864340E-17
7.300000E+03	1.934209E-16	8.730865E-17
7.310000E+03	1.914788E-16	8.600036E-17
7.320000E+03	1.895742E-16	8.472414E-17
7.330000E+03	1.877010E-16	8.347858E-17
7.340000E+03	1.858649E-16	8.226740E-17
7.350000E+03	1.840674E-16	8.109248E-17
7.360000E+03	1.823099E-16	7.995564E-17
7.370000E+03	1.805900E-16	7.885696E-17
7.380000E+03	1.789091E-16	7.779808E-17
7.390000E+03	1.772719E-16	7.678208E-17
7.400000E+03	1.756795E-16	7.581028E-17
7.410000E+03	1.741289E-16	7.488231E-17
7.420000E+03	1.726246E-16	7.400076E-17
7.430000E+03	1.711635E-16	7.316497E-17
7.440000E+03	1.697461E-16	7.237567E-17
7.450000E+03	1.683727E-16	7.163340E-17
7.460000E+03	1.670468E-16	7.093995E-17
7.470000E+03	1.657649E-16	7.029402E-17
7.480000E+03	1.645269E-16	6.969556E-17
7.490000E+03	1.633324E-16	6.914434E-17
7.500000E+03	1.621844E-16	6.864136E-17
7.510000E+03	1.610756E-16	6.818317E-17
7.520000E+03	1.600119E-16	6.777179E-17
7.530000E+03	1.589890E-16	6.740482E-17
7.540000E+03	1.580029E-16	6.707975E-17
7.550000E+03	1.570589E-16	6.679805E-17
7.560000E+03	1.561525E-16	6.655688E-17
7.570000E+03	1.552826E-16	6.635465E-17
7.580000E+03	1.544478E-16	6.618967E-17
7.590000E+03	1.536466E-16	6.606014E-17
7.600000E+03	1.528745E-16	6.596279E-17
7.610000E+03	1.521361E-16	6.589841E-17
7.620000E+03	1.514269E-16	6.586361E-17
7.630000E+03	1.507453E-16	6.585635E-17
7.640000E+03	1.500864E-16	6.587318E-17
7.650000E+03	1.494551E-16	6.591477E-17
7.660000E+03	1.488435E-16	6.597630E-17
7.670000E+03	1.482531E-16	6.605711E-17
7.680000E+03	1.476857E-16	6.615659E-17
7.690000E+03	1.471335E-16	6.627001E-17
7.700000E+03	1.465952E-16	6.639547E-17
7.710000E+03	1.460756E-16	6.653396E-17
7.720000E+03	1.455705E-16	6.668235E-17
7.730000E+03	1.450755E-16	6.683759E-17
7.740000E+03	1.445959E-16	6.700098E-17
7.750000E+03	1.441246E-16	6.716824E-17
7.760000E+03	1.436607E-16	6.733805E-17
