#wls	flux	fluxerr
1.600000E+03	2.059006E-17	1.581585E-17
1.640000E+03	2.085213E-17	1.601231E-17
1.680000E+03	2.112773E-17	1.621843E-17
1.720000E+03	2.142875E-17	1.644322E-17
1.760000E+03	2.174902E-17	1.668183E-17
1.800000E+03	2.208962E-17	1.693497E-17
1.840000E+03	2.245930E-17	1.720917E-17
1.880000E+03	2.285570E-17	1.750246E-17
1.920000E+03	2.328024E-17	1.781571E-17
1.960000E+03	2.373441E-17	1.814986E-17
2.000000E+03	2.422377E-17	1.850890E-17
2.040000E+03	2.474604E-17	1.889080E-17
2.080000E+03	2.530704E-17	1.929969E-17
2.120000E+03	2.590866E-17	1.973667E-17
2.160000E+03	2.654864E-17	2.019961E-17
2.200000E+03	2.723740E-17	2.069599E-17
2.240000E+03	2.797275E-17	2.122368E-17
2.280000E+03	2.876116E-17	2.178705E-17
2.320000E+03	2.960025E-17	2.238369E-17
2.360000E+03	3.050117E-17	2.302140E-17
2.400000E+03	3.145666E-17	2.369399E-17
2.440000E+03	3.247791E-17	2.440914E-17
2.480000E+03	3.356178E-17	2.516368E-17
2.520000E+03	3.471449E-17	2.596142E-17
2.560000E+03	3.593708E-17	2.680223E-17
2.600000E+03	3.723536E-17	2.768946E-17
2.640000E+03	3.860412E-17	2.861830E-17
2.680000E+03	4.004798E-17	2.959114E-17
2.720000E+03	4.157110E-17	3.061007E-17
2.760000E+03	4.316560E-17	3.166828E-17
2.800000E+03	4.483372E-17	3.276645E-17
2.840000E+03	4.657091E-17	3.390036E-17
2.880000E+03	4.837741E-17	3.506931E-17
2.920000E+03	5.024004E-17	3.626302E-17
2.960000E+03	5.216918E-17	3.748830E-17
3.000000E+03	5.414292E-17	3.872878E-17
3.010000E+03	5.464045E-17	3.903918E-17
3.020000E+03	5.514315E-17	3.935219E-17
3.030000E+03	5.565088E-17	3.966771E-17
3.040000E+03	5.615693E-17	3.998096E-17
3.050000E+03	5.666766E-17	4.029644E-17
3.060000E+03	5.717629E-17	4.060936E-17
3.070000E+03	5.768924E-17	4.092425E-17
3.080000E+03	5.820633E-17	4.124098E-17
3.090000E+03	5.872073E-17	4.155471E-17
3.100000E+03	5.923890E-17	4.187001E-17
3.110000E+03	5.976068E-17	4.218676E-17
3.120000E+03	6.027914E-17	4.250007E-17
3.130000E+03	6.080083E-17	4.281455E-17
3.140000E+03	6.131879E-17	4.312530E-17
3.150000E+03	6.184639E-17	4.344171E-17
3.160000E+03	6.236988E-17	4.375413E-17
3.170000E+03	6.288905E-17	4.406241E-17
3.180000E+03	6.341052E-17	4.437119E-17
3.190000E+03	6.393412E-17	4.468036E-17
3.200000E+03	6.445971E-17	4.498978E-17
3.210000E+03	6.498711E-17	4.529934E-17
3.220000E+03	6.550927E-17	4.560413E-17
3.230000E+03	6.603292E-17	4.590881E-17
3.240000E+03	6.655099E-17	4.620849E-17
3.250000E+03	6.707023E-17	4.650785E-17
3.260000E+03	6.759747E-17	4.681161E-17
3.270000E+03	6.811173E-17	4.710523E-17
3.280000E+03	6.863374E-17	4.740306E-17
3.290000E+03	6.914946E-17	4.769539E-17
3.300000E+03	6.967273E-17	4.799176E-17
3.310000E+03	7.018950E-17	4.828246E-17
3.320000E+03	7.069966E-17	4.856744E-17
3.330000E+03	7.121712E-17	4.885624E-17
3.340000E+03	7.172782E-17	4.913921E-17
3.350000E+03	7.223870E-17	4.942108E-17
3.360000E+03	7.274971E-17	4.970182E-17
3.370000E+03	7.326082E-17	4.998139E-17
3.380000E+03	7.377201E-17	5.025976E-17
3.390000E+03	7.427624E-17	5.053213E-17
3.400000E+03	7.478053E-17	5.080328E-17
3.410000E+03	7.528490E-17	5.107318E-17
3.420000E+03	7.578937E-17	5.134184E-17
3.430000E+03	7.629398E-17	5.160927E-17
3.440000E+03	7.679877E-17	5.187549E-17
3.450000E+03	7.730381E-17	5.214050E-17
3.460000E+03	7.780216E-17	5.239963E-17
3.470000E+03	7.830092E-17	5.265764E-17
3.480000E+03	7.880020E-17	5.291458E-17
3.490000E+03	7.930709E-17	5.317519E-17
3.500000E+03	7.980075E-17	5.342547E-17
3.510000E+03	8.030228E-17	5.367954E-17
3.520000E+03	8.080484E-17	5.393280E-17
3.530000E+03	8.130859E-17	5.418532E-17
3.540000E+03	8.180673E-17	5.443254E-17
3.550000E+03	8.231338E-17	5.468386E-17
3.560000E+03	8.281480E-17	5.493011E-17
3.570000E+03	8.332512E-17	5.518063E-17
3.580000E+03	8.383063E-17	5.542633E-17
3.590000E+03	8.433852E-17	5.567192E-17
3.600000E+03	8.484901E-17	5.591754E-17
3.610000E+03	8.536234E-17	5.616332E-17
3.620000E+03	8.587876E-17	5.640938E-17
3.630000E+03	8.639851E-17	5.665586E-17
3.640000E+03	8.691497E-17	5.689841E-17
3.650000E+03	8.744217E-17	5.714618E-17
3.660000E+03	8.797351E-17	5.739481E-17
3.670000E+03	8.850239E-17	5.763999E-17
3.680000E+03	8.904282E-17	5.789082E-17
3.690000E+03	8.958137E-17	5.813853E-17
3.700000E+03	9.013201E-17	5.839218E-17
3.710000E+03	9.068137E-17	5.864306E-17
3.720000E+03	9.123657E-17	5.889578E-17
3.730000E+03	9.179791E-17	5.915050E-17
3.740000E+03	9.236566E-17	5.940739E-17
3.750000E+03	9.294013E-17	5.966661E-17
3.760000E+03	9.352160E-17	5.992833E-17
3.770000E+03	9.410360E-17	6.018839E-17
3.780000E+03	9.469994E-17	6.045562E-17
3.790000E+03	9.530414E-17	6.072585E-17
3.800000E+03	9.590975E-17	6.099496E-17
3.810000E+03	9.652378E-17	6.126742E-17
3.820000E+03	9.714652E-17	6.154340E-17
3.830000E+03	9.777824E-17	6.182306E-17
3.840000E+03	9.841918E-17	6.210655E-17
3.850000E+03	9.906962E-17	6.239403E-17
3.860000E+03	9.972310E-17	6.268146E-17
3.870000E+03	1.003933E-16	6.297741E-17
3.880000E+03	1.010670E-16	6.327363E-17
3.890000E+03	1.017512E-16	6.357447E-17
3.900000E+03	1.024461E-16	6.388008E-17
3.910000E+03	1.031452E-16	6.418645E-17
3.920000E+03	1.038555E-16	6.449789E-17
3.930000E+03	1.045837E-16	6.481867E-17
3.940000E+03	1.053102E-16	6.513653E-17
3.950000E+03	1.060551E-16	6.546399E-17
3.960000E+03	1.068052E-16	6.579295E-17
3.970000E+03	1.075674E-16	6.612764E-17
3.980000E+03	1.083418E-16	6.646819E-17
3.990000E+03	1.091220E-16	6.681064E-17
4.000000E+03	1.099148E-16	6.715919E-17
4.010000E+03	1.107203E-16	6.751394E-17
4.020000E+03	1.115320E-16	6.787098E-17
4.030000E+03	1.123567E-16	6.823444E-17
4.040000E+03	1.131879E-16	6.860040E-17
4.050000E+03	1.140323E-16	6.897300E-17
4.060000E+03	1.148834E-16	6.934832E-17
4.070000E+03	1.157480E-16	6.973047E-17
4.080000E+03	1.166262E-16	7.011953E-17
4.090000E+03	1.175114E-16	7.051160E-17
4.100000E+03	1.184038E-16	7.090676E-17
4.110000E+03	1.193101E-16	7.130909E-17
4.120000E+03	1.202238E-16	7.171469E-17
4.130000E+03	1.211515E-16	7.212759E-17
4.140000E+03	1.220801E-16	7.253996E-17
4.150000E+03	1.230297E-16	7.296374E-17
4.160000E+03	1.239803E-16	7.338712E-17
4.170000E+03	1.249454E-16	7.381807E-17
4.180000E+03	1.259184E-16	7.425271E-17
4.190000E+03	1.268994E-16	7.469109E-17
4.200000E+03	1.278952E-16	7.513720E-17
4.210000E+03	1.288925E-16	7.558322E-17
4.220000E+03	1.299048E-16	7.603705E-17
4.230000E+03	1.309256E-16	7.649482E-17
4.240000E+03	1.319548E-16	7.695656E-17
4.250000E+03	1.329860E-16	7.741838E-17
4.260000E+03	1.340326E-16	7.788816E-17
4.270000E+03	1.350881E-16	7.836200E-17
4.280000E+03	1.361526E-16	7.883993E-17
4.290000E+03	1.372263E-16	7.932196E-17
4.300000E+03	1.383092E-16	7.980812E-17
4.310000E+03	1.393949E-16	8.029452E-17
4.320000E+03	1.404969E-16	8.078897E-17
4.330000E+03	1.416019E-16	8.128368E-17
4.340000E+03	1.427168E-16	8.178255E-17
4.350000E+03	1.438419E-16	8.228558E-17
4.360000E+03	1.449704E-16	8.278887E-17
4.370000E+03	1.461095E-16	8.329632E-17
4.380000E+03	1.472594E-16	8.380792E-17
4.390000E+03	1.484134E-16	8.431977E-17
4.400000E+03	1.495785E-16	8.483574E-17
4.410000E+03	1.507552E-16	8.535583E-17
4.420000E+03	1.519367E-16	8.587611E-17
4.430000E+03	1.531303E-16	8.640047E-17
4.440000E+03	1.543292E-16	8.692498E-17
4.450000E+03	1.555408E-16	8.745353E-17
4.460000E+03	1.567583E-16	8.798218E-17
4.470000E+03	1.579822E-16	8.851089E-17
4.480000E+03	1.592198E-16	8.904356E-17
4.490000E+03	1.604643E-16	8.957622E-17
4.500000E+03	1.617163E-16	9.010885E-17
4.510000E+03	1.629830E-16	9.064531E-17
4.520000E+03	1.642580E-16	9.118164E-17
4.530000E+03	1.655415E-16	9.171779E-17
4.540000E+03	1.668413E-16	9.225763E-17
4.550000E+03	1.681434E-16	9.279324E-17
4.560000E+03	1.694626E-16	9.333240E-17
4.570000E+03	1.707923E-16	9.387111E-17
4.580000E+03	1.721329E-16	9.440928E-17
4.590000E+03	1.734922E-16	9.495075E-17
4.600000E+03	1.748564E-16	9.548752E-17
4.610000E+03	1.762330E-16	9.602342E-17
4.620000E+03	1.776228E-16	9.655829E-17
4.630000E+03	1.790334E-16	9.709593E-17
4.640000E+03	1.804510E-16	9.762826E-17
4.650000E+03	1.818908E-16	9.816299E-17
4.660000E+03	1.833385E-16	9.869198E-17
4.670000E+03	1.848021E-16	9.921894E-17
4.680000E+03	1.862897E-16	9.974756E-17
4.690000E+03	1.877869E-16	1.002696E-16
4.700000E+03	1.893017E-16	1.007886E-16
4.710000E+03	1.908347E-16	1.013044E-16
4.720000E+03	1.923864E-16	1.018163E-16
4.730000E+03	1.939498E-16	1.023200E-16
4.740000E+03	1.955406E-16	1.028230E-16
4.750000E+03	1.971439E-16	1.033167E-16
4.760000E+03	1.987755E-16	1.038085E-16
4.770000E+03	2.004206E-16	1.042898E-16
4.780000E+03	2.020794E-16	1.047597E-16
4.790000E+03	2.037678E-16	1.052256E-16
4.800000E+03	2.054784E-16	1.056826E-16
4.810000E+03	2.072036E-16	1.061257E-16
4.820000E+03	2.089514E-16	1.065581E-16
4.830000E+03	2.107220E-16	1.069786E-16
4.840000E+03	2.125076E-16	1.073821E-16
4.850000E+03	2.143242E-16	1.077755E-16
4.860000E+03	2.161557E-16	1.081494E-16
4.870000E+03	2.180100E-16	1.085065E-16
4.880000E+03	2.198872E-16	1.088453E-16
4.890000E+03	2.217787E-16	1.091603E-16
4.900000E+03	2.236923E-16	1.094540E-16
4.910000E+03	2.256279E-16	1.097245E-16
4.920000E+03	2.275848E-16	1.099702E-16
4.930000E+03	2.295542E-16	1.101851E-16
4.940000E+03	2.315437E-16	1.103713E-16
4.950000E+03	2.335528E-16	1.105267E-16
4.960000E+03	2.355805E-16	1.106492E-16
4.970000E+03	2.376174E-16	1.107326E-16
4.980000E+03	2.396710E-16	1.107785E-16
4.990000E+03	2.417401E-16	1.107845E-16
5.000000E+03	2.438237E-16	1.107482E-16
5.010000E+03	2.459116E-16	1.106631E-16
5.020000E+03	2.480200E-16	1.105344E-16
5.030000E+03	2.501296E-16	1.103514E-16
5.040000E+03	2.522388E-16	1.101116E-16
5.050000E+03	2.543637E-16	1.098198E-16
5.060000E+03	2.564845E-16	1.094654E-16
5.070000E+03	2.586082E-16	1.090492E-16
5.080000E+03	2.607328E-16	1.085685E-16
5.090000E+03	2.628470E-16	1.080162E-16
5.100000E+03	2.649667E-16	1.073969E-16
5.110000E+03	2.670713E-16	1.067001E-16
5.120000E+03	2.691674E-16	1.059264E-16
5.130000E+03	2.712526E-16	1.050727E-16
5.140000E+03	2.733145E-16	1.041324E-16
5.150000E+03	2.753695E-16	1.031097E-16
5.160000E+03	2.773955E-16	1.019944E-16
5.170000E+03	2.793991E-16	1.007872E-16
5.180000E+03	2.813773E-16	9.948524E-17
5.190000E+03	2.833268E-16	9.808577E-17
5.200000E+03	2.852345E-16	9.658280E-17
5.210000E+03	2.871069E-16	9.497727E-17
5.220000E+03	2.889504E-16	9.327005E-17
5.230000E+03	2.907417E-16	9.145250E-17
5.240000E+03	2.924869E-16	8.952596E-17
5.250000E+03	2.941825E-16	8.748873E-17
5.260000E+03	2.958145E-16	8.533652E-17
5.270000E+03	2.973991E-16	8.307417E-17
5.280000E+03	2.989224E-16	8.069802E-17
5.290000E+03	3.003702E-16	7.820519E-17
5.300000E+03	3.017484E-16	7.559880E-17
5.310000E+03	3.030633E-16	7.288228E-17
5.320000E+03	3.042899E-16	7.005220E-17
5.330000E+03	3.054345E-16	6.711365E-17
5.340000E+03	3.064926E-16	6.407019E-17
5.350000E+03	3.074599E-16	6.092666E-17
5.360000E+03	3.083322E-16	5.768953E-17
5.370000E+03	3.091049E-16	5.436730E-17
5.380000E+03	3.097739E-16	5.097116E-17
5.390000E+03	3.103348E-16	4.751585E-17
5.400000E+03	3.107834E-16	4.402095E-17
5.410000E+03	3.111156E-16	4.051282E-17
5.420000E+03	3.113167E-16	3.702617E-17
5.430000E+03	3.114040E-16	3.361346E-17
5.440000E+03	3.113633E-16	3.034325E-17
5.450000E+03	3.111912E-16	2.731396E-17
5.460000E+03	3.108848E-16	2.466148E-17
5.470000E+03	3.104416E-16	2.256235E-17
5.480000E+03	3.098599E-16	2.121525E-17
5.490000E+03	3.091497E-16	2.078465E-17
5.500000E+03	3.082918E-16	2.131946E-17
5.510000E+03	3.072998E-16	2.272543E-17
5.520000E+03	3.061890E-16	2.481461E-17
5.530000E+03	3.049450E-16	2.738206E-17
5.540000E+03	3.035947E-16	3.025878E-17
5.550000E+03	3.021349E-16	3.331655E-17
5.560000E+03	3.005724E-16	3.646498E-17
5.570000E+03	2.989145E-16	3.964097E-17
5.580000E+03	2.971682E-16	4.280040E-17
5.590000E+03	2.953402E-16	4.591224E-17
5.600000E+03	2.934474E-16	4.895616E-17
5.610000E+03	2.914861E-16	5.191510E-17
5.620000E+03	2.894629E-16	5.477800E-17
5.630000E+03	2.873838E-16	5.753713E-17
5.640000E+03	2.852547E-16	6.018724E-17
5.650000E+03	2.830905E-16	6.272707E-17
5.660000E+03	2.808870E-16	6.515276E-17
5.670000E+03	2.786493E-16	6.746350E-17
5.680000E+03	2.763819E-16	6.965938E-17
5.690000E+03	2.740985E-16	7.174357E-17
5.700000E+03	2.717940E-16	7.371516E-17
5.710000E+03	2.694721E-16	7.557592E-17
5.720000E+03	2.671455E-16	7.733057E-17
5.730000E+03	2.647996E-16	7.897641E-17
5.740000E+03	2.624640E-16	8.052398E-17
5.750000E+03	2.601150E-16	8.196817E-17
5.760000E+03	2.577728E-16	8.331732E-17
5.770000E+03	2.554310E-16	8.457176E-17
5.780000E+03	2.531004E-16	8.573743E-17
5.790000E+03	2.507660E-16	8.681176E-17
5.800000E+03	2.484549E-16	8.780661E-17
5.810000E+03	2.461435E-16	8.871642E-17
5.820000E+03	2.438584E-16	8.955323E-17
5.830000E+03	2.415761E-16	9.031125E-17
5.840000E+03	2.393143E-16	9.099959E-17
5.850000E+03	2.370661E-16	9.161831E-17
5.860000E+03	2.348404E-16	9.217351E-17
5.870000E+03	2.326381E-16	9.266821E-17
5.880000E+03	2.304445E-16	9.309911E-17
5.890000E+03	2.282836E-16	9.347845E-17
5.900000E+03	2.261330E-16	9.379962E-17
5.910000E+03	2.240088E-16	9.407167E-17
5.920000E+03	2.219115E-16	9.429728E-17
5.930000E+03	2.198340E-16	9.447591E-17
5.940000E+03	2.177844E-16	9.461328E-17
5.950000E+03	2.157557E-16	9.470868E-17
5.960000E+03	2.137557E-16	9.476771E-17
5.970000E+03	2.117774E-16	9.478952E-17
5.980000E+03	2.098284E-16	9.477956E-17
5.990000E+03	2.079090E-16	9.474003E-17
6.000000E+03	2.060124E-16	9.466985E-17
6.010000E+03	2.041388E-16	9.457107E-17
6.020000E+03	2.023023E-16	9.445206E-17
6.030000E+03	2.004825E-16	9.430511E-17
6.040000E+03	1.986999E-16	9.414164E-17
6.050000E+03	1.969411E-16	9.395701E-17
6.060000E+03	1.952061E-16	9.375288E-17
6.070000E+03	1.935083E-16	9.353722E-17
6.080000E+03	1.918344E-16	9.330517E-17
6.090000E+03	1.901844E-16	9.305817E-17
6.100000E+03	1.885648E-16	9.280076E-17
6.110000E+03	1.869752E-16	9.253421E-17
6.120000E+03	1.854156E-16	9.225971E-17
6.130000E+03	1.838793E-16	9.197525E-17
6.140000E+03	1.823725E-16	9.168501E-17
6.150000E+03	1.808884E-16	9.138683E-17
6.160000E+03	1.794393E-16	9.108786E-17
6.170000E+03	1.780122E-16	9.078268E-17
6.180000E+03	1.766129E-16	9.047514E-17
6.190000E+03	1.752349E-16	9.016281E-17
6.200000E+03	1.738837E-16	8.984941E-17
6.210000E+03	1.725586E-16	8.953547E-17
6.220000E+03	1.712591E-16	8.922145E-17
6.230000E+03	1.699786E-16	8.890468E-17
6.240000E+03	1.687223E-16	8.858858E-17
6.250000E+03	1.674896E-16	8.827342E-17
6.260000E+03	1.662795E-16	8.795942E-17
6.270000E+03	1.650914E-16	8.764675E-17
6.280000E+03	1.639188E-16	8.733250E-17
6.290000E+03	1.627665E-16	8.701975E-17
6.300000E+03	1.616337E-16	8.670855E-17
6.310000E+03	1.605196E-16	8.639884E-17
6.320000E+03	1.594233E-16	8.609058E-17
6.330000E+03	1.583383E-16	8.578067E-17
6.340000E+03	1.572694E-16	8.547198E-17
6.350000E+03	1.562157E-16	8.516434E-17
6.360000E+03	1.551763E-16	8.485756E-17
6.370000E+03	1.541503E-16	8.455141E-17
6.380000E+03	1.531369E-16	8.424566E-17
6.390000E+03	1.521351E-16	8.394005E-17
6.400000E+03	1.511390E-16	8.363136E-17
6.410000E+03	1.501582E-16	8.332520E-17
6.420000E+03	1.491814E-16	8.301540E-17
6.430000E+03	1.482131E-16	8.270458E-17
6.440000E+03	1.472527E-16	8.239246E-17
6.450000E+03	1.463044E-16	8.208159E-17
6.460000E+03	1.453573E-16	8.176589E-17
6.470000E+03	1.444159E-16	8.144793E-17
6.480000E+03	1.434745E-16	8.112455E-17
6.490000E+03	1.425427E-16	8.080119E-17
6.500000E+03	1.416148E-16	8.047469E-17
6.510000E+03	1.406903E-16	8.014475E-17
6.520000E+03	1.397687E-16	7.981111E-17
6.530000E+03	1.388495E-16	7.947351E-17
6.540000E+03	1.379325E-16	7.913169E-17
6.550000E+03	1.370121E-16	7.878261E-17
6.560000E+03	1.360981E-16	7.843169E-17
6.570000E+03	1.351850E-16	7.807589E-17
6.580000E+03	1.342727E-16	7.771503E-17
6.590000E+03	1.333609E-16	7.734894E-17
6.600000E+03	1.324494E-16	7.697746E-17
6.610000E+03	1.315380E-16	7.660045E-17
6.620000E+03	1.306266E-16	7.621779E-17
6.630000E+03	1.297150E-16	7.582938E-17
6.640000E+03	1.288032E-16	7.543512E-17
6.650000E+03	1.278958E-16	7.503765E-17
6.660000E+03	1.269833E-16	7.463150E-17
6.670000E+03	1.260706E-16	7.421933E-17
6.680000E+03	1.251619E-16	7.380380E-17
6.690000E+03	1.242530E-16	7.338221E-17
6.700000E+03	1.233391E-16	7.295191E-17
6.710000E+03	1.224295E-16	7.251823E-17
6.720000E+03	1.215197E-16	7.207855E-17
6.730000E+03	1.206098E-16	7.163291E-17
6.740000E+03	1.196998E-16	7.118138E-17
6.750000E+03	1.187942E-16	7.072660E-17
6.760000E+03	1.178844E-16	7.026349E-17
6.770000E+03	1.169792E-16	6.979729E-17
6.780000E+03	1.160701E-16	6.932299E-17
6.790000E+03	1.151658E-16	6.884579E-17
6.800000E+03	1.142621E-16	6.836327E-17
6.810000E+03	1.133592E-16	6.787556E-17
6.820000E+03	1.124573E-16	6.738281E-17
6.830000E+03	1.115605E-16	6.688764E-17
6.840000E+03	1.106609E-16	6.638526E-17
6.850000E+03	1.097666E-16	6.588076E-17
6.860000E+03	1.088739E-16	6.537185E-17
6.870000E+03	1.079829E-16	6.485872E-17
6.880000E+03	1.070936E-16	6.434156E-17
6.890000E+03	1.062064E-16	6.382057E-17
6.900000E+03	1.053212E-16	6.329596E-17
6.910000E+03	1.044423E-16	6.277027E-17
6.920000E+03	1.035620E-16	6.223906E-17
6.930000E+03	1.026881E-16	6.170718E-17
6.940000E+03	1.018170E-16	6.117256E-17
6.950000E+03	1.009488E-16	6.063542E-17
6.960000E+03	1.000838E-16	6.009603E-17
6.970000E+03	9.922575E-17	5.955686E-17
6.980000E+03	9.836747E-17	5.901372E-17
6.990000E+03	9.751652E-17	5.847129E-17
7.000000E+03	9.666576E-17	5.792548E-17
7.010000E+03	9.582265E-17	5.738091E-17
7.020000E+03	9.498375E-17	5.683570E-17
7.030000E+03	9.414926E-17	5.629015E-17
7.040000E+03	9.331938E-17	5.574455E-17
7.050000E+03	9.249433E-17	5.519922E-17
7.060000E+03	9.167777E-17	5.465653E-17
7.070000E+03	9.086300E-17	5.411268E-17
7.080000E+03	9.005371E-17	5.357006E-17
7.090000E+03	8.925351E-17	5.303102E-17
7.100000E+03	8.845586E-17	5.249186E-17
7.110000E+03	8.766770E-17	5.195693E-17
7.120000E+03	8.688591E-17	5.142455E-17
7.130000E+03	8.611073E-17	5.089508E-17
7.140000E+03	8.533916E-17	5.036696E-17
7.150000E+03	8.457795E-17	4.984439E-17
7.160000E+03	8.382408E-17	4.932578E-17
7.170000E+03	8.307780E-17	4.881151E-17
7.180000E+03	8.233936E-17	4.830191E-17
7.190000E+03	8.160589E-17	4.779552E-17
7.200000E+03	8.088389E-17	4.729636E-17
7.210000E+03	8.017046E-17	4.680293E-17
7.220000E+03	7.946584E-17	4.631558E-17
7.230000E+03	7.877026E-17	4.583464E-17
7.240000E+03	7.808098E-17	4.535873E-17
7.250000E+03	7.740421E-17	4.489164E-17
7.260000E+03	7.673423E-17	4.443025E-17
7.270000E+03	7.607715E-17	4.397829E-17
7.280000E+03	7.542731E-17	4.353266E-17
7.290000E+03	7.479074E-17	4.309702E-17
7.300000E+03	7.416183E-17	4.266832E-17
7.310000E+03	7.354368E-17	4.224849E-17
7.320000E+03	7.293643E-17	4.183779E-17
7.330000E+03	7.234026E-17	4.143644E-17
7.340000E+03	7.175251E-17	4.104310E-17
7.350000E+03	7.117889E-17	4.066114E-17
7.360000E+03	7.061400E-17	4.028760E-17
7.370000E+03	7.006341E-17	3.992578E-17
7.380000E+03	6.952176E-17	3.957273E-17
7.390000E+03	6.899187E-17	3.923013E-17
7.400000E+03	6.847112E-17	3.889660E-17
7.410000E+03	6.796491E-17	3.857527E-17
7.420000E+03	6.746795E-17	3.826319E-17
7.430000E+03	6.698292E-17	3.796194E-17
7.440000E+03	6.650982E-17	3.767154E-17
7.450000E+03	6.604605E-17	3.739055E-17
7.460000E+03	6.559675E-17	3.712190E-17
7.470000E+03	6.515674E-17	3.686265E-17
7.480000E+03	6.472599E-17	3.661278E-17
7.490000E+03	6.430953E-17	3.637511E-17
7.500000E+03	6.390221E-17	3.614668E-17
7.510000E+03	6.350645E-17	3.592884E-17
7.520000E+03	6.312216E-17	3.572146E-17
7.530000E+03	6.274673E-17	3.552301E-17
7.540000E+03	6.238253E-17	3.533475E-17
7.550000E+03	6.202943E-17	3.515652E-17
7.560000E+03	6.168481E-17	3.498674E-17
7.570000E+03	6.135100E-17	3.482663E-17
7.580000E+03	6.102782E-17	3.467597E-17
7.590000E+03	6.071269E-17	3.453318E-17
7.600000E+03	6.040786E-17	3.439941E-17
7.610000E+03	6.011075E-17	3.427307E-17
7.620000E+03	5.982599E-17	3.415664E-17
7.630000E+03	5.954620E-17	3.404580E-17
7.640000E+03	5.927838E-17	3.394439E-17
7.650000E+03	5.901758E-17	3.384943E-17
7.660000E+03	5.876363E-17	3.376066E-17
7.670000E+03	5.852107E-17	3.368056E-17
7.680000E+03	5.828266E-17	3.360480E-17
7.690000E+03	5.805527E-17	3.353719E-17
7.700000E+03	5.783404E-17	3.347477E-17
7.710000E+03	5.761882E-17	3.341731E-17
7.720000E+03	5.741177E-17	3.336590E-17
7.730000E+03	5.721274E-17	3.332033E-17
7.740000E+03	5.701926E-17	3.327900E-17
7.750000E+03	5.683352E-17	3.324305E-17
7.760000E+03	5.665306E-17	3.321091E-17
