#wls	flux	fluxerr
1.600000E+03	6.264571E-18	4.819816E-18
1.640000E+03	6.300715E-18	4.847262E-18
1.680000E+03	6.339471E-18	4.876676E-18
1.720000E+03	6.379789E-18	4.907244E-18
1.760000E+03	6.422847E-18	4.939867E-18
1.800000E+03	6.467583E-18	4.973725E-18
1.840000E+03	6.514047E-18	5.008851E-18
1.880000E+03	6.563431E-18	5.046154E-18
1.920000E+03	6.614648E-18	5.084794E-18
1.960000E+03	6.668899E-18	5.125684E-18
2.000000E+03	6.725077E-18	5.167971E-18
2.040000E+03	6.784388E-18	5.212571E-18
2.080000E+03	6.845704E-18	5.258610E-18
2.120000E+03	6.909047E-18	5.306097E-18
2.160000E+03	6.976824E-18	5.356873E-18
2.200000E+03	7.045481E-18	5.408199E-18
2.240000E+03	7.117418E-18	5.461908E-18
2.280000E+03	7.192655E-18	5.518007E-18
2.320000E+03	7.271202E-18	5.576492E-18
2.360000E+03	7.350574E-18	5.635449E-18
2.400000E+03	7.434465E-18	5.697700E-18
2.440000E+03	7.520360E-18	5.761307E-18
2.480000E+03	7.609477E-18	5.827191E-18
2.520000E+03	7.700495E-18	5.894332E-18
2.560000E+03	7.794634E-18	5.963654E-18
2.600000E+03	7.890535E-18	6.034107E-18
2.640000E+03	7.989427E-18	6.106620E-18
2.680000E+03	8.091250E-18	6.181136E-18
2.720000E+03	8.194596E-18	6.256571E-18
2.760000E+03	8.300724E-18	6.333875E-18
2.800000E+03	8.408206E-18	6.411950E-18
2.840000E+03	8.519723E-18	6.492828E-18
2.880000E+03	8.631089E-18	6.573307E-18
2.920000E+03	8.746435E-18	6.656525E-18
2.960000E+03	8.862961E-18	6.740336E-18
3.000000E+03	8.980662E-18	6.824726E-18
3.010000E+03	9.010993E-18	6.846460E-18
3.020000E+03	9.041402E-18	6.868234E-18
3.030000E+03	9.071892E-18	6.890048E-18
3.040000E+03	9.102463E-18	6.911902E-18
3.050000E+03	9.131668E-18	6.932697E-18
3.060000E+03	9.162403E-18	6.954633E-18
3.070000E+03	9.193225E-18	6.976613E-18
3.080000E+03	9.224134E-18	6.998637E-18
3.090000E+03	9.255134E-18	7.020708E-18
3.100000E+03	9.286227E-18	7.042826E-18
3.110000E+03	9.318885E-18	7.066108E-18
3.120000E+03	9.350175E-18	7.088329E-18
3.130000E+03	9.381566E-18	7.110604E-18
3.140000E+03	9.413062E-18	7.132934E-18
3.150000E+03	9.444665E-18	7.155322E-18
3.160000E+03	9.477867E-18	7.178897E-18
3.170000E+03	9.509702E-18	7.201411E-18
3.180000E+03	9.541658E-18	7.223991E-18
3.190000E+03	9.575234E-18	7.247774E-18
3.200000E+03	9.607448E-18	7.270499E-18
3.210000E+03	9.641300E-18	7.294437E-18
3.220000E+03	9.673792E-18	7.317320E-18
3.230000E+03	9.707941E-18	7.341430E-18
3.240000E+03	9.740735E-18	7.364488E-18
3.250000E+03	9.775205E-18	7.388785E-18
3.260000E+03	9.808326E-18	7.412034E-18
3.270000E+03	9.843144E-18	7.436537E-18
3.280000E+03	9.878148E-18	7.461152E-18
3.290000E+03	9.911816E-18	7.484728E-18
3.300000E+03	9.947213E-18	7.509580E-18
3.310000E+03	9.982821E-18	7.534560E-18
3.320000E+03	1.001865E-17	7.559675E-18
3.330000E+03	1.005470E-17	7.584931E-18
3.340000E+03	1.008945E-17	7.609165E-18
3.350000E+03	1.012599E-17	7.634720E-18
3.360000E+03	1.016278E-17	7.660435E-18
3.370000E+03	1.019984E-17	7.686319E-18
3.380000E+03	1.023719E-17	7.712378E-18
3.390000E+03	1.027482E-17	7.738621E-18
3.400000E+03	1.031275E-17	7.765056E-18
3.410000E+03	1.035100E-17	7.791691E-18
3.420000E+03	1.038958E-17	7.818535E-18
3.430000E+03	1.043008E-17	7.846788E-18
3.440000E+03	1.046935E-17	7.874078E-18
3.450000E+03	1.050899E-17	7.901605E-18
3.460000E+03	1.054900E-17	7.929378E-18
3.470000E+03	1.058942E-17	7.957407E-18
3.480000E+03	1.063184E-17	7.986907E-18
3.490000E+03	1.067310E-17	8.015482E-18
3.500000E+03	1.071479E-17	8.044344E-18
3.510000E+03	1.075856E-17	8.074719E-18
3.520000E+03	1.080118E-17	8.104193E-18
3.530000E+03	1.084430E-17	8.133990E-18
3.540000E+03	1.088956E-17	8.165344E-18
3.550000E+03	1.093372E-17	8.195824E-18
3.560000E+03	1.097843E-17	8.226663E-18
3.570000E+03	1.102534E-17	8.259107E-18
3.580000E+03	1.107120E-17	8.290707E-18
3.590000E+03	1.111931E-17	8.323945E-18
3.600000E+03	1.116640E-17	8.356361E-18
3.610000E+03	1.121580E-17	8.390449E-18
3.620000E+03	1.126421E-17	8.423738E-18
3.630000E+03	1.131498E-17	8.458735E-18
3.640000E+03	1.136648E-17	8.494212E-18
3.650000E+03	1.141703E-17	8.528923E-18
3.660000E+03	1.147004E-17	8.565402E-18
3.670000E+03	1.152214E-17	8.601141E-18
3.680000E+03	1.157675E-17	8.638687E-18
3.690000E+03	1.163221E-17	8.676794E-18
3.700000E+03	1.168682E-17	8.714201E-18
3.710000E+03	1.174404E-17	8.753480E-18
3.720000E+03	1.180219E-17	8.793373E-18
3.730000E+03	1.185955E-17	8.832608E-18
3.740000E+03	1.191963E-17	8.873783E-18
3.750000E+03	1.198072E-17	8.915630E-18
3.760000E+03	1.204110E-17	8.956863E-18
3.770000E+03	1.210430E-17	9.000109E-18
3.780000E+03	1.216860E-17	9.044087E-18
3.790000E+03	1.223404E-17	9.088818E-18
3.800000E+03	1.229888E-17	9.133001E-18
3.810000E+03	1.236669E-17	9.179299E-18
3.820000E+03	1.243575E-17	9.226417E-18
3.830000E+03	1.250608E-17	9.274377E-18
3.840000E+03	1.257772E-17	9.323202E-18
3.850000E+03	1.264889E-17	9.371567E-18
3.860000E+03	1.272327E-17	9.422189E-18
3.870000E+03	1.279908E-17	9.473750E-18
3.880000E+03	1.287635E-17	9.526274E-18
3.890000E+03	1.295328E-17	9.578414E-18
3.900000E+03	1.303362E-17	9.632937E-18
3.910000E+03	1.311555E-17	9.688503E-18
3.920000E+03	1.319912E-17	9.745138E-18
3.930000E+03	1.328438E-17	9.802871E-18
3.940000E+03	1.336947E-17	9.860326E-18
3.950000E+03	1.345824E-17	9.920335E-18
3.960000E+03	1.354884E-17	9.981528E-18
3.970000E+03	1.364133E-17	1.004394E-17
3.980000E+03	1.373576E-17	1.010759E-17
3.990000E+03	1.383021E-17	1.017109E-17
4.000000E+03	1.392867E-17	1.023733E-17
4.010000E+03	1.402922E-17	1.030491E-17
4.020000E+03	1.413194E-17	1.037387E-17
4.030000E+03	1.423487E-17	1.044277E-17
4.040000E+03	1.434208E-17	1.051457E-17
4.050000E+03	1.445163E-17	1.058787E-17
4.060000E+03	1.456155E-17	1.066118E-17
4.070000E+03	1.467598E-17	1.073754E-17
4.080000E+03	1.479296E-17	1.081549E-17
4.090000E+03	1.491255E-17	1.089508E-17
4.100000E+03	1.503274E-17	1.097481E-17
4.110000E+03	1.515778E-17	1.105777E-17
4.120000E+03	1.528353E-17	1.114094E-17
4.130000E+03	1.541431E-17	1.122744E-17
4.140000E+03	1.554811E-17	1.131579E-17
4.150000E+03	1.568281E-17	1.140444E-17
4.160000E+03	1.582284E-17	1.149659E-17
4.170000E+03	1.596394E-17	1.158910E-17
4.180000E+03	1.611057E-17	1.168524E-17
4.190000E+03	1.625842E-17	1.178181E-17
4.200000E+03	1.641204E-17	1.188212E-17
4.210000E+03	1.656702E-17	1.198294E-17
4.220000E+03	1.672802E-17	1.208762E-17
4.230000E+03	1.689055E-17	1.219288E-17
4.240000E+03	1.705935E-17	1.230213E-17
4.250000E+03	1.722987E-17	1.241205E-17
4.260000E+03	1.740454E-17	1.252437E-17
4.270000E+03	1.758589E-17	1.264087E-17
4.280000E+03	1.776925E-17	1.275817E-17
4.290000E+03	1.795713E-17	1.287803E-17
4.300000E+03	1.815213E-17	1.300228E-17
4.310000E+03	1.834947E-17	1.312745E-17
4.320000E+03	1.855173E-17	1.325536E-17
4.330000E+03	1.875905E-17	1.338606E-17
4.340000E+03	1.897158E-17	1.351962E-17
4.350000E+03	1.918947E-17	1.365609E-17
4.360000E+03	1.941287E-17	1.379554E-17
4.370000E+03	1.964195E-17	1.393803E-17
4.380000E+03	1.987956E-17	1.408552E-17
4.390000E+03	2.011779E-17	1.423237E-17
4.400000E+03	2.036490E-17	1.438434E-17
4.410000E+03	2.061836E-17	1.453961E-17
4.420000E+03	2.087838E-17	1.469822E-17
4.430000E+03	2.114512E-17	1.486025E-17
4.440000E+03	2.141880E-17	1.502576E-17
4.450000E+03	2.169961E-17	1.519481E-17
4.460000E+03	2.198482E-17	1.536541E-17
4.470000E+03	2.228048E-17	1.554171E-17
4.480000E+03	2.258392E-17	1.572174E-17
4.490000E+03	2.289229E-17	1.590343E-17
4.500000E+03	2.321191E-17	1.609108E-17
4.510000E+03	2.353999E-17	1.628263E-17
4.520000E+03	2.387359E-17	1.647596E-17
4.530000E+03	2.421929E-17	1.667547E-17
4.540000E+03	2.457093E-17	1.687682E-17
4.550000E+03	2.493196E-17	1.708224E-17
4.560000E+03	2.530600E-17	1.729407E-17
4.570000E+03	2.568665E-17	1.750780E-17
4.580000E+03	2.607751E-17	1.772574E-17
4.590000E+03	2.647886E-17	1.794791E-17
4.600000E+03	2.689455E-17	1.817677E-17
4.610000E+03	2.731782E-17	1.840755E-17
4.620000E+03	2.775248E-17	1.864266E-17
4.630000E+03	2.819884E-17	1.888211E-17
4.640000E+03	2.865723E-17	1.912591E-17
4.650000E+03	2.912795E-17	1.937406E-17
4.660000E+03	2.961136E-17	1.962656E-17
4.670000E+03	3.010777E-17	1.988340E-17
4.680000E+03	3.061352E-17	2.014190E-17
4.690000E+03	3.113692E-17	2.040730E-17
4.700000E+03	3.167436E-17	2.067692E-17
4.710000E+03	3.222621E-17	2.095073E-17
4.720000E+03	3.278853E-17	2.122588E-17
4.730000E+03	3.337020E-17	2.150779E-17
4.740000E+03	3.396291E-17	2.179078E-17
4.750000E+03	3.457584E-17	2.208041E-17
4.760000E+03	3.520040E-17	2.237080E-17
4.770000E+03	3.584605E-17	2.266761E-17
4.780000E+03	3.650391E-17	2.296479E-17
4.790000E+03	3.717892E-17	2.326508E-17
4.800000E+03	3.787143E-17	2.356825E-17
4.810000E+03	3.858181E-17	2.387407E-17
4.820000E+03	3.931549E-17	2.418541E-17
4.830000E+03	4.006271E-17	2.449574E-17
4.840000E+03	4.082881E-17	2.480784E-17
4.850000E+03	4.161411E-17	2.512135E-17
4.860000E+03	4.241344E-17	2.543261E-17
4.870000E+03	4.323795E-17	2.574773E-17
4.880000E+03	4.408254E-17	2.606300E-17
4.890000E+03	4.494746E-17	2.637793E-17
4.900000E+03	4.583295E-17	2.669199E-17
4.910000E+03	4.673320E-17	2.700111E-17
4.920000E+03	4.766032E-17	2.731160E-17
4.930000E+03	4.860231E-17	2.761580E-17
4.940000E+03	4.957166E-17	2.792005E-17
4.950000E+03	5.055583E-17	2.821646E-17
4.960000E+03	5.156112E-17	2.850776E-17
4.970000E+03	5.259424E-17	2.879677E-17
4.980000E+03	5.364178E-17	2.907523E-17
4.990000E+03	5.471024E-17	2.934580E-17
5.000000E+03	5.579945E-17	2.960746E-17
5.010000E+03	5.690918E-17	2.985912E-17
5.020000E+03	5.803912E-17	3.009961E-17
5.030000E+03	5.918889E-17	3.032774E-17
5.040000E+03	6.035805E-17	3.054222E-17
5.050000E+03	6.154607E-17	3.074174E-17
5.060000E+03	6.275231E-17	3.092490E-17
5.070000E+03	6.397606E-17	3.109025E-17
5.080000E+03	6.520820E-17	3.123233E-17
5.090000E+03	6.646427E-17	3.135753E-17
5.100000E+03	6.773509E-17	3.146028E-17
5.110000E+03	6.901075E-17	3.153492E-17
5.120000E+03	7.030737E-17	3.158778E-17
5.130000E+03	7.160586E-17	3.160913E-17
5.140000E+03	7.291348E-17	3.160122E-17
5.150000E+03	7.423800E-17	3.156632E-17
5.160000E+03	7.555896E-17	3.149463E-17
5.170000E+03	7.688372E-17	3.138837E-17
5.180000E+03	7.821022E-17	3.124581E-17
5.190000E+03	7.953626E-17	3.106518E-17
5.200000E+03	8.085951E-17	3.084480E-17
5.210000E+03	8.217750E-17	3.058302E-17
5.220000E+03	8.348762E-17	3.027826E-17
5.230000E+03	8.478715E-17	2.992905E-17
5.240000E+03	8.607320E-17	2.953402E-17
5.250000E+03	8.733177E-17	2.908826E-17
5.260000E+03	8.858167E-17	2.859815E-17
5.270000E+03	8.980882E-17	2.805907E-17
5.280000E+03	9.099844E-17	2.746697E-17
5.290000E+03	9.216999E-17	2.682849E-17
5.300000E+03	9.329696E-17	2.613678E-17
5.310000E+03	9.439923E-17	2.539888E-17
5.320000E+03	9.544968E-17	2.460911E-17
5.330000E+03	9.645658E-17	2.377209E-17
5.340000E+03	9.742873E-17	2.289264E-17
5.350000E+03	9.833830E-17	2.196755E-17
5.360000E+03	9.919410E-17	2.100337E-17
5.370000E+03	9.999287E-17	2.000470E-17
5.380000E+03	1.007315E-16	1.897749E-17
5.390000E+03	1.014070E-16	1.792932E-17
5.400000E+03	1.020167E-16	1.686984E-17
5.410000E+03	1.025579E-16	1.581138E-17
5.420000E+03	1.030154E-16	1.476778E-17
5.430000E+03	1.034129E-16	1.376283E-17
5.440000E+03	1.037359E-16	1.281967E-17
5.450000E+03	1.039698E-16	1.196778E-17
5.460000E+03	1.041395E-16	1.124691E-17
5.470000E+03	1.042312E-16	1.069559E-17
5.480000E+03	1.042314E-16	1.035115E-17
5.490000E+03	1.041662E-16	1.024525E-17
5.500000E+03	1.040096E-16	1.038495E-17
5.510000E+03	1.037750E-16	1.075515E-17
5.520000E+03	1.034762E-16	1.132415E-17
5.530000E+03	1.030883E-16	1.204883E-17
5.540000E+03	1.026255E-16	1.289030E-17
5.550000E+03	1.020896E-16	1.381283E-17
5.560000E+03	1.014827E-16	1.478669E-17
5.570000E+03	1.008069E-16	1.578809E-17
5.580000E+03	1.000648E-16	1.679827E-17
5.590000E+03	9.925923E-17	1.780262E-17
5.600000E+03	9.839313E-17	1.878977E-17
5.610000E+03	9.746967E-17	1.975089E-17
5.620000E+03	9.648010E-17	2.067659E-17
5.630000E+03	9.545204E-17	2.156665E-17
5.640000E+03	9.437683E-17	2.241462E-17
5.650000E+03	9.324642E-17	2.321463E-17
5.660000E+03	9.208778E-17	2.397025E-17
5.670000E+03	9.089276E-17	2.467724E-17
5.680000E+03	8.965378E-17	2.533158E-17
5.690000E+03	8.839687E-17	2.593913E-17
5.700000E+03	8.710335E-17	2.649354E-17
5.710000E+03	8.578783E-17	2.699836E-17
5.720000E+03	8.446413E-17	2.745770E-17
5.730000E+03	8.311429E-17	2.786571E-17
5.740000E+03	8.175211E-17	2.822689E-17
5.750000E+03	8.038056E-17	2.854256E-17
5.760000E+03	7.900249E-17	2.881418E-17
5.770000E+03	7.762060E-17	2.904331E-17
5.780000E+03	7.623747E-17	2.923163E-17
5.790000E+03	7.485552E-17	2.938086E-17
5.800000E+03	7.347700E-17	2.949278E-17
5.810000E+03	7.210404E-17	2.956921E-17
5.820000E+03	7.073862E-17	2.961197E-17
5.830000E+03	6.938256E-17	2.962290E-17
5.840000E+03	6.803754E-17	2.960383E-17
5.850000E+03	6.669682E-17	2.955289E-17
5.860000E+03	6.537855E-17	2.947921E-17
5.870000E+03	6.407555E-17	2.938086E-17
5.880000E+03	6.278117E-17	2.925592E-17
5.890000E+03	6.151219E-17	2.911333E-17
5.900000E+03	6.025409E-17	2.894745E-17
5.910000E+03	5.902279E-17	2.876704E-17
5.920000E+03	5.780417E-17	2.856644E-17
5.930000E+03	5.661334E-17	2.835421E-17
5.940000E+03	5.543658E-17	2.812465E-17
5.950000E+03	5.428824E-17	2.788609E-17
5.960000E+03	5.315502E-17	2.763283E-17
5.970000E+03	5.204405E-17	2.736955E-17
5.980000E+03	5.095553E-17	2.709738E-17
5.990000E+03	4.988957E-17	2.681739E-17
6.000000E+03	4.885230E-17	2.653388E-17
6.010000E+03	4.783146E-17	2.624117E-17
6.020000E+03	4.683321E-17	2.594347E-17
6.030000E+03	4.585745E-17	2.564163E-17
6.040000E+03	4.490404E-17	2.533642E-17
6.050000E+03	4.397282E-17	2.502857E-17
6.060000E+03	4.306358E-17	2.471875E-17
6.070000E+03	4.217608E-17	2.440760E-17
6.080000E+03	4.130493E-17	2.409269E-17
6.090000E+03	4.046021E-17	2.378060E-17
6.100000E+03	3.963636E-17	2.346878E-17
6.110000E+03	3.883307E-17	2.315770E-17
6.120000E+03	3.804526E-17	2.284493E-17
6.130000E+03	3.728213E-17	2.253656E-17
6.140000E+03	3.653847E-17	2.223007E-17
6.150000E+03	3.580948E-17	2.192305E-17
6.160000E+03	3.510375E-17	2.162127E-17
6.170000E+03	3.441634E-17	2.132223E-17
6.180000E+03	3.374269E-17	2.102354E-17
6.190000E+03	3.309084E-17	2.073067E-17
6.200000E+03	3.245210E-17	2.043862E-17
6.210000E+03	3.183025E-17	2.015015E-17
6.220000E+03	3.122877E-17	1.986788E-17
6.230000E+03	3.063943E-17	1.958695E-17
6.240000E+03	3.006951E-17	1.931237E-17
6.250000E+03	2.951108E-17	1.903940E-17
6.260000E+03	2.896755E-17	1.877053E-17
6.270000E+03	2.843853E-17	1.850583E-17
6.280000E+03	2.792712E-17	1.824762E-17
6.290000E+03	2.742593E-17	1.799135E-17
6.300000E+03	2.693813E-17	1.773934E-17
6.310000E+03	2.646335E-17	1.749162E-17
6.320000E+03	2.600123E-17	1.724819E-17
6.330000E+03	2.555142E-17	1.700903E-17
6.340000E+03	2.511358E-17	1.677415E-17
6.350000E+03	2.468738E-17	1.654351E-17
6.360000E+03	2.427248E-17	1.631710E-17
6.370000E+03	2.386855E-17	1.609488E-17
6.380000E+03	2.347530E-17	1.587683E-17
6.390000E+03	2.309241E-17	1.566289E-17
6.400000E+03	2.271957E-17	1.545302E-17
6.410000E+03	2.235651E-17	1.524719E-17
6.420000E+03	2.200293E-17	1.504533E-17
6.430000E+03	2.165856E-17	1.484740E-17
6.440000E+03	2.132047E-17	1.465151E-17
6.450000E+03	2.099375E-17	1.446128E-17
6.460000E+03	2.067546E-17	1.427480E-17
6.470000E+03	2.036533E-17	1.409201E-17
6.480000E+03	2.006064E-17	1.391111E-17
6.490000E+03	1.976618E-17	1.373554E-17
6.500000E+03	1.947919E-17	1.356347E-17
6.510000E+03	1.919705E-17	1.339317E-17
6.520000E+03	1.892438E-17	1.322794E-17
6.530000E+03	1.865621E-17	1.306438E-17
6.540000E+03	1.839702E-17	1.290572E-17
6.550000E+03	1.814199E-17	1.274865E-17
6.560000E+03	1.789550E-17	1.259630E-17
6.570000E+03	1.765285E-17	1.244546E-17
6.580000E+03	1.741832E-17	1.229918E-17
6.590000E+03	1.718734E-17	1.215430E-17
6.600000E+03	1.696408E-17	1.201383E-17
6.610000E+03	1.674409E-17	1.187468E-17
6.620000E+03	1.653144E-17	1.173977E-17
6.630000E+03	1.632182E-17	1.160610E-17
6.640000E+03	1.611716E-17	1.147508E-17
6.650000E+03	1.591732E-17	1.134667E-17
6.660000E+03	1.572414E-17	1.122220E-17
6.670000E+03	1.553352E-17	1.109880E-17
6.680000E+03	1.534731E-17	1.097782E-17
6.690000E+03	1.516540E-17	1.085923E-17
6.700000E+03	1.498954E-17	1.074430E-17
6.710000E+03	1.481583E-17	1.063028E-17
6.720000E+03	1.464606E-17	1.051849E-17
6.730000E+03	1.448012E-17	1.040886E-17
6.740000E+03	1.431790E-17	1.030136E-17
6.750000E+03	1.415929E-17	1.019593E-17
6.760000E+03	1.400421E-17	1.009252E-17
6.770000E+03	1.385254E-17	9.991104E-18
6.780000E+03	1.370420E-17	9.891622E-18
6.790000E+03	1.355910E-17	9.794035E-18
6.800000E+03	1.341715E-17	9.698301E-18
6.810000E+03	1.327826E-17	9.604380E-18
6.820000E+03	1.314235E-17	9.512231E-18
6.830000E+03	1.300935E-17	9.421815E-18
6.840000E+03	1.287918E-17	9.333095E-18
6.850000E+03	1.275175E-17	9.246034E-18
6.860000E+03	1.262701E-17	9.160597E-18
6.870000E+03	1.250489E-17	9.076749E-18
6.880000E+03	1.238530E-17	8.994456E-18
6.890000E+03	1.226666E-17	8.912565E-18
6.900000E+03	1.215199E-17	8.833295E-18
6.910000E+03	1.203968E-17	8.755484E-18
6.920000E+03	1.192967E-17	8.679104E-18
6.930000E+03	1.182042E-17	8.603041E-18
6.940000E+03	1.171486E-17	8.529442E-18
6.950000E+03	1.161143E-17	8.457189E-18
6.960000E+03	1.150864E-17	8.385198E-18
6.970000E+03	1.140934E-17	8.315565E-18
6.980000E+03	1.131204E-17	8.247199E-18
6.990000E+03	1.121526E-17	8.179046E-18
7.000000E+03	1.112181E-17	8.113153E-18
7.010000E+03	1.102882E-17	8.047441E-18
7.020000E+03	1.093905E-17	7.983928E-18
7.030000E+03	1.084968E-17	7.920569E-18
7.040000E+03	1.076343E-17	7.859351E-18
7.050000E+03	1.067752E-17	7.798261E-18
7.060000E+03	1.059464E-17	7.739257E-18
7.070000E+03	1.051205E-17	7.680357E-18
7.080000E+03	1.043239E-17	7.623493E-18
7.090000E+03	1.035297E-17	7.566709E-18
7.100000E+03	1.027511E-17	7.510961E-18
7.110000E+03	1.020004E-17	7.457176E-18
7.120000E+03	1.012516E-17	7.403442E-18
7.130000E+03	1.005174E-17	7.350694E-18
7.140000E+03	9.981006E-18	7.299843E-18
7.150000E+03	9.910397E-18	7.249016E-18
7.160000E+03	9.841161E-18	7.199130E-18
7.170000E+03	9.774510E-18	7.151079E-18
7.180000E+03	9.707932E-18	7.103028E-18
7.190000E+03	9.642652E-18	7.055878E-18
7.200000E+03	9.578645E-18	7.009615E-18
7.210000E+03	9.515888E-18	6.964227E-18
7.220000E+03	9.454361E-18	6.919702E-18
7.230000E+03	9.394040E-18	6.876028E-18
7.240000E+03	9.336094E-18	6.834062E-18
7.250000E+03	9.278119E-18	6.792049E-18
7.260000E+03	9.221292E-18	6.750853E-18
7.270000E+03	9.165591E-18	6.710464E-18
7.280000E+03	9.111000E-18	6.670870E-18
7.290000E+03	9.057500E-18	6.632062E-18
7.300000E+03	9.005074E-18	6.594029E-18
7.310000E+03	8.952562E-18	6.555926E-18
7.320000E+03	8.902239E-18	6.519419E-18
7.330000E+03	8.852939E-18	6.483659E-18
7.340000E+03	8.804647E-18	6.448637E-18
7.350000E+03	8.757348E-18	6.414343E-18
7.360000E+03	8.711027E-18	6.380768E-18
7.370000E+03	8.665669E-18	6.347905E-18
7.380000E+03	8.620157E-18	6.314936E-18
7.390000E+03	8.576689E-18	6.283473E-18
7.400000E+03	8.534142E-18	6.252695E-18
7.410000E+03	8.491416E-18	6.221798E-18
7.420000E+03	8.450678E-18	6.192371E-18
7.430000E+03	8.410822E-18	6.163605E-18
7.440000E+03	8.370763E-18	6.134707E-18
7.450000E+03	8.332641E-18	6.107244E-18
7.460000E+03	8.295365E-18	6.080420E-18
7.470000E+03	8.257863E-18	6.053450E-18
7.480000E+03	8.222249E-18	6.027883E-18
7.490000E+03	8.186395E-18	6.002161E-18
7.500000E+03	8.152399E-18	5.977821E-18
7.510000E+03	8.118148E-18	5.953317E-18
7.520000E+03	8.085726E-18	5.930176E-18
7.530000E+03	8.053037E-18	5.906862E-18
7.540000E+03	8.021114E-18	5.884133E-18
7.550000E+03	7.990977E-18	5.862737E-18
7.560000E+03	7.960553E-18	5.841154E-18
7.570000E+03	7.930866E-18	5.820134E-18
7.580000E+03	7.902926E-18	5.800421E-18
7.590000E+03	7.874680E-18	5.780506E-18
7.600000E+03	7.847142E-18	5.761134E-18
7.610000E+03	7.820303E-18	5.742298E-18
7.620000E+03	7.795161E-18	5.724731E-18
7.630000E+03	7.769689E-18	5.706945E-18
7.640000E+03	7.744890E-18	5.689675E-18
7.650000E+03	7.720753E-18	5.672913E-18
7.660000E+03	7.697271E-18	5.656655E-18
7.670000E+03	7.674434E-18	5.640891E-18
7.680000E+03	7.652236E-18	5.625618E-18
7.690000E+03	7.630667E-18	5.610826E-18
7.700000E+03	7.609720E-18	5.596512E-18
7.710000E+03	7.589386E-18	5.582667E-18
7.720000E+03	7.569657E-18	5.569285E-18
7.730000E+03	7.550526E-18	5.556361E-18
7.740000E+03	7.531985E-18	5.543887E-18
7.750000E+03	7.514027E-18	5.531858E-18
7.760000E+03	7.496643E-18	5.520267E-18
