#wls	flux	fluxerr
1.600000E+03	3.314527E-18	2.551042E-18
1.640000E+03	3.326104E-18	2.559877E-18
1.680000E+03	3.338126E-18	2.569045E-18
1.720000E+03	3.350603E-18	2.578555E-18
1.760000E+03	3.363549E-18	2.588417E-18
1.800000E+03	3.377575E-18	2.599100E-18
1.840000E+03	3.391494E-18	2.609690E-18
1.880000E+03	3.406520E-18	2.621119E-18
1.920000E+03	3.421455E-18	2.632466E-18
1.960000E+03	3.437520E-18	2.644669E-18
2.000000E+03	3.454120E-18	2.657269E-18
2.040000E+03	3.471877E-18	2.670743E-18
2.080000E+03	3.489571E-18	2.684153E-18
2.120000E+03	3.507822E-18	2.697974E-18
2.160000E+03	3.527258E-18	2.712687E-18
2.200000E+03	3.547267E-18	2.727820E-18
2.240000E+03	3.567853E-18	2.743377E-18
2.280000E+03	3.589020E-18	2.759359E-18
2.320000E+03	3.611408E-18	2.776256E-18
2.360000E+03	3.633754E-18	2.793095E-18
2.400000E+03	3.657334E-18	2.810857E-18
2.440000E+03	3.681517E-18	2.829056E-18
2.480000E+03	3.706310E-18	2.847695E-18
2.520000E+03	3.731717E-18	2.866776E-18
2.560000E+03	3.757748E-18	2.886304E-18
2.600000E+03	3.785071E-18	2.906792E-18
2.640000E+03	3.813047E-18	2.927747E-18
2.680000E+03	3.841694E-18	2.949182E-18
2.720000E+03	3.871033E-18	2.971109E-18
2.760000E+03	3.901089E-18	2.993547E-18
2.800000E+03	3.931896E-18	3.016520E-18
2.840000E+03	3.964177E-18	3.040579E-18
2.880000E+03	3.997306E-18	3.065241E-18
2.920000E+03	4.030645E-18	3.090016E-18
2.960000E+03	4.065647E-18	3.116013E-18
3.000000E+03	4.102408E-18	3.143301E-18
3.010000E+03	4.111423E-18	3.149979E-18
3.020000E+03	4.120510E-18	3.156709E-18
3.030000E+03	4.129671E-18	3.163493E-18
3.040000E+03	4.139618E-18	3.170873E-18
3.050000E+03	4.148935E-18	3.177768E-18
3.060000E+03	4.159044E-18	3.185264E-18
3.070000E+03	4.168524E-18	3.192274E-18
3.080000E+03	4.178087E-18	3.199345E-18
3.090000E+03	4.188452E-18	3.207025E-18
3.100000E+03	4.198190E-18	3.214220E-18
3.110000E+03	4.208019E-18	3.221480E-18
3.120000E+03	4.218660E-18	3.229357E-18
3.130000E+03	4.228676E-18	3.236752E-18
3.140000E+03	4.239514E-18	3.244770E-18
3.150000E+03	4.249729E-18	3.252306E-18
3.160000E+03	4.260046E-18	3.259916E-18
3.170000E+03	4.271196E-18	3.268158E-18
3.180000E+03	4.281727E-18	3.275921E-18
3.190000E+03	4.293100E-18	3.284323E-18
3.200000E+03	4.303857E-18	3.292247E-18
3.210000E+03	4.315464E-18	3.300817E-18
3.220000E+03	4.326459E-18	3.308912E-18
3.230000E+03	4.338313E-18	3.317659E-18
3.240000E+03	4.349558E-18	3.325933E-18
3.250000E+03	4.361674E-18	3.334867E-18
3.260000E+03	4.373183E-18	3.343330E-18
3.270000E+03	4.385573E-18	3.352461E-18
3.280000E+03	4.397360E-18	3.361124E-18
3.290000E+03	4.410040E-18	3.370462E-18
3.300000E+03	4.422121E-18	3.379336E-18
3.310000E+03	4.435107E-18	3.388894E-18
3.320000E+03	4.447498E-18	3.397990E-18
3.330000E+03	4.460806E-18	3.407778E-18
3.340000E+03	4.473525E-18	3.417108E-18
3.350000E+03	4.487172E-18	3.427140E-18
3.360000E+03	4.500997E-18	3.437298E-18
3.370000E+03	4.514242E-18	3.447005E-18
3.380000E+03	4.528435E-18	3.457428E-18
3.390000E+03	4.542055E-18	3.467403E-18
3.400000E+03	4.556637E-18	3.478103E-18
3.410000E+03	4.570651E-18	3.488360E-18
3.420000E+03	4.585642E-18	3.499354E-18
3.430000E+03	4.600848E-18	3.510500E-18
3.440000E+03	4.615497E-18	3.521211E-18
3.450000E+03	4.631147E-18	3.532674E-18
3.460000E+03	4.647029E-18	3.544303E-18
3.470000E+03	4.662365E-18	3.555504E-18
3.480000E+03	4.678728E-18	3.567476E-18
3.490000E+03	4.694553E-18	3.579026E-18
3.500000E+03	4.711423E-18	3.591359E-18
3.510000E+03	4.728557E-18	3.603881E-18
3.520000E+03	4.745167E-18	3.615989E-18
3.530000E+03	4.762851E-18	3.628901E-18
3.540000E+03	4.780821E-18	3.642017E-18
3.550000E+03	4.798280E-18	3.654729E-18
3.560000E+03	4.816844E-18	3.668266E-18
3.570000E+03	4.834908E-18	3.681407E-18
3.580000E+03	4.854098E-18	3.695388E-18
3.590000E+03	4.873615E-18	3.709600E-18
3.600000E+03	4.892648E-18	3.723426E-18
3.610000E+03	4.912842E-18	3.738117E-18
3.620000E+03	4.933389E-18	3.753058E-18
3.630000E+03	4.953471E-18	3.767625E-18
3.640000E+03	4.974750E-18	3.783082E-18
3.650000E+03	4.996411E-18	3.798808E-18
3.660000E+03	5.017627E-18	3.814173E-18
3.670000E+03	5.040079E-18	3.830455E-18
3.680000E+03	5.062945E-18	3.847028E-18
3.690000E+03	5.085387E-18	3.863253E-18
3.700000E+03	5.109109E-18	3.880425E-18
3.710000E+03	5.133277E-18	3.897909E-18
3.720000E+03	5.157044E-18	3.915062E-18
3.730000E+03	5.182137E-18	3.933192E-18
3.740000E+03	5.207712E-18	3.951658E-18
3.750000E+03	5.233783E-18	3.970469E-18
3.760000E+03	5.259488E-18	3.988970E-18
3.770000E+03	5.286584E-18	4.008493E-18
3.780000E+03	5.314215E-18	4.028387E-18
3.790000E+03	5.341510E-18	4.047990E-18
3.800000E+03	5.370250E-18	4.068650E-18
3.810000E+03	5.399569E-18	4.089709E-18
3.820000E+03	5.428581E-18	4.110496E-18
3.830000E+03	5.459098E-18	4.132379E-18
3.840000E+03	5.490240E-18	4.154691E-18
3.850000E+03	5.521110E-18	4.176752E-18
3.860000E+03	5.553547E-18	4.199950E-18
3.870000E+03	5.586660E-18	4.223609E-18
3.880000E+03	5.619538E-18	4.247039E-18
3.890000E+03	5.654051E-18	4.271651E-18
3.900000E+03	5.689295E-18	4.296759E-18
3.910000E+03	5.724345E-18	4.321660E-18
3.920000E+03	5.761103E-18	4.347791E-18
3.930000E+03	5.798652E-18	4.374454E-18
3.940000E+03	5.836050E-18	4.400937E-18
3.950000E+03	5.875236E-18	4.428700E-18
3.960000E+03	5.914304E-18	4.456301E-18
3.970000E+03	5.955217E-18	4.485216E-18
3.980000E+03	5.997031E-18	4.514732E-18
3.990000E+03	6.038777E-18	4.544114E-18
4.000000E+03	6.082460E-18	4.574867E-18
4.010000E+03	6.127118E-18	4.606264E-18
4.020000E+03	6.171763E-18	4.637559E-18
4.030000E+03	6.218444E-18	4.670285E-18
4.040000E+03	6.266182E-18	4.703703E-18
4.050000E+03	6.313968E-18	4.737051E-18
4.060000E+03	6.363897E-18	4.771895E-18
4.070000E+03	6.413919E-18	4.806693E-18
4.080000E+03	6.466160E-18	4.843032E-18
4.090000E+03	6.519608E-18	4.880149E-18
4.100000E+03	6.573221E-18	4.917256E-18
4.110000E+03	6.629176E-18	4.955976E-18
4.120000E+03	6.685347E-18	4.994714E-18
4.130000E+03	6.743947E-18	5.035114E-18
4.140000E+03	6.802819E-18	5.075559E-18
4.150000E+03	6.864213E-18	5.117720E-18
4.160000E+03	6.925936E-18	5.159953E-18
4.170000E+03	6.990280E-18	5.203957E-18
4.180000E+03	7.056166E-18	5.248919E-18
4.190000E+03	7.122475E-18	5.293997E-18
4.200000E+03	7.191564E-18	5.340933E-18
4.210000E+03	7.261145E-18	5.388017E-18
4.220000E+03	7.333619E-18	5.437020E-18
4.230000E+03	7.406657E-18	5.486203E-18
4.240000E+03	7.482708E-18	5.537368E-18
4.250000E+03	7.559401E-18	5.588747E-18
4.260000E+03	7.639235E-18	5.642173E-18
4.270000E+03	7.719791E-18	5.695847E-18
4.280000E+03	7.803624E-18	5.751637E-18
4.290000E+03	7.888267E-18	5.807711E-18
4.300000E+03	7.975034E-18	5.865019E-18
4.310000E+03	8.065294E-18	5.924550E-18
4.320000E+03	8.156507E-18	5.984419E-18
4.330000E+03	8.251369E-18	6.046586E-18
4.340000E+03	8.347285E-18	6.109127E-18
4.350000E+03	8.447015E-18	6.174043E-18
4.360000E+03	8.547909E-18	6.239371E-18
4.370000E+03	8.651391E-18	6.306132E-18
4.380000E+03	8.758953E-18	6.375386E-18
4.390000E+03	8.867853E-18	6.445110E-18
4.400000E+03	8.979573E-18	6.516355E-18
4.410000E+03	9.095662E-18	6.590217E-18
4.420000E+03	9.213283E-18	6.664606E-18
4.430000E+03	9.333973E-18	6.740608E-18
4.440000E+03	9.459349E-18	6.819352E-18
4.450000E+03	9.586467E-18	6.898680E-18
4.460000E+03	9.716929E-18	6.979711E-18
4.470000E+03	9.852419E-18	7.063614E-18
4.480000E+03	9.989881E-18	7.148154E-18
4.490000E+03	1.013098E-17	7.234486E-18
4.500000E+03	1.027583E-17	7.322640E-18
4.510000E+03	1.042622E-17	7.413839E-18
4.520000E+03	1.057891E-17	7.505737E-18
4.530000E+03	1.073568E-17	7.599542E-18
4.540000E+03	1.089664E-17	7.695279E-18
4.550000E+03	1.106370E-17	7.794229E-18
4.560000E+03	1.123345E-17	7.893926E-18
4.570000E+03	1.140776E-17	7.995630E-18
4.580000E+03	1.158677E-17	8.099363E-18
4.590000E+03	1.177060E-17	8.205147E-18
4.600000E+03	1.195939E-17	8.313000E-18
4.610000E+03	1.215524E-17	8.424291E-18
4.620000E+03	1.235440E-17	8.536348E-18
4.630000E+03	1.255896E-17	8.650519E-18
4.640000E+03	1.276906E-17	8.766813E-18
4.650000E+03	1.298484E-17	8.885237E-18
4.660000E+03	1.320647E-17	9.005795E-18
4.670000E+03	1.343410E-17	9.128486E-18
4.680000E+03	1.366790E-17	9.253307E-18
4.690000E+03	1.390802E-17	9.380250E-18
4.700000E+03	1.415464E-17	9.509303E-18
4.710000E+03	1.440792E-17	9.640449E-18
4.720000E+03	1.466803E-17	9.773663E-18
4.730000E+03	1.493516E-17	9.908920E-18
4.740000E+03	1.520947E-17	1.004618E-17
4.750000E+03	1.549114E-17	1.018541E-17
4.760000E+03	1.578036E-17	1.032655E-17
4.770000E+03	1.607730E-17	1.046956E-17
4.780000E+03	1.638216E-17	1.061436E-17
4.790000E+03	1.669510E-17	1.076088E-17
4.800000E+03	1.701633E-17	1.090904E-17
4.810000E+03	1.734601E-17	1.105874E-17
4.820000E+03	1.768151E-17	1.120810E-17
4.830000E+03	1.802861E-17	1.136054E-17
4.840000E+03	1.838471E-17	1.151418E-17
4.850000E+03	1.875000E-17	1.166887E-17
4.860000E+03	1.912464E-17	1.182446E-17
4.870000E+03	1.950571E-17	1.197887E-17
4.880000E+03	1.989953E-17	1.213570E-17
4.890000E+03	2.030320E-17	1.229288E-17
4.900000E+03	2.071688E-17	1.245017E-17
4.910000E+03	2.113737E-17	1.260533E-17
4.920000E+03	2.157145E-17	1.276210E-17
4.930000E+03	2.201597E-17	1.291822E-17
4.940000E+03	2.247103E-17	1.307339E-17
4.950000E+03	2.293312E-17	1.322518E-17
4.960000E+03	2.340952E-17	1.337744E-17
4.970000E+03	2.389674E-17	1.352771E-17
4.980000E+03	2.439099E-17	1.367344E-17
4.990000E+03	2.489996E-17	1.381854E-17
5.000000E+03	2.541584E-17	1.395819E-17
5.010000E+03	2.594662E-17	1.409634E-17
5.020000E+03	2.648833E-17	1.423029E-17
5.030000E+03	2.703662E-17	1.435726E-17
5.040000E+03	2.759989E-17	1.448121E-17
5.050000E+03	2.816937E-17	1.459701E-17
5.060000E+03	2.875374E-17	1.470866E-17
5.070000E+03	2.934381E-17	1.481088E-17
5.080000E+03	2.994854E-17	1.490768E-17
5.090000E+03	3.055827E-17	1.499367E-17
5.100000E+03	3.118228E-17	1.507288E-17
5.110000E+03	3.181042E-17	1.513981E-17
5.120000E+03	3.244712E-17	1.519607E-17
5.130000E+03	3.309713E-17	1.524331E-17
5.140000E+03	3.374957E-17	1.527590E-17
5.150000E+03	3.441442E-17	1.529786E-17
5.160000E+03	3.508024E-17	1.530353E-17
5.170000E+03	3.575165E-17	1.529451E-17
5.180000E+03	3.643362E-17	1.527237E-17
5.190000E+03	3.711387E-17	1.523146E-17
5.200000E+03	3.779710E-17	1.517339E-17
5.210000E+03	3.848838E-17	1.509974E-17
5.220000E+03	3.917454E-17	1.500497E-17
5.230000E+03	3.986038E-17	1.489075E-17
5.240000E+03	4.054459E-17	1.475640E-17
5.250000E+03	4.123233E-17	1.460362E-17
5.260000E+03	4.190921E-17	1.442725E-17
5.270000E+03	4.258010E-17	1.422919E-17
5.280000E+03	4.324333E-17	1.400911E-17
5.290000E+03	4.389716E-17	1.376688E-17
5.300000E+03	4.454677E-17	1.350461E-17
5.310000E+03	4.517629E-17	1.321822E-17
5.320000E+03	4.579061E-17	1.291035E-17
5.330000E+03	4.638761E-17	1.258175E-17
5.340000E+03	4.696509E-17	1.223350E-17
5.350000E+03	4.752077E-17	1.186713E-17
5.360000E+03	4.805227E-17	1.148461E-17
5.370000E+03	4.855716E-17	1.108852E-17
5.380000E+03	4.903295E-17	1.068209E-17
5.390000E+03	4.947708E-17	1.026939E-17
5.400000E+03	4.988696E-17	9.855382E-18
5.410000E+03	5.025995E-17	9.446144E-18
5.420000E+03	5.059344E-17	9.048936E-18
5.430000E+03	5.088478E-17	8.672307E-18
5.440000E+03	5.113139E-17	8.326064E-18
5.450000E+03	5.133074E-17	8.021057E-18
5.460000E+03	5.148043E-17	7.768674E-18
5.470000E+03	5.157827E-17	7.579956E-18
5.480000E+03	5.162243E-17	7.464317E-18
5.490000E+03	5.161167E-17	7.428023E-18
5.500000E+03	5.153762E-17	7.471685E-18
5.510000E+03	5.141721E-17	7.594479E-18
5.520000E+03	5.124394E-17	7.787879E-18
5.530000E+03	5.101994E-17	8.041775E-18
5.540000E+03	5.074764E-17	8.344798E-18
5.550000E+03	5.042965E-17	8.685522E-18
5.560000E+03	5.006081E-17	9.051833E-18
5.570000E+03	4.965964E-17	9.436973E-18
5.580000E+03	4.922101E-17	9.831347E-18
5.590000E+03	4.874765E-17	1.022803E-17
5.600000E+03	4.823472E-17	1.061961E-17
5.610000E+03	4.770011E-17	1.100468E-17
5.620000E+03	4.713880E-17	1.137789E-17
5.630000E+03	4.654602E-17	1.173440E-17
5.640000E+03	4.593895E-17	1.207553E-17
5.650000E+03	4.531257E-17	1.239770E-17
5.660000E+03	4.466219E-17	1.269764E-17
5.670000E+03	4.400411E-17	1.297836E-17
5.680000E+03	4.332654E-17	1.323525E-17
5.690000E+03	4.264517E-17	1.347213E-17
5.700000E+03	4.195502E-17	1.368689E-17
5.710000E+03	4.125142E-17	1.387745E-17
5.720000E+03	4.054910E-17	1.404842E-17
5.730000E+03	3.983686E-17	1.419583E-17
5.740000E+03	3.912878E-17	1.432465E-17
5.750000E+03	3.841391E-17	1.443100E-17
5.760000E+03	3.770568E-17	1.452008E-17
5.770000E+03	3.699340E-17	1.458810E-17
5.780000E+03	3.628988E-17	1.464039E-17
5.790000E+03	3.558468E-17	1.467318E-17
5.800000E+03	3.489000E-17	1.469191E-17
5.810000E+03	3.419568E-17	1.469282E-17
5.820000E+03	3.350807E-17	1.467906E-17
5.830000E+03	3.283303E-17	1.465378E-17
5.840000E+03	3.216082E-17	1.461323E-17
5.850000E+03	3.150220E-17	1.456283E-17
5.860000E+03	3.084769E-17	1.449881E-17
5.870000E+03	3.020281E-17	1.442427E-17
5.880000E+03	2.957255E-17	1.434222E-17
5.890000E+03	2.894792E-17	1.424892E-17
5.900000E+03	2.833393E-17	1.414736E-17
5.910000E+03	2.773517E-17	1.404041E-17
5.920000E+03	2.714306E-17	1.392436E-17
5.930000E+03	2.656220E-17	1.380205E-17
5.940000E+03	2.599272E-17	1.367409E-17
5.950000E+03	2.543867E-17	1.354320E-17
5.960000E+03	2.489207E-17	1.340565E-17
5.970000E+03	2.435702E-17	1.326413E-17
5.980000E+03	2.383351E-17	1.311913E-17
5.990000E+03	2.332151E-17	1.297112E-17
6.000000E+03	2.282456E-17	1.282254E-17
6.010000E+03	2.233537E-17	1.266978E-17
6.020000E+03	2.185749E-17	1.251524E-17
6.030000E+03	2.139082E-17	1.235931E-17
6.040000E+03	2.093526E-17	1.220231E-17
6.050000E+03	2.049065E-17	1.204456E-17
6.060000E+03	2.005687E-17	1.188636E-17
6.070000E+03	1.963683E-17	1.172981E-17
6.080000E+03	1.922416E-17	1.157148E-17
6.090000E+03	1.882183E-17	1.141344E-17
6.100000E+03	1.842965E-17	1.125592E-17
6.110000E+03	1.804746E-17	1.109911E-17
6.120000E+03	1.767505E-17	1.094320E-17
6.130000E+03	1.731224E-17	1.078834E-17
6.140000E+03	1.695884E-17	1.063469E-17
6.150000E+03	1.661465E-17	1.048237E-17
6.160000E+03	1.627947E-17	1.033152E-17
6.170000E+03	1.595311E-17	1.018223E-17
6.180000E+03	1.563535E-17	1.003462E-17
6.190000E+03	1.532602E-17	9.888754E-18
6.200000E+03	1.502490E-17	9.744722E-18
6.210000E+03	1.473180E-17	9.602587E-18
6.220000E+03	1.444653E-17	9.462408E-18
6.230000E+03	1.416888E-17	9.324234E-18
6.240000E+03	1.389868E-17	9.188108E-18
6.250000E+03	1.363359E-17	9.052648E-18
6.260000E+03	1.337774E-17	8.920736E-18
6.270000E+03	1.312877E-17	8.790957E-18
6.280000E+03	1.288649E-17	8.663328E-18
6.290000E+03	1.265073E-17	8.537861E-18
6.300000E+03	1.242131E-17	8.414562E-18
6.310000E+03	1.219807E-17	8.293434E-18
6.320000E+03	1.197896E-17	8.173198E-18
6.330000E+03	1.176759E-17	8.056423E-18
6.340000E+03	1.156190E-17	7.941804E-18
6.350000E+03	1.136172E-17	7.829330E-18
6.360000E+03	1.116692E-17	7.718987E-18
6.370000E+03	1.097560E-17	7.609567E-18
6.380000E+03	1.079111E-17	7.503450E-18
6.390000E+03	1.061153E-17	7.399407E-18
6.400000E+03	1.043674E-17	7.297417E-18
6.410000E+03	1.026499E-17	7.196328E-18
6.420000E+03	1.009939E-17	7.098384E-18
6.430000E+03	9.938175E-18	7.002416E-18
6.440000E+03	9.781217E-18	6.908396E-18
6.450000E+03	9.626888E-18	6.815229E-18
6.460000E+03	9.478107E-18	6.725033E-18
6.470000E+03	9.333227E-18	6.636698E-18
6.480000E+03	9.190696E-18	6.549168E-18
6.490000E+03	9.053306E-18	6.464476E-18
6.500000E+03	8.919487E-18	6.381551E-18
6.510000E+03	8.787762E-18	6.299377E-18
6.520000E+03	8.660802E-18	6.219906E-18
6.530000E+03	8.537112E-18	6.142109E-18
6.540000E+03	8.415281E-18	6.065004E-18
6.550000E+03	8.297872E-18	5.990470E-18
6.560000E+03	8.182176E-18	5.916588E-18
6.570000E+03	8.070689E-18	5.845191E-18
6.580000E+03	7.962026E-18	5.775310E-18
6.590000E+03	7.854877E-18	5.706020E-18
6.600000E+03	7.751639E-18	5.639090E-18
6.610000E+03	7.649790E-18	5.572710E-18
6.620000E+03	7.551670E-18	5.508608E-18
6.630000E+03	7.454824E-18	5.445018E-18
6.640000E+03	7.361532E-18	5.383627E-18
6.650000E+03	7.269406E-18	5.322708E-18
6.660000E+03	7.180672E-18	5.263911E-18
6.670000E+03	7.093002E-18	5.205549E-18
6.680000E+03	7.008570E-18	5.149236E-18
6.690000E+03	6.925107E-18	5.093320E-18
6.700000E+03	6.844739E-18	5.039381E-18
6.710000E+03	6.765249E-18	4.985805E-18
6.720000E+03	6.688719E-18	4.934137E-18
6.730000E+03	6.612985E-18	4.882797E-18
6.740000E+03	6.540082E-18	4.833300E-18
6.750000E+03	6.467897E-18	4.784097E-18
6.760000E+03	6.397419E-18	4.735931E-18
6.770000E+03	6.329594E-18	4.689514E-18
6.780000E+03	6.262380E-18	4.643345E-18
6.790000E+03	6.197709E-18	4.598865E-18
6.800000E+03	6.133583E-18	4.554603E-18
6.810000E+03	6.070944E-18	4.511266E-18
6.820000E+03	6.010694E-18	4.469535E-18
6.830000E+03	5.950900E-18	4.427979E-18
6.840000E+03	5.892475E-18	4.387287E-18
6.850000E+03	5.836300E-18	4.348122E-18
6.860000E+03	5.780498E-18	4.309094E-18
6.870000E+03	5.725960E-18	4.270873E-18
6.880000E+03	5.673543E-18	4.234106E-18
6.890000E+03	5.621426E-18	4.197439E-18
6.900000E+03	5.570477E-18	4.161526E-18
6.910000E+03	5.521532E-18	4.126999E-18
6.920000E+03	5.472820E-18	4.092539E-18
6.930000E+03	5.425188E-18	4.058784E-18
6.940000E+03	5.378608E-18	4.025719E-18
6.950000E+03	5.333892E-18	3.993955E-18
6.960000E+03	5.289330E-18	3.962218E-18
6.970000E+03	5.245743E-18	3.931127E-18
6.980000E+03	5.203106E-18	3.900666E-18
6.990000E+03	5.162207E-18	3.871432E-18
7.000000E+03	5.121395E-18	3.842188E-18
7.010000E+03	5.081464E-18	3.813535E-18
7.020000E+03	5.042393E-18	3.785461E-18
7.030000E+03	5.004950E-18	3.758545E-18
7.040000E+03	4.967533E-18	3.731587E-18
7.050000E+03	4.930916E-18	3.705171E-18
7.060000E+03	4.895079E-18	3.679287E-18
7.070000E+03	4.860005E-18	3.653923E-18
7.080000E+03	4.825676E-18	3.629068E-18
7.090000E+03	4.792073E-18	3.604712E-18
7.100000E+03	4.759931E-18	3.581408E-18
7.110000E+03	4.727728E-18	3.558015E-18
7.120000E+03	4.696204E-18	3.535091E-18
7.130000E+03	4.665342E-18	3.512626E-18
7.140000E+03	4.635129E-18	3.490612E-18
7.150000E+03	4.605549E-18	3.469038E-18
7.160000E+03	4.576588E-18	3.447898E-18
7.170000E+03	4.548233E-18	3.427181E-18
7.180000E+03	4.520471E-18	3.406879E-18
7.190000E+03	4.493288E-18	3.386986E-18
7.200000E+03	4.467377E-18	3.368023E-18
7.210000E+03	4.441313E-18	3.348918E-18
7.220000E+03	4.415792E-18	3.330198E-18
7.230000E+03	4.390802E-18	3.311855E-18
7.240000E+03	4.366334E-18	3.293883E-18
7.250000E+03	4.342375E-18	3.276273E-18
7.260000E+03	4.318916E-18	3.259021E-18
7.270000E+03	4.295946E-18	3.242118E-18
7.280000E+03	4.273455E-18	3.225559E-18
7.290000E+03	4.251433E-18	3.209338E-18
7.300000E+03	4.229872E-18	3.193447E-18
7.310000E+03	4.208762E-18	3.177882E-18
7.320000E+03	4.188094E-18	3.162637E-18
7.330000E+03	4.167860E-18	3.147706E-18
7.340000E+03	4.147395E-18	3.132587E-18
7.350000E+03	4.128005E-18	3.118269E-18
7.360000E+03	4.109025E-18	3.104249E-18
7.370000E+03	4.090446E-18	3.090521E-18
7.380000E+03	4.072260E-18	3.077081E-18
7.390000E+03	4.054460E-18	3.063924E-18
7.400000E+03	4.037040E-18	3.051044E-18
7.410000E+03	4.019991E-18	3.038438E-18
7.420000E+03	4.003308E-18	3.026100E-18
7.430000E+03	3.986984E-18	3.014026E-18
7.440000E+03	3.970383E-18	3.001737E-18
7.450000E+03	3.954759E-18	2.990181E-18
7.460000E+03	3.939474E-18	2.978875E-18
7.470000E+03	3.924524E-18	2.967817E-18
7.480000E+03	3.909901E-18	2.957002E-18
7.490000E+03	3.895600E-18	2.946427E-18
7.500000E+03	3.881001E-18	2.935621E-18
7.510000E+03	3.867330E-18	2.925514E-18
7.520000E+03	3.853965E-18	2.915635E-18
7.530000E+03	3.840900E-18	2.905980E-18
7.540000E+03	3.828131E-18	2.896546E-18
7.550000E+03	3.815047E-18	2.886872E-18
7.560000E+03	3.802856E-18	2.877870E-18
7.570000E+03	3.790946E-18	2.869080E-18
7.580000E+03	3.779312E-18	2.860496E-18
7.590000E+03	3.767351E-18	2.851664E-18
7.600000E+03	3.756258E-18	2.843487E-18
7.610000E+03	3.745427E-18	2.835507E-18
7.620000E+03	3.734855E-18	2.827722E-18
7.630000E+03	3.723946E-18	2.819681E-18
7.640000E+03	3.713881E-18	2.812278E-18
7.650000E+03	3.704061E-18	2.805061E-18
7.660000E+03	3.693897E-18	2.797581E-18
7.670000E+03	3.684560E-18	2.790728E-18
7.680000E+03	3.675458E-18	2.784053E-18
7.690000E+03	3.666003E-18	2.777110E-18
7.700000E+03	3.657361E-18	2.770782E-18
7.710000E+03	3.648942E-18	2.764623E-18
7.720000E+03	3.640164E-18	2.758192E-18
7.730000E+03	3.632184E-18	2.752366E-18
7.740000E+03	3.624417E-18	2.746701E-18
7.750000E+03	3.616284E-18	2.740758E-18
7.760000E+03	3.608935E-18	2.735410E-18
