#wls	flux	fluxerr
1.600160E+03	2.690887E-05	3.271543E-07
1.640164E+03	2.807839E-05	3.409243E-07
1.680168E+03	2.928121E-05	3.550482E-07
1.720172E+03	3.051192E-05	3.694569E-07
1.760176E+03	3.177264E-05	3.841729E-07
1.800180E+03	3.303961E-05	3.989054E-07
1.840184E+03	3.428502E-05	4.133171E-07
1.880188E+03	3.547715E-05	4.270251E-07
1.920192E+03	3.656569E-05	4.394257E-07
1.960196E+03	3.751465E-05	4.500911E-07
2.000200E+03	3.831632E-05	4.589353E-07
2.040204E+03	3.905091E-05	4.669248E-07
2.080208E+03	3.991843E-05	4.764495E-07
2.120212E+03	4.125064E-05	4.914515E-07
2.160216E+03	4.340583E-05	5.161584E-07
2.200220E+03	4.660422E-05	5.531248E-07
2.240224E+03	5.085129E-05	6.023380E-07
2.280228E+03	5.599433E-05	6.619112E-07
2.320232E+03	6.183558E-05	7.294370E-07
2.360236E+03	6.824745E-05	8.033509E-07
2.400240E+03	7.516936E-05	8.828859E-07
2.440244E+03	8.260536E-05	9.680361E-07
2.480248E+03	9.061783E-05	1.059475E-06
2.520252E+03	9.927983E-05	1.157992E-06
2.560256E+03	1.086931E-04	1.264698E-06
2.600260E+03	1.189649E-04	1.380756E-06
2.640264E+03	1.302164E-04	1.507470E-06
2.680268E+03	1.425616E-04	1.646045E-06
2.720272E+03	1.561171E-04	1.797697E-06
2.760276E+03	1.709948E-04	1.963568E-06
2.800280E+03	1.872977E-04	2.144678E-06
2.840284E+03	2.051206E-04	2.341933E-06
2.880288E+03	2.245578E-04	2.556213E-06
2.920292E+03	2.457016E-04	2.788358E-06
2.960296E+03	2.686552E-04	3.039307E-06
3.000300E+03	2.935335E-04	3.310108E-06
3.010301E+03	3.000770E-04	3.381141E-06
3.020302E+03	3.067449E-04	3.453438E-06
3.030303E+03	3.135518E-04	3.527162E-06
3.040304E+03	3.204954E-04	3.602280E-06
3.050305E+03	3.275972E-04	3.679029E-06
3.060306E+03	3.348802E-04	3.757663E-06
3.070307E+03	3.423297E-04	3.838008E-06
3.080308E+03	3.499671E-04	3.920301E-06
3.090309E+03	3.577790E-04	4.004383E-06
3.100310E+03	3.657813E-04	4.090428E-06
3.110311E+03	3.739694E-04	4.178376E-06
3.120312E+03	3.823471E-04	4.268263E-06
3.130313E+03	3.909344E-04	4.360307E-06
3.140314E+03	3.997226E-04	4.454401E-06
3.150315E+03	4.087429E-04	4.550887E-06
3.160316E+03	4.179823E-04	4.649613E-06
3.170317E+03	4.274765E-04	4.750964E-06
3.180318E+03	4.372243E-04	4.854922E-06
3.190319E+03	4.472592E-04	4.961847E-06
3.200320E+03	4.575939E-04	5.071870E-06
3.210321E+03	4.682600E-04	5.185331E-06
3.220322E+03	4.792851E-04	5.302523E-06
3.230323E+03	4.907008E-04	5.423783E-06
3.240324E+03	5.025342E-04	5.549395E-06
3.250325E+03	5.148417E-04	5.679969E-06
3.260326E+03	5.276590E-04	5.815879E-06
3.270327E+03	5.410427E-04	5.957733E-06
3.280328E+03	5.550362E-04	6.105988E-06
3.290329E+03	5.696943E-04	6.261224E-06
3.300330E+03	5.850827E-04	6.424140E-06
3.310331E+03	6.012499E-04	6.595242E-06
3.320332E+03	6.182600E-04	6.775205E-06
3.330333E+03	6.361643E-04	6.964561E-06
3.340334E+03	6.549856E-04	7.163527E-06
3.350335E+03	6.747704E-04	7.372581E-06
3.360336E+03	6.955169E-04	7.591666E-06
3.370337E+03	7.172046E-04	7.820526E-06
3.380338E+03	7.397781E-04	8.058521E-06
3.390339E+03	7.631173E-04	8.304314E-06
3.400340E+03	7.870924E-04	8.556463E-06
3.410341E+03	8.114867E-04	8.812591E-06
3.420342E+03	8.360253E-04	9.069697E-06
3.430343E+03	8.603873E-04	9.324296E-06
3.440344E+03	8.842067E-04	9.572427E-06
3.450345E+03	9.070846E-04	9.809790E-06
3.460346E+03	9.287304E-04	1.003328E-05
3.470347E+03	9.489750E-04	1.024110E-05
3.480348E+03	9.677950E-04	1.043305E-05
3.490349E+03	9.852319E-04	1.060963E-05
3.500350E+03	1.001385E-03	1.077194E-05
3.510351E+03	1.016368E-03	1.092125E-05
3.520352E+03	1.030233E-03	1.105816E-05
3.530353E+03	1.042905E-03	1.118191E-05
3.540354E+03	1.054202E-03	1.129057E-05
3.550355E+03	1.063847E-03	1.138124E-05
3.560356E+03	1.071437E-03	1.144967E-05
3.570357E+03	1.076475E-03	1.149063E-05
3.580358E+03	1.078629E-03	1.150066E-05
3.590359E+03	1.078263E-03	1.148375E-05
3.600360E+03	1.075795E-03	1.144442E-05
3.610361E+03	1.071770E-03	1.138857E-05
3.620362E+03	1.066939E-03	1.132420E-05
3.630363E+03	1.061878E-03	1.125747E-05
3.640364E+03	1.056885E-03	1.119152E-05
3.650365E+03	1.052304E-03	1.113000E-05
3.660366E+03	1.048272E-03	1.107434E-05
3.670367E+03	1.044753E-03	1.102416E-05
3.680368E+03	1.041653E-03	1.097841E-05
3.690369E+03	1.038789E-03	1.093519E-05
3.700370E+03	1.035919E-03	1.089192E-05
3.710371E+03	1.032877E-03	1.084686E-05
3.720372E+03	1.029507E-03	1.079840E-05
3.730373E+03	1.025830E-03	1.074676E-05
3.740374E+03	1.022162E-03	1.069525E-05
3.750375E+03	1.018906E-03	1.064811E-05
3.760376E+03	1.016305E-03	1.060782E-05
3.770377E+03	1.014318E-03	1.057396E-05
3.780378E+03	1.012722E-03	1.054418E-05
3.790379E+03	1.011393E-03	1.051717E-05
3.800380E+03	1.010309E-03	1.049268E-05
3.810381E+03	1.009548E-03	1.047154E-05
3.820382E+03	1.009179E-03	1.045442E-05
3.830383E+03	1.009154E-03	1.044084E-05
3.840384E+03	1.009333E-03	1.042931E-05
3.850385E+03	1.009424E-03	1.041682E-05
3.860386E+03	1.008660E-03	1.039548E-05
3.870387E+03	1.006318E-03	1.035787E-05
3.880388E+03	1.001874E-03	1.029867E-05
3.890389E+03	9.949181E-04	1.021376E-05
3.900390E+03	9.854342E-04	1.010308E-05
3.910391E+03	9.738451E-04	9.971054E-06
3.920392E+03	9.607577E-04	9.823984E-06
3.930393E+03	9.470819E-04	9.671221E-06
3.940394E+03	9.338543E-04	9.523362E-06
3.950395E+03	9.219886E-04	9.389698E-06
3.960396E+03	9.122861E-04	9.278322E-06
3.970397E+03	9.053028E-04	9.194796E-06
3.980398E+03	9.011131E-04	9.139760E-06
3.990399E+03	8.995043E-04	9.110946E-06
4.000400E+03	8.999483E-04	9.102905E-06
4.010401E+03	9.012587E-04	9.103569E-06
4.020402E+03	9.021944E-04	9.100381E-06
4.030403E+03	9.019005E-04	9.084748E-06
4.040404E+03	8.995747E-04	9.048649E-06
4.050405E+03	8.951001E-04	8.990999E-06
4.060406E+03	8.890290E-04	8.917429E-06
4.070407E+03	8.820876E-04	8.835282E-06
4.080408E+03	8.754377E-04	8.756216E-06
4.090409E+03	8.701862E-04	8.691276E-06
4.100410E+03	8.666126E-04	8.643190E-06
4.110411E+03	8.646936E-04	8.611656E-06
4.120412E+03	8.640865E-04	8.593194E-06
4.130413E+03	8.636699E-04	8.576614E-06
4.140414E+03	8.622194E-04	8.549765E-06
4.150415E+03	8.588218E-04	8.503651E-06
4.160416E+03	8.525461E-04	8.429153E-06
4.170417E+03	8.432449E-04	8.324943E-06
4.180418E+03	8.317153E-04	8.199010E-06
4.190419E+03	8.187559E-04	8.059314E-06
4.200420E+03	8.059526E-04	7.921509E-06
4.210421E+03	7.950204E-04	7.802418E-06
4.220422E+03	7.858356E-04	7.700750E-06
4.230423E+03	7.784472E-04	7.616908E-06
4.240424E+03	7.731804E-04	7.553992E-06
4.250425E+03	7.686599E-04	7.498492E-06
4.260426E+03	7.641319E-04	7.443033E-06
4.270427E+03	7.598461E-04	7.390047E-06
4.280428E+03	7.550267E-04	7.331988E-06
4.290429E+03	7.499339E-04	7.271405E-06
4.300430E+03	7.456088E-04	7.218390E-06
4.310431E+03	7.419812E-04	7.172231E-06
4.320432E+03	7.393639E-04	7.135916E-06
4.330433E+03	7.381734E-04	7.113415E-06
4.340434E+03	7.378610E-04	7.099385E-06
4.350435E+03	7.376829E-04	7.086643E-06
4.360436E+03	7.371045E-04	7.070055E-06
4.370437E+03	7.363489E-04	7.051777E-06
4.380438E+03	7.358191E-04	7.035670E-06
4.390439E+03	7.360910E-04	7.027224E-06
4.400440E+03	7.374234E-04	7.028868E-06
4.410441E+03	7.390062E-04	7.032848E-06
4.420442E+03	7.399917E-04	7.031098E-06
4.430443E+03	7.398182E-04	7.018317E-06
4.440444E+03	7.381536E-04	6.991412E-06
4.450445E+03	7.349626E-04	6.950118E-06
4.460446E+03	7.301845E-04	6.893933E-06
4.470447E+03	7.241040E-04	6.825612E-06
4.480448E+03	7.171652E-04	6.749394E-06
4.490449E+03	7.095110E-04	6.666661E-06
4.500450E+03	7.013570E-04	6.579470E-06
4.510451E+03	6.929817E-04	6.490454E-06
4.520452E+03	6.844920E-04	6.400621E-06
4.530453E+03	6.760254E-04	6.311261E-06
4.540454E+03	6.677284E-04	6.223740E-06
4.550455E+03	6.596061E-04	6.138099E-06
4.560456E+03	6.516509E-04	6.054259E-06
4.570457E+03	6.439321E-04	5.972857E-06
4.580458E+03	6.364901E-04	5.894257E-06
4.590459E+03	6.294735E-04	5.819820E-06
4.600460E+03	6.230771E-04	5.751327E-06
4.610461E+03	6.172677E-04	5.688444E-06
4.620462E+03	6.121135E-04	5.631771E-06
4.630463E+03	6.077699E-04	5.582710E-06
4.640464E+03	6.039046E-04	5.538176E-06
4.650465E+03	6.003494E-04	5.496608E-06
4.660466E+03	5.971715E-04	5.458608E-06
4.670467E+03	5.941470E-04	5.422116E-06
4.680468E+03	5.912986E-04	5.387334E-06
4.690469E+03	5.888861E-04	5.356615E-06
4.700470E+03	5.868992E-04	5.329850E-06
4.710471E+03	5.854555E-04	5.308085E-06
4.720472E+03	5.847629E-04	5.293180E-06
4.730473E+03	5.847295E-04	5.284272E-06
4.740474E+03	5.852883E-04	5.280727E-06
4.750475E+03	5.863908E-04	5.282084E-06
4.760476E+03	5.880388E-04	5.288337E-06
4.770477E+03	5.902169E-04	5.299325E-06
4.780478E+03	5.927952E-04	5.313861E-06
4.790479E+03	5.955695E-04	5.330102E-06
4.800480E+03	5.982185E-04	5.345170E-06
4.810481E+03	6.003861E-04	5.355895E-06
4.820482E+03	6.019412E-04	5.361132E-06
4.830483E+03	6.027446E-04	5.359670E-06
4.840484E+03	6.027028E-04	5.350714E-06
4.850485E+03	6.022708E-04	5.338333E-06
4.860486E+03	6.018034E-04	5.325685E-06
4.870487E+03	6.013606E-04	5.313302E-06
4.880488E+03	6.013005E-04	5.304345E-06
4.890489E+03	6.015834E-04	5.298447E-06
4.900490E+03	6.017735E-04	5.291765E-06
4.910491E+03	6.018396E-04	5.284028E-06
4.920492E+03	6.014092E-04	5.271979E-06
4.930493E+03	5.999241E-04	5.250754E-06
4.940494E+03	5.976290E-04	5.222534E-06
4.950495E+03	5.946003E-04	5.188021E-06
4.960496E+03	5.906705E-04	5.145785E-06
4.970497E+03	5.862940E-04	5.099816E-06
4.980498E+03	5.816492E-04	5.051683E-06
4.990499E+03	5.766840E-04	5.000942E-06
5.000500E+03	5.718087E-04	4.951161E-06
5.010501E+03	5.671776E-04	4.903669E-06
5.020502E+03	5.627119E-04	4.857778E-06
5.030503E+03	5.587244E-04	4.816176E-06
5.040504E+03	5.553022E-04	4.779596E-06
5.050505E+03	5.522887E-04	4.746670E-06
5.060506E+03	5.497216E-04	4.717706E-06
5.070507E+03	5.474542E-04	4.691433E-06
5.080508E+03	5.452046E-04	4.665425E-06
5.090509E+03	5.429048E-04	4.639102E-06
5.100510E+03	5.404088E-04	4.611222E-06
5.110511E+03	5.375192E-04	4.580109E-06
5.120512E+03	5.343419E-04	4.546679E-06
5.130513E+03	5.309338E-04	4.511427E-06
5.140514E+03	5.273366E-04	4.474714E-06
5.150515E+03	5.238211E-04	4.438842E-06
5.160516E+03	5.205675E-04	4.405333E-06
5.170517E+03	5.175795E-04	4.374210E-06
5.180518E+03	5.150332E-04	4.346949E-06
5.190519E+03	5.128926E-04	4.323232E-06
5.200520E+03	5.108998E-04	4.300878E-06
5.210521E+03	5.089929E-04	4.279359E-06
5.220522E+03	5.069577E-04	4.256876E-06
5.230523E+03	5.045427E-04	4.231324E-06
5.240524E+03	5.018791E-04	4.203813E-06
5.250525E+03	4.991183E-04	4.175620E-06
5.260526E+03	4.963574E-04	4.147557E-06
5.270527E+03	4.937159E-04	4.120623E-06
5.280528E+03	4.912677E-04	4.095429E-06
5.290529E+03	4.890268E-04	4.072087E-06
5.300530E+03	4.869319E-04	4.050082E-06
5.310531E+03	4.848782E-04	4.028538E-06
5.320532E+03	4.827683E-04	4.006648E-06
5.330533E+03	4.805872E-04	3.984287E-06
5.340534E+03	4.783177E-04	3.961317E-06
5.350535E+03	4.759301E-04	3.937492E-06
5.360536E+03	4.733082E-04	3.911857E-06
5.370537E+03	4.703369E-04	3.883465E-06
5.380538E+03	4.670158E-04	3.852324E-06
5.390539E+03	4.635108E-04	3.819806E-06
5.400540E+03	4.600539E-04	3.787827E-06
5.410541E+03	4.568079E-04	3.757722E-06
5.420542E+03	4.536763E-04	3.728694E-06
5.430543E+03	4.505143E-04	3.699548E-06
5.440544E+03	4.471995E-04	3.669280E-06
5.450545E+03	4.433386E-04	3.634662E-06
5.460546E+03	4.386440E-04	3.593348E-06
5.470547E+03	4.332455E-04	3.546412E-06
5.480548E+03	4.278462E-04	3.499615E-06
5.490549E+03	4.230295E-04	3.457721E-06
5.500550E+03	4.188968E-04	3.421544E-06
5.510551E+03	4.156851E-04	3.393004E-06
5.520552E+03	4.132375E-04	3.370803E-06
5.530553E+03	4.110889E-04	3.351135E-06
5.540554E+03	4.090521E-04	3.332468E-06
5.550555E+03	4.070293E-04	3.314002E-06
5.560556E+03	4.049597E-04	3.295240E-06
5.570557E+03	4.027141E-04	3.275130E-06
5.580558E+03	4.002975E-04	3.253713E-06
5.590559E+03	3.978697E-04	3.232287E-06
5.600560E+03	3.954016E-04	3.210615E-06
5.610561E+03	3.930110E-04	3.189649E-06
5.620562E+03	3.908987E-04	3.171017E-06
5.630563E+03	3.888784E-04	3.153203E-06
5.640564E+03	3.868939E-04	3.135748E-06
5.650565E+03	3.850199E-04	3.119256E-06
5.660566E+03	3.830443E-04	3.102004E-06
5.670567E+03	3.809334E-04	3.083723E-06
5.680568E+03	3.788009E-04	3.065328E-06
5.690569E+03	3.766234E-04	3.046630E-06
5.700570E+03	3.745021E-04	3.028447E-06
5.710571E+03	3.726137E-04	3.012204E-06
5.720572E+03	3.709535E-04	2.997860E-06
5.730573E+03	3.695461E-04	2.985610E-06
5.740574E+03	3.684164E-04	2.975653E-06
5.750575E+03	3.674687E-04	2.967212E-06
5.760576E+03	3.665767E-04	2.959267E-06
5.770577E+03	3.656447E-04	2.951041E-06
5.780578E+03	3.646141E-04	2.942063E-06
5.790579E+03	3.634526E-04	2.932070E-06
5.800580E+03	3.621095E-04	2.920654E-06
5.810581E+03	3.606166E-04	2.908070E-06
5.820582E+03	3.589594E-04	2.894202E-06
5.830583E+03	3.570726E-04	2.878521E-06
5.840584E+03	3.550042E-04	2.861415E-06
5.850585E+03	3.527228E-04	2.842629E-06
5.860586E+03	3.501544E-04	2.821568E-06
5.870587E+03	3.474663E-04	2.799578E-06
5.880588E+03	3.447437E-04	2.777344E-06
5.890589E+03	3.419890E-04	2.754885E-06
5.900590E+03	3.393681E-04	2.733536E-06
5.910591E+03	3.369507E-04	2.713856E-06
5.920592E+03	3.346826E-04	2.695407E-06
5.930593E+03	3.325695E-04	2.678234E-06
5.940594E+03	3.305431E-04	2.661785E-06
5.950595E+03	3.284906E-04	2.645152E-06
5.960596E+03	3.263988E-04	2.628226E-06
5.970597E+03	3.242441E-04	2.610816E-06
5.980598E+03	3.219649E-04	2.592427E-06
5.990599E+03	3.196127E-04	2.573471E-06
6.000600E+03	3.172070E-04	2.554104E-06
6.010601E+03	3.147307E-04	2.534188E-06
6.020602E+03	3.122538E-04	2.514285E-06
6.030603E+03	3.098033E-04	2.494612E-06
6.040604E+03	3.073821E-04	2.475192E-06
6.050605E+03	3.050389E-04	2.456415E-06
6.060606E+03	3.027953E-04	2.438454E-06
6.070607E+03	3.006277E-04	2.421120E-06
6.080608E+03	2.985714E-04	2.404695E-06
6.090609E+03	2.966179E-04	2.389111E-06
6.100610E+03	2.947221E-04	2.374004E-06
6.110611E+03	2.929227E-04	2.359684E-06
6.120612E+03	2.912044E-04	2.346028E-06
6.130613E+03	2.895249E-04	2.332696E-06
6.140614E+03	2.879149E-04	2.319933E-06
6.150615E+03	2.863722E-04	2.307722E-06
6.160616E+03	2.848426E-04	2.295625E-06
6.170617E+03	2.833662E-04	2.283965E-06
6.180618E+03	2.819317E-04	2.272652E-06
6.190619E+03	2.804890E-04	2.261279E-06
6.200620E+03	2.790232E-04	2.249727E-06
6.210621E+03	2.774955E-04	2.237683E-06
6.220622E+03	2.758543E-04	2.224729E-06
6.230623E+03	2.741227E-04	2.211052E-06
6.240624E+03	2.723175E-04	2.196785E-06
6.250625E+03	2.704478E-04	2.182001E-06
6.260626E+03	2.686330E-04	2.167665E-06
6.270627E+03	2.669824E-04	2.154657E-06
6.280628E+03	2.655974E-04	2.143796E-06
6.290629E+03	2.644944E-04	2.135216E-06
6.300630E+03	2.636722E-04	2.128906E-06
6.310631E+03	2.631414E-04	2.124955E-06
6.320632E+03	2.628232E-04	2.122725E-06
6.330633E+03	2.626427E-04	2.121612E-06
6.340634E+03	2.625567E-04	2.121269E-06
6.350635E+03	2.625413E-04	2.121501E-06
6.360636E+03	2.626023E-04	2.122356E-06
6.370637E+03	2.627472E-04	2.123896E-06
6.380638E+03	2.628921E-04	2.125440E-06
6.390639E+03	2.629604E-04	2.126369E-06
6.400640E+03	2.629108E-04	2.126349E-06
6.410641E+03	2.626963E-04	2.125000E-06
6.420642E+03	2.623138E-04	2.122293E-06
6.430643E+03	2.617856E-04	2.118409E-06
6.440644E+03	2.611069E-04	2.113309E-06
6.450645E+03	2.602977E-04	2.107153E-06
6.460646E+03	2.594145E-04	2.100396E-06
6.470647E+03	2.584541E-04	2.093014E-06
6.480648E+03	2.574322E-04	2.085133E-06
6.490649E+03	2.564118E-04	2.077261E-06
6.500650E+03	2.554078E-04	2.069520E-06
6.510651E+03	2.544698E-04	2.062311E-06
6.520652E+03	2.536902E-04	2.056384E-06
6.530653E+03	2.532165E-04	2.052934E-06
6.540654E+03	2.530496E-04	2.051971E-06
6.550655E+03	2.530051E-04	2.051999E-06
6.560656E+03	2.529374E-04	2.051838E-06
6.570657E+03	2.527577E-04	2.050768E-06
6.580658E+03	2.524305E-04	2.048499E-06
6.590659E+03	2.519079E-04	2.044642E-06
6.600660E+03	2.511898E-04	2.039194E-06
6.610661E+03	2.503207E-04	2.032516E-06
6.620662E+03	2.492965E-04	2.024575E-06
6.630663E+03	2.481603E-04	2.015719E-06
6.640664E+03	2.469752E-04	2.006460E-06
6.650665E+03	2.457323E-04	1.996726E-06
6.660666E+03	2.444517E-04	1.986679E-06
6.670667E+03	2.431852E-04	1.976740E-06
6.680668E+03	2.419115E-04	1.966737E-06
6.690669E+03	2.406354E-04	1.956707E-06
6.700670E+03	2.394045E-04	1.947039E-06
6.710671E+03	2.381724E-04	1.937355E-06
6.720672E+03	2.369380E-04	1.927646E-06
6.730673E+03	2.357340E-04	1.918177E-06
6.740674E+03	2.345102E-04	1.908541E-06
6.750675E+03	2.332644E-04	1.898719E-06
6.760676E+03	2.320238E-04	1.888933E-06
6.770677E+03	2.307508E-04	1.878876E-06
6.780678E+03	2.294390E-04	1.868497E-06
6.790679E+03	2.281229E-04	1.858077E-06
6.800680E+03	2.267559E-04	1.847235E-06
6.810681E+03	2.253191E-04	1.835817E-06
6.820682E+03	2.238591E-04	1.824204E-06
6.830683E+03	2.223485E-04	1.812171E-06
6.840684E+03	2.208247E-04	1.800024E-06
6.850685E+03	2.193480E-04	1.788254E-06
6.860686E+03	2.179067E-04	1.776765E-06
6.870687E+03	2.165236E-04	1.765746E-06
6.880688E+03	2.152475E-04	1.755591E-06
6.890689E+03	2.140568E-04	1.746129E-06
6.900690E+03	2.129723E-04	1.737527E-06
6.910691E+03	2.120161E-04	1.729966E-06
6.920692E+03	2.111184E-04	1.722878E-06
6.930693E+03	2.102210E-04	1.715788E-06
6.940694E+03	2.093231E-04	1.708689E-06
6.950695E+03	2.083734E-04	1.701162E-06
6.960696E+03	2.073687E-04	1.693183E-06
6.970697E+03	2.063589E-04	1.685156E-06
6.980698E+03	2.053188E-04	1.676879E-06
6.990699E+03	2.042650E-04	1.668486E-06
7.000700E+03	2.032602E-04	1.660488E-06
7.010701E+03	2.022899E-04	1.652768E-06
7.020702E+03	2.013851E-04	1.645581E-06
7.030703E+03	2.005981E-04	1.639352E-06
7.040704E+03	1.998979E-04	1.633830E-06
7.050705E+03	1.992708E-04	1.628903E-06
7.060706E+03	1.987512E-04	1.624853E-06
7.070707E+03	1.982806E-04	1.621201E-06
7.080708E+03	1.978448E-04	1.617833E-06
7.090709E+03	1.974618E-04	1.614894E-06
7.100710E+03	1.970580E-04	1.611784E-06
7.110711E+03	1.965975E-04	1.608210E-06
7.120712E+03	1.961005E-04	1.604336E-06
7.130713E+03	1.955057E-04	1.599662E-06
7.140714E+03	1.948031E-04	1.594104E-06
7.150715E+03	1.940288E-04	1.587959E-06
7.160716E+03	1.931497E-04	1.580955E-06
7.170717E+03	1.921851E-04	1.573251E-06
7.180718E+03	1.911844E-04	1.565250E-06
7.190719E+03	1.901268E-04	1.556783E-06
7.200720E+03	1.890305E-04	1.548000E-06
7.210721E+03	1.879418E-04	1.539277E-06
7.220722E+03	1.868525E-04	1.530550E-06
7.230723E+03	1.857800E-04	1.521961E-06
7.240724E+03	1.847932E-04	1.514074E-06
7.250725E+03	1.838968E-04	1.506929E-06
7.260726E+03	1.831366E-04	1.500901E-06
7.270727E+03	1.825803E-04	1.496546E-06
7.280728E+03	1.821744E-04	1.493427E-06
7.290729E+03	1.818849E-04	1.491265E-06
7.300730E+03	1.817129E-04	1.490070E-06
7.310731E+03	1.815479E-04	1.488936E-06
7.320732E+03	1.813075E-04	1.487189E-06
7.330733E+03	1.809572E-04	1.484544E-06
7.340734E+03	1.804398E-04	1.480534E-06
7.350735E+03	1.797510E-04	1.475120E-06
7.360736E+03	1.789277E-04	1.468607E-06
7.370737E+03	1.779976E-04	1.461221E-06
7.380738E+03	1.770330E-04	1.453555E-06
7.390739E+03	1.761285E-04	1.446388E-06
7.400740E+03	1.752663E-04	1.439572E-06
7.410741E+03	1.744550E-04	1.433179E-06
7.420742E+03	1.737287E-04	1.427489E-06
7.430743E+03	1.730300E-04	1.422033E-06
7.440744E+03	1.723425E-04	1.416674E-06
7.450745E+03	1.716685E-04	1.411433E-06
7.460746E+03	1.709617E-04	1.405928E-06
7.470747E+03	1.702035E-04	1.400008E-06
7.480748E+03	1.694180E-04	1.393869E-06
7.490749E+03	1.685527E-04	1.387081E-06
7.500750E+03	1.676021E-04	1.379597E-06
7.510751E+03	1.665841E-04	1.371565E-06
7.520752E+03	1.654230E-04	1.362360E-06
7.530753E+03	1.640867E-04	1.351720E-06
7.540754E+03	1.625740E-04	1.339630E-06
7.550755E+03	1.608601E-04	1.325887E-06
7.560756E+03	1.589644E-04	1.310648E-06
7.570757E+03	1.569732E-04	1.294625E-06
7.580758E+03	1.549630E-04	1.278446E-06
7.590759E+03	1.530522E-04	1.263091E-06
7.600760E+03	1.513456E-04	1.249423E-06
7.610761E+03	1.498757E-04	1.237713E-06
7.620762E+03	1.486560E-04	1.228076E-06
7.630763E+03	1.476752E-04	1.220418E-06
7.640764E+03	1.468688E-04	1.214211E-06
7.650765E+03	1.461621E-04	1.208836E-06
7.660766E+03	1.454764E-04	1.203645E-06
7.670767E+03	1.447494E-04	1.198123E-06
7.680768E+03	1.439129E-04	1.191703E-06
7.690769E+03	1.429304E-04	1.184083E-06
7.700770E+03	1.418138E-04	1.175359E-06
7.710771E+03	1.405878E-04	1.165736E-06
7.720772E+03	1.392863E-04	1.155493E-06
7.730773E+03	1.379370E-04	1.144859E-06
7.740774E+03	1.365728E-04	1.134106E-06
7.750775E+03	1.352263E-04	1.123506E-06
7.760776E+03	1.339118E-04	1.113176E-06
