#wls	flux	fluxerr
1.600160E+03	1.707206E-05	4.403107E-07
1.640164E+03	1.745632E-05	4.492949E-07
1.680168E+03	1.782175E-05	4.577309E-07
1.720172E+03	1.816547E-05	4.655463E-07
1.760176E+03	1.848500E-05	4.726796E-07
1.800180E+03	1.877032E-05	4.788775E-07
1.840184E+03	1.900484E-05	4.837225E-07
1.880188E+03	1.917337E-05	4.868364E-07
1.920192E+03	1.925463E-05	4.876917E-07
1.960196E+03	1.923756E-05	4.860244E-07
2.000200E+03	1.913012E-05	4.820541E-07
2.040204E+03	1.897995E-05	4.769959E-07
2.080208E+03	1.888987E-05	4.734360E-07
2.120212E+03	1.901752E-05	4.753022E-07
2.160216E+03	1.951145E-05	4.862497E-07
2.200220E+03	2.046204E-05	5.084436E-07
2.240224E+03	2.185367E-05	5.413922E-07
2.280228E+03	2.361414E-05	5.832071E-07
2.320232E+03	2.565157E-05	6.315345E-07
2.360236E+03	2.790109E-05	6.847082E-07
2.400240E+03	3.031990E-05	7.416214E-07
2.440244E+03	3.289949E-05	8.020144E-07
2.480248E+03	3.564110E-05	8.658670E-07
2.520252E+03	3.855862E-05	9.334628E-07
2.560256E+03	4.167708E-05	1.005348E-06
2.600260E+03	4.501491E-05	1.081902E-06
2.640264E+03	4.860005E-05	1.163722E-06
2.680268E+03	5.245353E-05	1.251229E-06
2.720272E+03	5.660103E-05	1.344946E-06
2.760276E+03	6.105514E-05	1.445077E-06
2.800280E+03	6.583387E-05	1.551943E-06
2.840284E+03	7.094889E-05	1.665712E-06
2.880288E+03	7.639912E-05	1.786248E-06
2.920292E+03	8.217474E-05	1.913210E-06
2.960296E+03	8.827294E-05	2.046423E-06
3.000300E+03	9.468432E-05	2.185561E-06
3.010301E+03	9.633362E-05	2.221202E-06
3.020302E+03	9.800272E-05	2.257210E-06
3.030303E+03	9.969008E-05	2.293549E-06
3.040304E+03	1.013952E-04	2.330206E-06
3.050305E+03	1.031205E-04	2.367233E-06
3.060306E+03	1.048725E-04	2.404780E-06
3.070307E+03	1.066483E-04	2.442777E-06
3.080308E+03	1.084490E-04	2.481250E-06
3.090309E+03	1.102679E-04	2.520040E-06
3.100310E+03	1.121060E-04	2.559171E-06
3.110311E+03	1.139647E-04	2.598671E-06
3.120312E+03	1.158371E-04	2.638385E-06
3.130313E+03	1.177248E-04	2.678344E-06
3.140314E+03	1.196292E-04	2.718583E-06
3.150315E+03	1.215441E-04	2.758956E-06
3.160316E+03	1.234757E-04	2.799605E-06
3.170317E+03	1.254224E-04	2.840491E-06
3.180318E+03	1.273789E-04	2.881496E-06
3.190319E+03	1.293528E-04	2.922788E-06
3.200320E+03	1.313440E-04	2.964364E-06
3.210321E+03	1.333536E-04	3.006247E-06
3.220322E+03	1.353833E-04	3.048477E-06
3.230323E+03	1.374445E-04	3.091305E-06
3.240324E+03	1.395416E-04	3.134829E-06
3.250325E+03	1.416769E-04	3.179101E-06
3.260326E+03	1.438666E-04	3.224477E-06
3.270327E+03	1.461213E-04	3.271191E-06
3.275518E+03	1.475456E-04	3.301072E-06
3.279948E+03	1.483469E-04	3.317282E-06
3.284398E+03	1.495992E-04	3.343544E-06
3.288849E+03	1.513003E-04	3.379803E-06
3.293299E+03	1.536259E-04	3.429964E-06
3.297760E+03	1.559048E-04	3.479025E-06
3.302230E+03	1.579022E-04	3.521750E-06
3.306701E+03	1.600405E-04	3.567567E-06
3.311181E+03	1.618201E-04	3.605341E-06
3.315672E+03	1.634833E-04	3.640476E-06
3.320162E+03	1.654232E-04	3.681728E-06
3.324652E+03	1.670682E-04	3.716378E-06
3.329163E+03	1.686065E-04	3.748605E-06
3.333673E+03	1.704733E-04	3.788097E-06
3.338184E+03	1.722952E-04	3.826548E-06
3.342714E+03	1.741909E-04	3.866586E-06
3.347235E+03	1.759846E-04	3.904318E-06
3.351775E+03	1.779784E-04	3.946437E-06
3.356316E+03	1.792977E-04	3.973561E-06
3.360856E+03	1.800111E-04	3.987236E-06
3.365417E+03	1.801684E-04	3.988570E-06
3.369977E+03	1.802251E-04	3.987676E-06
3.374537E+03	1.808609E-04	3.999587E-06
3.379108E+03	1.816245E-04	4.014305E-06
3.383688E+03	1.828362E-04	4.038897E-06
3.388269E+03	1.849353E-04	4.083055E-06
3.392859E+03	1.880242E-04	4.148998E-06
3.397460E+03	1.921030E-04	4.236695E-06
3.402060E+03	1.973460E-04	4.349955E-06
3.406671E+03	2.033985E-04	4.480921E-06
3.411281E+03	2.098909E-04	4.621426E-06
3.415902E+03	2.173470E-04	4.782979E-06
3.420532E+03	2.249103E-04	4.946705E-06
3.425163E+03	2.322653E-04	5.105669E-06
3.429803E+03	2.395185E-04	5.262216E-06
3.434453E+03	2.465356E-04	5.413399E-06
3.439104E+03	2.525785E-04	5.543033E-06
3.443764E+03	2.575698E-04	5.649452E-06
3.448435E+03	2.609451E-04	5.720318E-06
3.453105E+03	2.626045E-04	5.753510E-06
3.457776E+03	2.623984E-04	5.745815E-06
3.462466E+03	2.606250E-04	5.703811E-06
3.467157E+03	2.576567E-04	5.635718E-06
3.471847E+03	2.541893E-04	5.556789E-06
3.476558E+03	2.514415E-04	5.493654E-06
3.481268E+03	2.494130E-04	5.446297E-06
3.485979E+03	2.485468E-04	5.424356E-06
3.490699E+03	2.490816E-04	5.432992E-06
3.495430E+03	2.502814E-04	5.456109E-06
3.500170E+03	2.519278E-04	5.488922E-06
3.504910E+03	2.535980E-04	5.522215E-06
3.509661E+03	2.552919E-04	5.555980E-06
3.514411E+03	2.562885E-04	5.574539E-06
3.519172E+03	2.570851E-04	5.588723E-06
3.523942E+03	2.581790E-04	5.609343E-06
3.528713E+03	2.600426E-04	5.646654E-06
3.533493E+03	2.626511E-04	5.700081E-06
3.538284E+03	2.664520E-04	5.779305E-06
3.543074E+03	2.700530E-04	5.854104E-06
3.547875E+03	2.720366E-04	5.893771E-06
3.552685E+03	2.721791E-04	5.893523E-06
3.557496E+03	2.707296E-04	5.858821E-06
3.562316E+03	2.682350E-04	5.801548E-06
3.567137E+03	2.653170E-04	5.735189E-06
3.571977E+03	2.629703E-04	5.681232E-06
3.576808E+03	2.613436E-04	5.642893E-06
3.581658E+03	2.609344E-04	5.630855E-06
3.586509E+03	2.618667E-04	5.647767E-06
3.591369E+03	2.641652E-04	5.694101E-06
3.596230E+03	2.671834E-04	5.755889E-06
3.601110E+03	2.701509E-04	5.816501E-06
3.605981E+03	2.725955E-04	5.865802E-06
3.610871E+03	2.733990E-04	5.879739E-06
3.615762E+03	2.724623E-04	5.856260E-06
3.620662E+03	2.701086E-04	5.802364E-06
3.625563E+03	2.676554E-04	5.746394E-06
3.630473E+03	2.651273E-04	5.688876E-06
3.635394E+03	2.628972E-04	5.637809E-06
3.640324E+03	2.616851E-04	5.608613E-06
3.645255E+03	2.618388E-04	5.608710E-06
3.650185E+03	2.639042E-04	5.649737E-06
3.655136E+03	2.682783E-04	5.740103E-06
3.660086E+03	2.749109E-04	5.878664E-06
3.665047E+03	2.827585E-04	6.043028E-06
3.670007E+03	2.920193E-04	6.237397E-06
3.674977E+03	3.022712E-04	6.452695E-06
3.679958E+03	3.125950E-04	6.669280E-06
3.684948E+03	3.225937E-04	6.878681E-06
3.689939E+03	3.322180E-04	7.079869E-06
3.694939E+03	3.412195E-04	7.267558E-06
3.699940E+03	3.486059E-04	7.420659E-06
3.704950E+03	3.550227E-04	7.552952E-06
3.709971E+03	3.602222E-04	7.659209E-06
3.715002E+03	3.636342E-04	7.727358E-06
3.720032E+03	3.656809E-04	7.766435E-06
3.725073E+03	3.669082E-04	7.788074E-06
3.730113E+03	3.668455E-04	7.782325E-06
3.735174E+03	3.656912E-04	7.753428E-06
3.740234E+03	3.634212E-04	7.700927E-06
3.745295E+03	3.602342E-04	7.629070E-06
3.750375E+03	3.557088E-04	7.528955E-06
3.755456E+03	3.497714E-04	7.399090E-06
3.760536E+03	3.426208E-04	7.243727E-06
3.765637E+03	3.348767E-04	7.075991E-06
3.770737E+03	3.263659E-04	6.892258E-06
3.775848E+03	3.178816E-04	6.709288E-06
3.780958E+03	3.097705E-04	6.534407E-06
3.786079E+03	3.020575E-04	6.368112E-06
3.791209E+03	2.945689E-04	6.206732E-06
3.796350E+03	2.882952E-04	6.071116E-06
3.801490E+03	2.834589E-04	5.965912E-06
3.806641E+03	2.792178E-04	5.873345E-06
3.811801E+03	2.759430E-04	5.801196E-06
3.816962E+03	2.732382E-04	5.741110E-06
3.822132E+03	2.712763E-04	5.696693E-06
3.827313E+03	2.703046E-04	5.673107E-06
3.832493E+03	2.708672E-04	5.681737E-06
3.837684E+03	2.733841E-04	5.731328E-06
3.842884E+03	2.779783E-04	5.824388E-06
3.848095E+03	2.851438E-04	5.971191E-06
3.853305E+03	2.953496E-04	6.181470E-06
3.858526E+03	3.088172E-04	6.459743E-06
3.863756E+03	3.251993E-04	6.798640E-06
3.868987E+03	3.436791E-04	7.180997E-06
3.874227E+03	3.635140E-04	7.591233E-06
3.879478E+03	3.834431E-04	8.002981E-06
3.884728E+03	4.013656E-04	8.372429E-06
3.889999E+03	4.225210E-04	8.808862E-06
3.895260E+03	4.433009E-04	9.237014E-06
3.900540E+03	4.591345E-04	9.561678E-06
3.905821E+03	4.707155E-04	9.797486E-06
3.911121E+03	4.777983E-04	9.939454E-06
3.916412E+03	4.810760E-04	1.000218E-05
3.921722E+03	4.813896E-04	1.000324E-05
3.927033E+03	4.829129E-04	1.002943E-05
3.932353E+03	4.821152E-04	1.000743E-05
3.937684E+03	4.799351E-04	9.956770E-06
3.943014E+03	4.766202E-04	9.882656E-06
3.948355E+03	4.717759E-04	9.776932E-06
3.953705E+03	4.654766E-04	9.641194E-06
3.959066E+03	4.588828E-04	9.499510E-06
3.964426E+03	4.524632E-04	9.361598E-06
3.969797E+03	4.458971E-04	9.220812E-06
3.975178E+03	4.390610E-04	9.074605E-06
3.980558E+03	4.328185E-04	8.940831E-06
3.985949E+03	4.344930E-04	8.970663E-06
3.991349E+03	4.423064E-04	9.127149E-06
3.996760E+03	4.531748E-04	9.346487E-06
4.002170E+03	4.663576E-04	9.613321E-06
4.007591E+03	4.792414E-04	9.873724E-06
4.013021E+03	4.893371E-04	1.007645E-05
4.018462E+03	4.954138E-04	1.019626E-05
4.023902E+03	4.994932E-04	1.027489E-05
4.029353E+03	4.977574E-04	1.023388E-05
4.034813E+03	4.925735E-04	1.012207E-05
4.040284E+03	4.853463E-04	9.968426E-06
4.045755E+03	4.769633E-04	9.791232E-06
4.051235E+03	4.686561E-04	9.615789E-06
4.056726E+03	4.624188E-04	9.482985E-06
4.062216E+03	4.593340E-04	9.414955E-06
4.067727E+03	4.589078E-04	9.401466E-06
4.073237E+03	4.599584E-04	9.418252E-06
4.078748E+03	4.606394E-04	9.427480E-06
4.084278E+03	4.594499E-04	9.398445E-06
4.089809E+03	4.560955E-04	9.325198E-06
4.095350E+03	4.503064E-04	9.202286E-06
4.100900E+03	4.423786E-04	9.035826E-06
4.106451E+03	4.332968E-04	8.845997E-06
4.112021E+03	4.250038E-04	8.672455E-06
4.117592E+03	4.188271E-04	8.542270E-06
4.123162E+03	4.146429E-04	8.452857E-06
4.128753E+03	4.118360E-04	8.391599E-06
4.134343E+03	4.094226E-04	8.338442E-06
4.139944E+03	4.061495E-04	8.267852E-06
4.145555E+03	4.005919E-04	8.150862E-06
4.151165E+03	3.921857E-04	7.976076E-06
4.156796E+03	3.813741E-04	7.752566E-06
4.162426E+03	3.689686E-04	7.496905E-06
4.168067E+03	3.563450E-04	7.237069E-06
4.173707E+03	3.446332E-04	6.996005E-06
4.179368E+03	3.338325E-04	6.773658E-06
4.185029E+03	3.249981E-04	6.591418E-06
4.190699E+03	3.185467E-04	6.457666E-06
4.196370E+03	3.145261E-04	6.373312E-06
4.202060E+03	3.128617E-04	6.336770E-06
4.207751E+03	3.136016E-04	6.348958E-06
4.213451E+03	3.174560E-04	6.424181E-06
4.219162E+03	3.248651E-04	6.571259E-06
4.224872E+03	3.346012E-04	6.765284E-06
4.230603E+03	3.459030E-04	6.990801E-06
4.236334E+03	3.576421E-04	7.224987E-06
4.242064E+03	3.687891E-04	7.447047E-06
4.247815E+03	3.784126E-04	7.638186E-06
4.253575E+03	3.861946E-04	7.792038E-06
4.259336E+03	3.927487E-04	7.921030E-06
4.265107E+03	3.980507E-04	8.024701E-06
4.270877E+03	4.023219E-04	8.107549E-06
4.276668E+03	4.060521E-04	8.179457E-06
4.282458E+03	4.094132E-04	8.243908E-06
4.288259E+03	4.128215E-04	8.309290E-06
4.294069E+03	4.163256E-04	8.376580E-06
4.299890E+03	4.194606E-04	8.436427E-06
4.305711E+03	4.221780E-04	8.487868E-06
4.311551E+03	4.248445E-04	8.538276E-06
4.317392E+03	4.274603E-04	8.587669E-06
4.323232E+03	4.299767E-04	8.635067E-06
4.329093E+03	4.316353E-04	8.665244E-06
4.334953E+03	4.318748E-04	8.666958E-06
4.340834E+03	4.302799E-04	8.631904E-06
4.346715E+03	4.265587E-04	8.554276E-06
4.352595E+03	4.208592E-04	8.437084E-06
4.358496E+03	4.132065E-04	8.280862E-06
4.364396E+03	4.045546E-04	8.104769E-06
4.370317E+03	3.954653E-04	7.920066E-06
4.376238E+03	3.864765E-04	7.737536E-06
4.382158E+03	3.783202E-04	7.571826E-06
4.388099E+03	3.709469E-04	7.421919E-06
4.394039E+03	3.642101E-04	7.284873E-06
4.400000E+03	3.579142E-04	7.156757E-06
4.405961E+03	3.518394E-04	7.033175E-06
4.411921E+03	3.464735E-04	6.923867E-06
4.417902E+03	3.419862E-04	6.832205E-06
4.423892E+03	3.385237E-04	6.761092E-06
4.429883E+03	3.365237E-04	6.719256E-06
4.435884E+03	3.366431E-04	6.719775E-06
4.441894E+03	3.390265E-04	6.765507E-06
4.447905E+03	3.439402E-04	6.861724E-06
4.453935E+03	3.511633E-04	7.003977E-06
4.459966E+03	3.599396E-04	7.177161E-06
4.466007E+03	3.693676E-04	7.363276E-06
4.472057E+03	3.789601E-04	7.552610E-06
4.478118E+03	3.885712E-04	7.742248E-06
4.484188E+03	3.983222E-04	7.934614E-06
4.490259E+03	4.081643E-04	8.128739E-06
4.496340E+03	4.174899E-04	8.312519E-06
4.502430E+03	4.264205E-04	8.488388E-06
4.508531E+03	4.354665E-04	8.666506E-06
4.514641E+03	4.448705E-04	8.851702E-06
4.520762E+03	4.543410E-04	9.038174E-06
4.526883E+03	4.634408E-04	9.217232E-06
4.533013E+03	4.719275E-04	9.384060E-06
4.539154E+03	4.790495E-04	9.523722E-06
4.545305E+03	4.850018E-04	9.640114E-06
4.551465E+03	4.898338E-04	9.734234E-06
4.557626E+03	4.939102E-04	9.813344E-06
4.563806E+03	4.972070E-04	9.876968E-06
4.569987E+03	4.992405E-04	9.915519E-06
4.576178E+03	5.000120E-04	9.929029E-06
4.582378E+03	4.997886E-04	9.922818E-06
4.588589E+03	4.985469E-04	9.896431E-06
4.594799E+03	4.959013E-04	9.842226E-06
4.601030E+03	4.918284E-04	9.759747E-06
4.607261E+03	4.863540E-04	9.649526E-06
4.613501E+03	4.796486E-04	9.514953E-06
4.619752E+03	4.721240E-04	9.364207E-06
4.626013E+03	4.637090E-04	9.195879E-06
4.632273E+03	4.540421E-04	9.002815E-06
4.638554E+03	4.432212E-04	8.786954E-06
4.644834E+03	4.318992E-04	8.561255E-06
4.651125E+03	4.200283E-04	8.324767E-06
4.657426E+03	4.079228E-04	8.083723E-06
4.663736E+03	3.951251E-04	7.829054E-06
4.670057E+03	3.819974E-04	7.567938E-06
4.676388E+03	3.683957E-04	7.297524E-06
4.682718E+03	3.542006E-04	7.015447E-06
4.689059E+03	3.405437E-04	6.744122E-06
4.695410E+03	3.290370E-04	6.515458E-06
4.701770E+03	3.211212E-04	6.357963E-06
4.708141E+03	3.173215E-04	6.282009E-06
4.714521E+03	3.183300E-04	6.301266E-06
4.720912E+03	3.245017E-04	6.422729E-06
4.727303E+03	3.353025E-04	6.635794E-06
4.733713E+03	3.493339E-04	6.912759E-06
4.740124E+03	3.646487E-04	7.215080E-06
4.746545E+03	3.789662E-04	7.497627E-06
4.752975E+03	3.906092E-04	7.727227E-06
4.759416E+03	3.990053E-04	7.892577E-06
4.765857E+03	4.038714E-04	7.988095E-06
4.772317E+03	4.062888E-04	8.035186E-06
4.778778E+03	4.069312E-04	8.047187E-06
4.785259E+03	4.071644E-04	8.051108E-06
4.791739E+03	4.075871E-04	8.058796E-06
4.798230E+03	4.089161E-04	8.084417E-06
4.804730E+03	4.131574E-04	8.167623E-06
4.811241E+03	4.179425E-04	8.261582E-06
4.817762E+03	4.228646E-04	8.358251E-06
4.824282E+03	4.272081E-04	8.443486E-06
4.830823E+03	4.299234E-04	8.496547E-06
4.837364E+03	4.303935E-04	8.505247E-06
4.843914E+03	4.287163E-04	8.471532E-06
4.850475E+03	4.249190E-04	8.395943E-06
4.857046E+03	4.192423E-04	8.283246E-06
4.863626E+03	4.122604E-04	8.144791E-06
4.870217E+03	4.058064E-04	8.016797E-06
4.876818E+03	4.009261E-04	7.919914E-06
4.883428E+03	3.984249E-04	7.870052E-06
4.890039E+03	3.990361E-04	7.881680E-06
4.896660E+03	4.023271E-04	7.946249E-06
4.903300E+03	4.077008E-04	8.051953E-06
4.909941E+03	4.134708E-04	8.165483E-06
4.916592E+03	4.191856E-04	8.277922E-06
4.923252E+03	4.256507E-04	8.405175E-06
4.929923E+03	4.301655E-04	8.493918E-06
4.936604E+03	4.333485E-04	8.556364E-06
4.943284E+03	4.354384E-04	8.597233E-06
4.949985E+03	4.362944E-04	8.613747E-06
4.956696E+03	4.359897E-04	8.607354E-06
4.963406E+03	4.342903E-04	8.573436E-06
4.970127E+03	4.307971E-04	8.504119E-06
4.976868E+03	4.243802E-04	8.377103E-06
4.983608E+03	4.152575E-04	8.196695E-06
4.990359E+03	4.037867E-04	7.969961E-06
4.997120E+03	3.901838E-04	7.701170E-06
5.003890E+03	3.758883E-04	7.418734E-06
5.010671E+03	3.619601E-04	7.143575E-06
5.017452E+03	3.496217E-04	6.899815E-06
5.024252E+03	3.404677E-04	6.718919E-06
5.031053E+03	3.351038E-04	6.612833E-06
5.037874E+03	3.337576E-04	6.586040E-06
5.044694E+03	3.352500E-04	6.615262E-06
5.051535E+03	3.387313E-04	6.683730E-06
5.058376E+03	3.435426E-04	6.778440E-06
5.065227E+03	3.489555E-04	6.885015E-06
5.072087E+03	3.545475E-04	6.995118E-06
5.078958E+03	3.597101E-04	7.096746E-06
5.085839E+03	3.636731E-04	7.174701E-06
5.092729E+03	3.667887E-04	7.235937E-06
5.099630E+03	3.691986E-04	7.283249E-06
5.106541E+03	3.712773E-04	7.324025E-06
5.113461E+03	3.730721E-04	7.359199E-06
5.120382E+03	3.738383E-04	7.374082E-06
5.127323E+03	3.734374E-04	7.365945E-06
5.134263E+03	3.722214E-04	7.341730E-06
5.141224E+03	3.704701E-04	7.306959E-06
5.148185E+03	3.686735E-04	7.271296E-06
5.155166E+03	3.679457E-04	7.256713E-06
5.162146E+03	3.686100E-04	7.269585E-06
5.169137E+03	3.702459E-04	7.301616E-06
5.176138E+03	3.725968E-04	7.347743E-06
5.183158E+03	3.757302E-04	7.409296E-06
5.190179E+03	3.799229E-04	7.491732E-06
5.197210E+03	3.851262E-04	7.594089E-06
5.204250E+03	3.907601E-04	7.704926E-06
5.211301E+03	3.958536E-04	7.805098E-06
5.218362E+03	4.002229E-04	7.890982E-06
5.225433E+03	4.040312E-04	7.965794E-06
5.232503E+03	4.069340E-04	8.022747E-06
5.239594E+03	4.094621E-04	8.072307E-06
5.246695E+03	4.113638E-04	8.109509E-06
5.253805E+03	4.125251E-04	8.132107E-06
5.260916E+03	4.132699E-04	8.146490E-06
5.268047E+03	4.132306E-04	8.145410E-06
5.275188E+03	4.121569E-04	8.123938E-06
5.282328E+03	4.109919E-04	8.100663E-06
5.289489E+03	4.094828E-04	8.070602E-06
5.296650E+03	4.081123E-04	8.043268E-06
5.303830E+03	4.065588E-04	8.012325E-06
5.311011E+03	4.047549E-04	7.976445E-06
5.318202E+03	4.026095E-04	7.933830E-06
5.325413E+03	4.001455E-04	7.884936E-06
5.332623E+03	3.973419E-04	7.829348E-06
5.339854E+03	3.937197E-04	7.757628E-06
5.347085E+03	3.894183E-04	7.672527E-06
5.354325E+03	3.853498E-04	7.592015E-06
5.361586E+03	3.811036E-04	7.508002E-06
5.368847E+03	3.770904E-04	7.428580E-06
5.376118E+03	3.733999E-04	7.355518E-06
5.383398E+03	3.703497E-04	7.295067E-06
5.390699E+03	3.684368E-04	7.257016E-06
5.398000E+03	3.675010E-04	7.238206E-06
5.405311E+03	3.673131E-04	7.234121E-06
5.412631E+03	3.676451E-04	7.240266E-06
5.419962E+03	3.676815E-04	7.240583E-06
5.427313E+03	3.674903E-04	7.236411E-06
5.434663E+03	3.668247E-04	7.222889E-06
5.442024E+03	3.657077E-04	7.200473E-06
5.449395E+03	3.641406E-04	7.169191E-06
5.456776E+03	3.623047E-04	7.132612E-06
5.464166E+03	3.603805E-04	7.094290E-06
5.471577E+03	3.579182E-04	7.045371E-06
5.478988E+03	3.550997E-04	6.989436E-06
5.486409E+03	3.524193E-04	6.936218E-06
5.493839E+03	3.497874E-04	6.883949E-06
5.501280E+03	3.470464E-04	6.829531E-06
5.508731E+03	3.440401E-04	6.769887E-06
5.516202E+03	3.407909E-04	6.705461E-06
5.523672E+03	3.376806E-04	6.643766E-06
5.531153E+03	3.348651E-04	6.587866E-06
5.538644E+03	3.322321E-04	6.535552E-06
5.546155E+03	3.300931E-04	6.492949E-06
5.553665E+03	3.281132E-04	6.453468E-06
5.561186E+03	3.261357E-04	6.414029E-06
5.568727E+03	3.238931E-04	6.369365E-06
5.576268E+03	3.212087E-04	6.316010E-06
5.583818E+03	3.176608E-04	6.245672E-06
5.591389E+03	3.129181E-04	6.151841E-06
5.598960E+03	3.069174E-04	6.033284E-06
5.606541E+03	2.997726E-04	5.892246E-06
5.614141E+03	2.918184E-04	5.735313E-06
5.621742E+03	2.836554E-04	5.574293E-06
5.629363E+03	2.759029E-04	5.421358E-06
5.636984E+03	2.689584E-04	5.284317E-06
5.644624E+03	2.631068E-04	5.168759E-06
5.652275E+03	2.586103E-04	5.079831E-06
5.659926E+03	2.560615E-04	5.029161E-06
5.667597E+03	2.552787E-04	5.013169E-06
5.675278E+03	2.558176E-04	5.023117E-06
5.682958E+03	2.575212E-04	5.055912E-06
5.690659E+03	2.593310E-04	5.090767E-06
5.698370E+03	2.609616E-04	5.122078E-06
5.706091E+03	2.621941E-04	5.145548E-06
5.713821E+03	2.634459E-04	5.169373E-06
5.721562E+03	2.650456E-04	5.199998E-06
5.729313E+03	2.675834E-04	5.248995E-06
5.737074E+03	2.718442E-04	5.331753E-06
5.744844E+03	2.775178E-04	5.442167E-06
5.752625E+03	2.846223E-04	5.580583E-06
5.760416E+03	2.930015E-04	5.743918E-06
5.768227E+03	3.019108E-04	5.917566E-06
5.776038E+03	3.108484E-04	6.091685E-06
5.783868E+03	3.186387E-04	6.243237E-06
5.791699E+03	3.246763E-04	6.360373E-06
5.799550E+03	3.289213E-04	6.442328E-06
5.807401E+03	3.316397E-04	6.494330E-06
5.815272E+03	3.323572E-04	6.507109E-06
5.823152E+03	3.320113E-04	6.499035E-06
5.831033E+03	3.337875E-04	6.532469E-06
5.838934E+03	3.349323E-04	6.553505E-06
5.846845E+03	3.339134E-04	6.532172E-06
5.854765E+03	3.316646E-04	6.486765E-06
5.862696E+03	3.287718E-04	6.428753E-06
5.870637E+03	3.255384E-04	6.364079E-06
5.878598E+03	3.225681E-04	6.304543E-06
5.886559E+03	3.198826E-04	6.250572E-06
5.894529E+03	3.181258E-04	6.214738E-06
5.902520E+03	3.169727E-04	6.190678E-06
5.910511E+03	3.166587E-04	6.182987E-06
5.918522E+03	3.171166E-04	6.190332E-06
5.926543E+03	3.171661E-04	6.189672E-06
5.934563E+03	3.169798E-04	6.184381E-06
5.942604E+03	3.162154E-04	6.167783E-06
5.950655E+03	3.141909E-04	6.126588E-06
5.958716E+03	3.099055E-04	6.041309E-06
5.966797E+03	3.045172E-04	5.934552E-06
5.974877E+03	3.017392E-04	5.878681E-06
5.982968E+03	2.989868E-04	5.823311E-06
5.991079E+03	2.958766E-04	5.760971E-06
5.999190E+03	2.933458E-04	5.709919E-06
6.007321E+03	2.913288E-04	5.668862E-06
