#wls	flux	fluxerr
1.600160E+03	5.157009E-06	1.272339E-07
1.640164E+03	5.183764E-06	1.275272E-07
1.680168E+03	5.198861E-06	1.275212E-07
1.720172E+03	5.202871E-06	1.272322E-07
1.760176E+03	5.194906E-06	1.266407E-07
1.800180E+03	5.173084E-06	1.257036E-07
1.840184E+03	5.132735E-06	1.243110E-07
1.880188E+03	5.070629E-06	1.223896E-07
1.920192E+03	4.983659E-06	1.198700E-07
1.960196E+03	4.869627E-06	1.167064E-07
2.000200E+03	4.731487E-06	1.129767E-07
2.040204E+03	4.582696E-06	1.090083E-07
2.080208E+03	4.448349E-06	1.053994E-07
2.120212E+03	4.363877E-06	1.029829E-07
2.160216E+03	4.357194E-06	1.024010E-07
2.200220E+03	4.439972E-06	1.039041E-07
2.240224E+03	4.601512E-06	1.072153E-07
2.280228E+03	4.816357E-06	1.117189E-07
2.320232E+03	5.060116E-06	1.168334E-07
2.360236E+03	5.313486E-06	1.221041E-07
2.400240E+03	5.567004E-06	1.273094E-07
2.440244E+03	5.815572E-06	1.323313E-07
2.480248E+03	6.058809E-06	1.371609E-07
2.520252E+03	6.298370E-06	1.418356E-07
2.560256E+03	6.536851E-06	1.464127E-07
2.600260E+03	6.777217E-06	1.509568E-07
2.640264E+03	7.022552E-06	1.555338E-07
2.680268E+03	7.275978E-06	1.602084E-07
2.720272E+03	7.539540E-06	1.650205E-07
2.760276E+03	7.817576E-06	1.700582E-07
2.800280E+03	8.113482E-06	1.753871E-07
2.840284E+03	8.429669E-06	1.810496E-07
2.880288E+03	8.771094E-06	1.871405E-07
2.920292E+03	9.141801E-06	1.937324E-07
2.960296E+03	9.547255E-06	2.009252E-07
3.000300E+03	9.994294E-06	2.088436E-07
3.010301E+03	1.011349E-05	2.109537E-07
3.020302E+03	1.023617E-05	2.131258E-07
3.030303E+03	1.036110E-05	2.153338E-07
3.040304E+03	1.049105E-05	2.176349E-07
3.050305E+03	1.062386E-05	2.199838E-07
3.060306E+03	1.076133E-05	2.224171E-07
3.070307E+03	1.090336E-05	2.249325E-07
3.080308E+03	1.104986E-05	2.275274E-07
3.090309E+03	1.120075E-05	2.301994E-07
3.100310E+03	1.135727E-05	2.329737E-07
3.110311E+03	1.151658E-05	2.357910E-07
3.120312E+03	1.168127E-05	2.387044E-07
3.130313E+03	1.184981E-05	2.416817E-07
3.140314E+03	1.202200E-05	2.447181E-07
3.150315E+03	1.219901E-05	2.478373E-07
3.160316E+03	1.237916E-05	2.510044E-07
3.170317E+03	1.256356E-05	2.542413E-07
3.180318E+03	1.275183E-05	2.575400E-07
3.190319E+03	1.294207E-05	2.608613E-07
3.200320E+03	1.313520E-05	2.642239E-07
3.210321E+03	1.333208E-05	2.676445E-07
3.220322E+03	1.352905E-05	2.710491E-07
3.230323E+03	1.372676E-05	2.744506E-07
3.240324E+03	1.392579E-05	2.778607E-07
3.250325E+03	1.412364E-05	2.812290E-07
3.260326E+03	1.431918E-05	2.845334E-07
3.270327E+03	1.451284E-05	2.877829E-07
3.280328E+03	1.470208E-05	2.909269E-07
3.290329E+03	1.488926E-05	2.940128E-07
3.300330E+03	1.507107E-05	2.969756E-07
3.310331E+03	1.525130E-05	2.998902E-07
3.320332E+03	1.542853E-05	3.027292E-07
3.330333E+03	1.560847E-05	3.056048E-07
3.340334E+03	1.579277E-05	3.085483E-07
3.350335E+03	1.598637E-05	3.116563E-07
3.360336E+03	1.619253E-05	3.149901E-07
3.370337E+03	1.641385E-05	3.185992E-07
3.380338E+03	1.665193E-05	3.225123E-07
3.390339E+03	1.690699E-05	3.267316E-07
3.400340E+03	1.717742E-05	3.312238E-07
3.410341E+03	1.746133E-05	3.359505E-07
3.420342E+03	1.775358E-05	3.408112E-07
3.430343E+03	1.804796E-05	3.456860E-07
3.440344E+03	1.833806E-05	3.504519E-07
3.450345E+03	1.861825E-05	3.550022E-07
3.460346E+03	1.888639E-05	3.592974E-07
3.470347E+03	1.913964E-05	3.632854E-07
3.480348E+03	1.938102E-05	3.670247E-07
3.490349E+03	1.961390E-05	3.705812E-07
3.500350E+03	1.984291E-05	3.740427E-07
3.510351E+03	2.007469E-05	3.775349E-07
3.520352E+03	2.031215E-05	3.811120E-07
3.530353E+03	2.056033E-05	3.848678E-07
3.540354E+03	2.082152E-05	3.888431E-07
3.550355E+03	2.109698E-05	3.930604E-07
3.560356E+03	2.138755E-05	3.975328E-07
3.570357E+03	2.169443E-05	4.022810E-07
3.580358E+03	2.202161E-05	4.073766E-07
3.590359E+03	2.237351E-05	4.128983E-07
3.600360E+03	2.275706E-05	4.189707E-07
3.610361E+03	2.318168E-05	4.257625E-07
3.620362E+03	2.365848E-05	4.334719E-07
3.630363E+03	2.419898E-05	4.423025E-07
3.640364E+03	2.481465E-05	4.524549E-07
3.650365E+03	2.550963E-05	4.639948E-07
3.660366E+03	2.628418E-05	4.769160E-07
3.670367E+03	2.712539E-05	4.909746E-07
3.680368E+03	2.801334E-05	5.058019E-07
3.690369E+03	2.891186E-05	5.207406E-07
3.700370E+03	2.977791E-05	5.350155E-07
3.710371E+03	3.056462E-05	5.477915E-07
3.720372E+03	3.122766E-05	5.582867E-07
3.730373E+03	3.173395E-05	5.659277E-07
3.740374E+03	3.206264E-05	5.703647E-07
3.750375E+03	3.221618E-05	5.716652E-07
3.760376E+03	3.221504E-05	5.702147E-07
3.770377E+03	3.210289E-05	5.668053E-07
3.780378E+03	3.193625E-05	5.624470E-07
3.790379E+03	3.178579E-05	5.583889E-07
3.800380E+03	3.172603E-05	5.559347E-07
3.810381E+03	3.183031E-05	5.563546E-07
3.820382E+03	3.217076E-05	5.608843E-07
3.830383E+03	3.281077E-05	5.705953E-07
3.840384E+03	3.380420E-05	5.863826E-07
3.850385E+03	3.519088E-05	6.088889E-07
3.860386E+03	3.699481E-05	6.384771E-07
3.870387E+03	3.922014E-05	6.751641E-07
3.880388E+03	4.183354E-05	7.183231E-07
3.890389E+03	4.477505E-05	7.668774E-07
3.900390E+03	4.795040E-05	8.191745E-07
3.910391E+03	5.124533E-05	8.732378E-07
3.920392E+03	5.454949E-05	9.271777E-07
3.930393E+03	5.777700E-05	9.795385E-07
3.940394E+03	6.088553E-05	1.029616E-06
3.950395E+03	6.388621E-05	1.077614E-06
3.957396E+03	3.441572E-05	5.794823E-07
3.958396E+03	3.389287E-05	5.705336E-07
3.959396E+03	3.338094E-05	5.617733E-07
3.960396E+03	3.286572E-05	5.529620E-07
3.961396E+03	3.235034E-05	5.441525E-07
3.962396E+03	3.182534E-05	5.351856E-07
3.963396E+03	3.132712E-05	5.266736E-07
3.964396E+03	3.083827E-05	5.183233E-07
3.965397E+03	3.045547E-05	5.117592E-07
3.966397E+03	3.008842E-05	5.054631E-07
3.967397E+03	2.972918E-05	4.993013E-07
3.968397E+03	2.943486E-05	4.942327E-07
3.969397E+03	2.914522E-05	4.892450E-07
3.970397E+03	2.886500E-05	4.844183E-07
3.971397E+03	2.862594E-05	4.802844E-07
3.972397E+03	2.839951E-05	4.763643E-07
3.973397E+03	2.818252E-05	4.726046E-07
3.974397E+03	2.814159E-05	4.717985E-07
3.975398E+03	2.814666E-05	4.717637E-07
3.976398E+03	2.830725E-05	4.743349E-07
3.977398E+03	2.845835E-05	4.767459E-07
3.978398E+03	2.873805E-05	4.813094E-07
3.979398E+03	2.915435E-05	4.881578E-07
3.980398E+03	2.962471E-05	4.959077E-07
3.981398E+03	3.009520E-05	5.036558E-07
3.982398E+03	3.065789E-05	5.129426E-07
3.983398E+03	3.116672E-05	5.213237E-07
3.984398E+03	3.167248E-05	5.296492E-07
3.985399E+03	3.230704E-05	5.401238E-07
3.986399E+03	3.291474E-05	5.501441E-07
3.987399E+03	3.357978E-05	5.611176E-07
3.988399E+03	3.435303E-05	5.738931E-07
3.989399E+03	3.515986E-05	5.872230E-07
3.990399E+03	3.596845E-05	6.005755E-07
3.991399E+03	3.676609E-05	6.137385E-07
3.992399E+03	3.756551E-05	6.269244E-07
3.993399E+03	3.838577E-05	6.404513E-07
3.994399E+03	3.922689E-05	6.543195E-07
3.995400E+03	4.008251E-05	6.684223E-07
3.996400E+03	4.093515E-05	6.824683E-07
3.997400E+03	4.168137E-05	6.947334E-07
3.998400E+03	4.230684E-05	7.049801E-07
3.999400E+03	4.296584E-05	7.157803E-07
4.000400E+03	4.362181E-05	7.265245E-07
4.001400E+03	4.438138E-05	7.389882E-07
4.002400E+03	4.517295E-05	7.519784E-07
4.003400E+03	4.601404E-05	7.657862E-07
4.004400E+03	4.667380E-05	7.765698E-07
4.005401E+03	4.750728E-05	7.902376E-07
4.006401E+03	4.846676E-05	8.059940E-07
4.007401E+03	4.932290E-05	8.200241E-07
4.008401E+03	5.061093E-05	8.412260E-07
4.009401E+03	5.212071E-05	8.661019E-07
4.010401E+03	5.367065E-05	8.916324E-07
4.011401E+03	5.515400E-05	9.160439E-07
4.012401E+03	5.689902E-05	9.447883E-07
4.013401E+03	5.826668E-05	9.672535E-07
4.014401E+03	5.968245E-05	9.905059E-07
4.015402E+03	6.106343E-05	1.013169E-06
4.016402E+03	6.262967E-05	1.038895E-06
4.017402E+03	6.429829E-05	1.066304E-06
4.018402E+03	6.604861E-05	1.095055E-06
4.019402E+03	6.768126E-05	1.121841E-06
4.020402E+03	6.901915E-05	1.143728E-06
4.021402E+03	7.035731E-05	1.165609E-06
4.022402E+03	7.189199E-05	1.190734E-06
4.023402E+03	7.362485E-05	1.219128E-06
4.024402E+03	7.546180E-05	1.249231E-06
4.025403E+03	7.736137E-05	1.280355E-06
4.026403E+03	7.928528E-05	1.311866E-06
4.027403E+03	8.114573E-05	1.342311E-06
4.028403E+03	8.295865E-05	1.371955E-06
4.029403E+03	8.481665E-05	1.402330E-06
4.030403E+03	8.667662E-05	1.432721E-06
4.031403E+03	8.863757E-05	1.464767E-06
4.032403E+03	9.060370E-05	1.496881E-06
4.033403E+03	9.252550E-05	1.528247E-06
4.034403E+03	9.433745E-05	1.557784E-06
4.035404E+03	9.596440E-05	1.584251E-06
4.036404E+03	9.749420E-05	1.609102E-06
4.037404E+03	9.893477E-05	1.632468E-06
4.038404E+03	1.002701E-04	1.654087E-06
4.039404E+03	1.015450E-04	1.674697E-06
4.040404E+03	1.028057E-04	1.695064E-06
4.041404E+03	1.041370E-04	1.716583E-06
4.042404E+03	1.054654E-04	1.738044E-06
4.043404E+03	1.065301E-04	1.755150E-06
4.044404E+03	1.076798E-04	1.773646E-06
4.045405E+03	1.087736E-04	1.791215E-06
4.046405E+03	1.098309E-04	1.808173E-06
4.047405E+03	1.108484E-04	1.824466E-06
4.048405E+03	1.118948E-04	1.841228E-06
4.049405E+03	1.129382E-04	1.857932E-06
4.050405E+03	1.137690E-04	1.871130E-06
4.051405E+03	1.147071E-04	1.886087E-06
4.052405E+03	1.154661E-04	1.898092E-06
4.053405E+03	1.161851E-04	1.909434E-06
4.054405E+03	1.168579E-04	1.920011E-06
4.055406E+03	1.174683E-04	1.929557E-06
4.056406E+03	1.179603E-04	1.937155E-06
4.057406E+03	1.183963E-04	1.943829E-06
4.058406E+03	1.186674E-04	1.947793E-06
4.059406E+03	1.188440E-04	1.950205E-06
4.060406E+03	1.189053E-04	1.950723E-06
4.061406E+03	1.190402E-04	1.952449E-06
4.062406E+03	1.190453E-04	1.952046E-06
4.063406E+03	1.188870E-04	1.948963E-06
4.064406E+03	1.186612E-04	1.944778E-06
4.065407E+03	1.184627E-04	1.941040E-06
4.066407E+03	1.181294E-04	1.935096E-06
4.067407E+03	1.176918E-04	1.927448E-06
4.068407E+03	1.173712E-04	1.921718E-06
4.069407E+03	1.170039E-04	1.915227E-06
4.070407E+03	1.164249E-04	1.905275E-06
4.071407E+03	1.157222E-04	1.893305E-06
4.072407E+03	1.149376E-04	1.880000E-06
4.073407E+03	1.142282E-04	1.867932E-06
4.074407E+03	1.134672E-04	1.855027E-06
4.075408E+03	1.126596E-04	1.841366E-06
4.076408E+03	1.117491E-04	1.826031E-06
4.077408E+03	1.108272E-04	1.810516E-06
4.078408E+03	1.098264E-04	1.793722E-06
4.079408E+03	1.087564E-04	1.775806E-06
4.080408E+03	1.077199E-04	1.758445E-06
4.081408E+03	1.066270E-04	1.740172E-06
4.082408E+03	1.053589E-04	1.719049E-06
4.083408E+03	1.040552E-04	1.697357E-06
4.084408E+03	1.027383E-04	1.675462E-06
4.085409E+03	1.014437E-04	1.653939E-06
4.086409E+03	1.001649E-04	1.632685E-06
4.087409E+03	9.888740E-05	1.611463E-06
4.088409E+03	9.757111E-05	1.589620E-06
4.089409E+03	9.622082E-05	1.567233E-06
4.090409E+03	9.482368E-05	1.544095E-06
4.091409E+03	9.358850E-05	1.523605E-06
4.092409E+03	9.246073E-05	1.504873E-06
4.093409E+03	9.131023E-05	1.485780E-06
4.094409E+03	9.007271E-05	1.465282E-06
4.095410E+03	8.883818E-05	1.444842E-06
4.096410E+03	8.749250E-05	1.422605E-06
4.097410E+03	8.618515E-05	1.401002E-06
4.098410E+03	8.502221E-05	1.381757E-06
4.099410E+03	8.386224E-05	1.362570E-06
4.100410E+03	8.259756E-05	1.341691E-06
4.101410E+03	8.133264E-05	1.320819E-06
4.102410E+03	8.000476E-05	1.298935E-06
4.103410E+03	7.867182E-05	1.276979E-06
4.104410E+03	7.752678E-05	1.258084E-06
4.105411E+03	7.653592E-05	1.241699E-06
4.106411E+03	7.559152E-05	1.226076E-06
4.107411E+03	7.481582E-05	1.213196E-06
4.108411E+03	7.410271E-05	1.201337E-06
4.109411E+03	7.317871E-05	1.186066E-06
4.110411E+03	7.228188E-05	1.171243E-06
4.111411E+03	7.152005E-05	1.158614E-06
4.112411E+03	7.096243E-05	1.149299E-06
4.113411E+03	7.051574E-05	1.141785E-06
4.114411E+03	7.012369E-05	1.135159E-06
4.115412E+03	6.982005E-05	1.129967E-06
4.116412E+03	6.947289E-05	1.124073E-06
4.117412E+03	6.915623E-05	1.118676E-06
4.118412E+03	6.884915E-05	1.113436E-06
4.119412E+03	6.856776E-05	1.108614E-06
4.120412E+03	6.831689E-05	1.104288E-06
4.121412E+03	6.812716E-05	1.100952E-06
4.122412E+03	6.793252E-05	1.097539E-06
4.123412E+03	6.773784E-05	1.094127E-06
4.124412E+03	6.762201E-05	1.091989E-06
4.125413E+03	6.749005E-05	1.089593E-06
4.126413E+03	6.741601E-05	1.088132E-06
4.127413E+03	6.718406E-05	1.084124E-06
4.128413E+03	6.713251E-05	1.083029E-06
4.129413E+03	6.702612E-05	1.081049E-06
4.130413E+03	6.702283E-05	1.080733E-06
4.131413E+03	6.703078E-05	1.080599E-06
4.132413E+03	6.718053E-05	1.082749E-06
4.133413E+03	6.731576E-05	1.084665E-06
4.134413E+03	6.757187E-05	1.088528E-06
4.135414E+03	6.786184E-05	1.092934E-06
4.136414E+03	6.816471E-05	1.097545E-06
4.137414E+03	6.844180E-05	1.101740E-06
4.138414E+03	6.876244E-05	1.106633E-06
4.139414E+03	6.905890E-05	1.111135E-06
4.140414E+03	6.926667E-05	1.114208E-06
4.141414E+03	6.947122E-05	1.117228E-06
4.142414E+03	6.969513E-05	1.120558E-06
4.143414E+03	6.987550E-05	1.123186E-06
4.144414E+03	7.004133E-05	1.125580E-06
4.145415E+03	7.021361E-05	1.128076E-06
4.146415E+03	7.034071E-05	1.129845E-06
4.147415E+03	7.048716E-05	1.131924E-06
4.148415E+03	7.062552E-05	1.133873E-06
4.149415E+03	7.077518E-05	1.136002E-06
4.150415E+03	7.084251E-05	1.136809E-06
4.151415E+03	7.082917E-05	1.136321E-06
4.152415E+03	7.074638E-05	1.134720E-06
4.153415E+03	7.061192E-05	1.132291E-06
4.154415E+03	7.040962E-05	1.128775E-06
4.155416E+03	7.031379E-05	1.126968E-06
4.156416E+03	7.012916E-05	1.123739E-06
4.157416E+03	6.986697E-05	1.119269E-06
4.158416E+03	6.969836E-05	1.116300E-06
4.159416E+03	6.941346E-05	1.111471E-06
4.160416E+03	6.889763E-05	1.102947E-06
4.161416E+03	6.834618E-05	1.093857E-06
4.162416E+03	6.783339E-05	1.085390E-06
4.163416E+03	6.709446E-05	1.073310E-06
4.164416E+03	6.643613E-05	1.062525E-06
4.165417E+03	6.569697E-05	1.050452E-06
4.166417E+03	6.495931E-05	1.038410E-06
4.167417E+03	6.418600E-05	1.025803E-06
4.168417E+03	6.333182E-05	1.011910E-06
4.169417E+03	6.236283E-05	9.961905E-07
4.170417E+03	6.130487E-05	9.790572E-07
4.171417E+03	6.038407E-05	9.641224E-07
4.172417E+03	5.942115E-05	9.485222E-07
4.173417E+03	5.846296E-05	9.330049E-07
4.174417E+03	5.749169E-05	9.172865E-07
4.175418E+03	5.648153E-05	9.009553E-07
4.176418E+03	5.542439E-05	8.838826E-07
4.177418E+03	5.445436E-05	8.682071E-07
4.178418E+03	5.355370E-05	8.536448E-07
4.179418E+03	5.270627E-05	8.399377E-07
4.180418E+03	5.186356E-05	8.263124E-07
4.181418E+03	5.099975E-05	8.123576E-07
4.182418E+03	5.001622E-05	7.965029E-07
4.183418E+03	4.901478E-05	7.803706E-07
4.184418E+03	4.800839E-05	7.641672E-07
4.185419E+03	4.696145E-05	7.473263E-07
4.186419E+03	4.590147E-05	7.302859E-07
4.187419E+03	4.482520E-05	7.129944E-07
4.188419E+03	4.371001E-05	6.950924E-07
4.189419E+03	4.259631E-05	6.772224E-07
4.190419E+03	4.152778E-05	6.600790E-07
4.191419E+03	4.050439E-05	6.436610E-07
4.192419E+03	3.944857E-05	6.267354E-07
4.193419E+03	3.834896E-05	6.091225E-07
4.194419E+03	3.740127E-05	5.939303E-07
4.195420E+03	3.646804E-05	5.789749E-07
4.196420E+03	3.576761E-05	5.677216E-07
4.197420E+03	3.510429E-05	5.570627E-07
4.198420E+03	3.451048E-05	5.475113E-07
4.199420E+03	3.389716E-05	5.376554E-07
4.200420E+03	3.333556E-05	5.286240E-07
4.201420E+03	3.303758E-05	5.237763E-07
4.202420E+03	3.263279E-05	5.172382E-07
4.203420E+03	3.222795E-05	5.107021E-07
4.204420E+03	3.186836E-05	5.048862E-07
4.205421E+03	3.146828E-05	4.984316E-07
4.206421E+03	3.104874E-05	4.916721E-07
4.207421E+03	3.068417E-05	4.857860E-07
4.208421E+03	3.031795E-05	4.798765E-07
4.209421E+03	3.001316E-05	4.749420E-07
4.210421E+03	2.976659E-05	4.709308E-07
4.211421E+03	2.956531E-05	4.676379E-07
4.212421E+03	2.930089E-05	4.633482E-07
4.213421E+03	2.910115E-05	4.600831E-07
4.214421E+03	2.904707E-05	4.591218E-07
4.215422E+03	2.905283E-05	4.591068E-07
4.216422E+03	2.892586E-05	4.569947E-07
4.217422E+03	2.882154E-05	4.552415E-07
4.218422E+03	2.872528E-05	4.536164E-07
4.219422E+03	2.856911E-05	4.510462E-07
4.220422E+03	2.840969E-05	4.484259E-07
4.221422E+03	2.850275E-05	4.497913E-07
4.222422E+03	2.849383E-05	4.495472E-07
4.223422E+03	2.855450E-05	4.504008E-07
4.224422E+03	2.861355E-05	4.512286E-07
4.225423E+03	2.862401E-05	4.512900E-07
4.226423E+03	2.865712E-05	4.517085E-07
4.227423E+03	2.880516E-05	4.539379E-07
4.228423E+03	2.904711E-05	4.576460E-07
4.229423E+03	2.936839E-05	4.626020E-07
4.230423E+03	2.985804E-05	4.702074E-07
4.231423E+03	3.031048E-05	4.772234E-07
4.232423E+03	3.091996E-05	4.867084E-07
4.233423E+03	3.159100E-05	4.971577E-07
4.234423E+03	3.229443E-05	5.081121E-07
4.235424E+03	3.309826E-05	5.206408E-07
4.236424E+03	3.396689E-05	5.341831E-07
4.237424E+03	3.484201E-05	5.478211E-07
4.238424E+03	3.576573E-05	5.622171E-07
4.239424E+03	3.673803E-05	5.773702E-07
4.240424E+03	3.769417E-05	5.922624E-07
4.241424E+03	3.869728E-05	6.078860E-07
4.242424E+03	3.968746E-05	6.232993E-07
4.243424E+03	4.059019E-05	6.373328E-07
4.244424E+03	4.152693E-05	6.518938E-07
4.245425E+03	4.244100E-05	6.660926E-07
4.246425E+03	4.330811E-05	6.795483E-07
4.247425E+03	4.422220E-05	6.937349E-07
4.248425E+03	4.518323E-05	7.086516E-07
4.249425E+03	4.611514E-05	7.231049E-07
4.250425E+03	4.712315E-05	7.387449E-07
4.251425E+03	4.811498E-05	7.541244E-07
4.252425E+03	4.912137E-05	7.697252E-07
4.253425E+03	5.021522E-05	7.866894E-07
4.254425E+03	5.133176E-05	8.040013E-07
4.255426E+03	5.243531E-05	8.211023E-07
4.256426E+03	5.341737E-05	8.362939E-07
4.257426E+03	5.453063E-05	8.535323E-07
4.258426E+03	5.541386E-05	8.671634E-07
4.259426E+03	5.639913E-05	8.823850E-07
4.260426E+03	5.751881E-05	8.997024E-07
4.261426E+03	5.867250E-05	9.175441E-07
4.262426E+03	5.976300E-05	9.343900E-07
4.263426E+03	6.069310E-05	9.487213E-07
4.264426E+03	6.163612E-05	9.632485E-07
4.265427E+03	6.257590E-05	9.777185E-07
4.266427E+03	6.339252E-05	9.902585E-07
4.267427E+03	6.410706E-05	1.001199E-06
4.268427E+03	6.468874E-05	1.010060E-06
4.269427E+03	6.517318E-05	1.017399E-06
4.270427E+03	6.554258E-05	1.022940E-06
4.271427E+03	6.589574E-05	1.028225E-06
4.272427E+03	6.615976E-05	1.032118E-06
4.273427E+03	6.635570E-05	1.034947E-06
4.274427E+03	6.652570E-05	1.037371E-06
4.275428E+03	6.660007E-05	1.038302E-06
4.276428E+03	6.667280E-05	1.039208E-06
4.277428E+03	6.671955E-05	1.039709E-06
4.278428E+03	6.677113E-05	1.040285E-06
4.279428E+03	6.676436E-05	1.039952E-06
4.280428E+03	6.674295E-05	1.039392E-06
4.281428E+03	6.664052E-05	1.037570E-06
4.282428E+03	6.664497E-05	1.037413E-06
4.283428E+03	6.650196E-05	1.034962E-06
4.284428E+03	6.635730E-05	1.032486E-06
4.285429E+03	6.618182E-05	1.029532E-06
4.286429E+03	6.594314E-05	1.025596E-06
4.287429E+03	6.557645E-05	1.019672E-06
4.288429E+03	6.540086E-05	1.016721E-06
4.289429E+03	6.508432E-05	1.011582E-06
4.290429E+03	6.479366E-05	1.006846E-06
4.291429E+03	6.453375E-05	1.002591E-06
4.292429E+03	6.427703E-05	9.983872E-07
4.293429E+03	6.402514E-05	9.942604E-07
4.294429E+03	6.382667E-05	9.909650E-07
4.295430E+03	6.365731E-05	9.881231E-07
4.296430E+03	6.347173E-05	9.850310E-07
4.297430E+03	6.322780E-05	9.810349E-07
4.298430E+03	6.295794E-05	9.766383E-07
4.299430E+03	6.265727E-05	9.717662E-07
4.300430E+03	6.236952E-05	9.670966E-07
4.301430E+03	6.200240E-05	9.611988E-07
4.302430E+03	6.172269E-05	9.566584E-07
4.303430E+03	6.149640E-05	9.529480E-07
4.304430E+03	6.127656E-05	9.493393E-07
4.305431E+03	6.110526E-05	9.464841E-07
4.306431E+03	6.091935E-05	9.434042E-07
4.307431E+03	6.075124E-05	9.406012E-07
4.308431E+03	6.062680E-05	9.384757E-07
4.309431E+03	6.058330E-05	9.376038E-07
4.310431E+03	6.049603E-05	9.360554E-07
4.311431E+03	6.041035E-05	9.345323E-07
4.312431E+03	6.029873E-05	9.326089E-07
4.313431E+03	6.019679E-05	9.308361E-07
4.314431E+03	6.005272E-05	9.284130E-07
4.315432E+03	5.990862E-05	9.259907E-07
4.316432E+03	5.972241E-05	9.229187E-07
4.317432E+03	5.955720E-05	9.201727E-07
4.318432E+03	5.934340E-05	9.166775E-07
4.319432E+03	5.914738E-05	9.134586E-07
4.320432E+03	5.897885E-05	9.106655E-07
4.321432E+03	5.896407E-05	9.102474E-07
4.322432E+03	5.892983E-05	9.095293E-07
4.323432E+03	5.895542E-05	9.097349E-07
4.324432E+03	5.901497E-05	9.104646E-07
4.325433E+03	5.911008E-05	9.117427E-07
4.326433E+03	5.916307E-05	9.123708E-07
4.327433E+03	5.933414E-05	9.148195E-07
4.328433E+03	5.941940E-05	9.159446E-07
4.329433E+03	5.952241E-05	9.173430E-07
4.330433E+03	5.963833E-05	9.189400E-07
4.331433E+03	5.977199E-05	9.208097E-07
4.332433E+03	5.989589E-05	9.225286E-07
4.333433E+03	6.004239E-05	9.245950E-07
4.334433E+03	6.016780E-05	9.263361E-07
4.335434E+03	6.025434E-05	9.274783E-07
4.336434E+03	6.039582E-05	9.294659E-07
4.337434E+03	6.052595E-05	9.312781E-07
