#wls	flux	fluxerr
1.600160E+03	7.262307E-07	4.619349E-08
1.640164E+03	7.327031E-07	4.640779E-08
1.680168E+03	7.377169E-07	4.652160E-08
1.720172E+03	7.415060E-07	4.655060E-08
1.760176E+03	7.438477E-07	4.648175E-08
1.800180E+03	7.443642E-07	4.629266E-08
1.840184E+03	7.426834E-07	4.596183E-08
1.880188E+03	7.380819E-07	4.544666E-08
1.920192E+03	7.299752E-07	4.471410E-08
1.960196E+03	7.181631E-07	4.375540E-08
2.000200E+03	7.029382E-07	4.259211E-08
2.040204E+03	6.861666E-07	4.134036E-08
2.080208E+03	6.717803E-07	4.023759E-08
2.120212E+03	6.649349E-07	3.958849E-08
2.160216E+03	6.705862E-07	3.967825E-08
2.200220E+03	6.907951E-07	4.061402E-08
2.240224E+03	7.243878E-07	4.231020E-08
2.280228E+03	7.682579E-07	4.457017E-08
2.320232E+03	8.188744E-07	4.717714E-08
2.360236E+03	8.739711E-07	4.999189E-08
2.400240E+03	9.322561E-07	5.293397E-08
2.440244E+03	9.937607E-07	5.599945E-08
2.480248E+03	1.058895E-06	5.920535E-08
2.520252E+03	1.128669E-06	6.260097E-08
2.560256E+03	1.204602E-06	6.626163E-08
2.600260E+03	1.288304E-06	7.026444E-08
2.640264E+03	1.381177E-06	7.467194E-08
2.680268E+03	1.486033E-06	7.961884E-08
2.720272E+03	1.604633E-06	8.517809E-08
2.760276E+03	1.740661E-06	9.151953E-08
2.800280E+03	1.896700E-06	9.874717E-08
2.840284E+03	2.077342E-06	1.070623E-07
2.880288E+03	2.287357E-06	1.166641E-07
2.920292E+03	2.531886E-06	1.277591E-07
2.960296E+03	2.817203E-06	1.405968E-07
3.000300E+03	3.150898E-06	1.554762E-07
3.010301E+03	3.243118E-06	1.595653E-07
3.020302E+03	3.338432E-06	1.637779E-07
3.030303E+03	3.437486E-06	1.681443E-07
3.040304E+03	3.541030E-06	1.726991E-07
3.050305E+03	3.648210E-06	1.773988E-07
3.060306E+03	3.760499E-06	1.823129E-07
3.070307E+03	3.876817E-06	1.873869E-07
3.080308E+03	3.997877E-06	1.926532E-07
3.090309E+03	4.124477E-06	1.981479E-07
3.100310E+03	4.256122E-06	2.038444E-07
3.110311E+03	4.392242E-06	2.097133E-07
3.120312E+03	4.534377E-06	2.158256E-07
3.130313E+03	4.681234E-06	2.221169E-07
3.140314E+03	4.834454E-06	2.286627E-07
3.150315E+03	4.993465E-06	2.354327E-07
3.160316E+03	5.157604E-06	2.423931E-07
3.170317E+03	5.328678E-06	2.496258E-07
3.180318E+03	5.506061E-06	2.570981E-07
3.190319E+03	5.689020E-06	2.647729E-07
3.200320E+03	5.879540E-06	2.727394E-07
3.210321E+03	6.076920E-06	2.809613E-07
3.220322E+03	6.281347E-06	2.894439E-07
3.230323E+03	6.492994E-06	2.981915E-07
3.240324E+03	6.710957E-06	3.071590E-07
3.250325E+03	6.937485E-06	3.164459E-07
3.260326E+03	7.171659E-06	3.260059E-07
3.270327E+03	7.413553E-06	3.358386E-07
3.280328E+03	7.663197E-06	3.459412E-07
3.290329E+03	7.920550E-06	3.563079E-07
3.300330E+03	8.185493E-06	3.669295E-07
3.310331E+03	8.457808E-06	3.777920E-07
3.320332E+03	8.737161E-06	3.888770E-07
3.330333E+03	9.023078E-06	4.001595E-07
3.340334E+03	9.314919E-06	4.116077E-07
3.350335E+03	9.611849E-06	4.231818E-07
3.360336E+03	9.914364E-06	4.349005E-07
3.370337E+03	1.021803E-05	4.465670E-07
3.380338E+03	1.052267E-05	4.581727E-07
3.390339E+03	1.082617E-05	4.696253E-07
3.400340E+03	1.112597E-05	4.808140E-07
3.410341E+03	1.141900E-05	4.916082E-07
3.420342E+03	1.170357E-05	5.019388E-07
3.430343E+03	1.197217E-05	5.114887E-07
3.440344E+03	1.222258E-05	5.201702E-07
3.450345E+03	1.245086E-05	5.278264E-07
3.460346E+03	1.265556E-05	5.344060E-07
3.470347E+03	1.283016E-05	5.396464E-07
3.480348E+03	1.297522E-05	5.435866E-07
3.490349E+03	1.309292E-05	5.463314E-07
3.500350E+03	1.318098E-05	5.478002E-07
3.510351E+03	1.324688E-05	5.483173E-07
3.520352E+03	1.329127E-05	5.479210E-07
3.530353E+03	1.332189E-05	5.469401E-07
3.540354E+03	1.334684E-05	5.457123E-07
3.550355E+03	1.336767E-05	5.443040E-07
3.560356E+03	1.339318E-05	5.430742E-07
3.570357E+03	1.342239E-05	5.419812E-07
3.580358E+03	1.346069E-05	5.412397E-07
3.590359E+03	1.350303E-05	5.406435E-07
3.600360E+03	1.355062E-05	5.402381E-07
3.610361E+03	1.359438E-05	5.396610E-07
3.620362E+03	1.363193E-05	5.388203E-07
3.630363E+03	1.365121E-05	5.372446E-07
3.640364E+03	1.364768E-05	5.347653E-07
3.650365E+03	1.360794E-05	5.308721E-07
3.660366E+03	1.352712E-05	5.253943E-07
3.670367E+03	1.339269E-05	5.178687E-07
3.680368E+03	1.320172E-05	5.082106E-07
3.690369E+03	1.294517E-05	4.961032E-07
3.700370E+03	1.262474E-05	4.816455E-07
3.710371E+03	1.223939E-05	4.648310E-07
3.720372E+03	1.179199E-05	4.458031E-07
3.730373E+03	1.129481E-05	4.250549E-07
3.740374E+03	1.075827E-05	4.030033E-07
3.750375E+03	1.019624E-05	3.801866E-07
3.760376E+03	9.629434E-06	3.573865E-07
3.770377E+03	9.073041E-06	3.351670E-07
3.780378E+03	8.547265E-06	3.142657E-07
3.790379E+03	8.065884E-06	2.951711E-07
3.800380E+03	7.640072E-06	2.782672E-07
3.810381E+03	7.281462E-06	2.639471E-07
3.820382E+03	6.995384E-06	2.523682E-07
3.830383E+03	6.785267E-06	2.436161E-07
3.840384E+03	6.656230E-06	2.378344E-07
3.850385E+03	6.609534E-06	2.350261E-07
3.860386E+03	6.646268E-06	2.351873E-07
3.870387E+03	6.770557E-06	2.384202E-07
3.880388E+03	6.983612E-06	2.447224E-07
3.890389E+03	7.286344E-06	2.540801E-07
3.900390E+03	7.682156E-06	2.665656E-07
3.910391E+03	8.168524E-06	2.820444E-07
3.920392E+03	8.745049E-06	3.004569E-07
3.930393E+03	9.404398E-06	3.215071E-07
3.940394E+03	1.013458E-05	3.447456E-07
3.950395E+03	1.092329E-05	3.697206E-07
3.960396E+03	1.174955E-05	3.956975E-07
3.970397E+03	1.258884E-05	4.218365E-07
3.980398E+03	1.342078E-05	4.474533E-07
3.990399E+03	1.422046E-05	4.717268E-07
4.000400E+03	1.496545E-05	4.939347E-07
4.010401E+03	1.564446E-05	5.137350E-07
4.020402E+03	1.624278E-05	5.306820E-07
4.030403E+03	1.676028E-05	5.448134E-07
4.040404E+03	1.719203E-05	5.560113E-07
4.050405E+03	1.754696E-05	5.646067E-07
4.060406E+03	1.782948E-05	5.707804E-07
4.070407E+03	1.804572E-05	5.747642E-07
4.080408E+03	1.821070E-05	5.770674E-07
4.090409E+03	1.832886E-05	5.778562E-07
4.100410E+03	1.841464E-05	5.776073E-07
4.110411E+03	1.847062E-05	5.764169E-07
4.120412E+03	1.850879E-05	5.746732E-07
4.130413E+03	1.852916E-05	5.723851E-07
4.140414E+03	1.854161E-05	5.698659E-07
4.150415E+03	1.854472E-05	5.670767E-07
4.160416E+03	1.854791E-05	5.643087E-07
4.170417E+03	1.855012E-05	5.615312E-07
4.180418E+03	1.855907E-05	5.589774E-07
4.190419E+03	1.858304E-05	5.568933E-07
4.200420E+03	1.862275E-05	5.552945E-07
4.210421E+03	1.869009E-05	5.545274E-07
4.220422E+03	1.878595E-05	5.546073E-07
4.230423E+03	1.891813E-05	5.557517E-07
4.240424E+03	1.909201E-05	5.581036E-07
4.250425E+03	1.930133E-05	5.614644E-07
4.260426E+03	1.954447E-05	5.657735E-07
4.270427E+03	1.981374E-05	5.707974E-07
4.280428E+03	2.010148E-05	5.763076E-07
4.290429E+03	2.038906E-05	5.817666E-07
4.300430E+03	2.066496E-05	5.868505E-07
4.310431E+03	2.091451E-05	5.911513E-07
4.320432E+03	2.112415E-05	5.943003E-07
4.330433E+03	2.128596E-05	5.960937E-07
4.340434E+03	2.138726E-05	5.961985E-07
4.350435E+03	2.143065E-05	5.947113E-07
4.360436E+03	2.142348E-05	5.918586E-07
4.370437E+03	2.138087E-05	5.880762E-07
4.380438E+03	2.132300E-05	5.839301E-07
4.390439E+03	2.126997E-05	5.799744E-07
4.400440E+03	2.123618E-05	5.765991E-07
4.410441E+03	2.122938E-05	5.740083E-07
4.420442E+03	2.125391E-05	5.723099E-07
4.430443E+03	2.131266E-05	5.715727E-07
4.440444E+03	2.140478E-05	5.717638E-07
4.450445E+03	2.153823E-05	5.730854E-07
4.460446E+03	2.171186E-05	5.754943E-07
4.470447E+03	2.192776E-05	5.790338E-07
4.480448E+03	2.218850E-05	5.837600E-07
4.490449E+03	2.249401E-05	5.896590E-07
4.500450E+03	2.285392E-05	5.969707E-07
4.510451E+03	2.326802E-05	6.056764E-07
4.520452E+03	2.373423E-05	6.157094E-07
4.530453E+03	2.425682E-05	6.271682E-07
4.540454E+03	2.482377E-05	6.397310E-07
4.550455E+03	2.541464E-05	6.528646E-07
4.560456E+03	2.601168E-05	6.661109E-07
4.570457E+03	2.657636E-05	6.784877E-07
4.580458E+03	2.708091E-05	6.892981E-07
4.590459E+03	2.748255E-05	6.974727E-07
4.600460E+03	2.775434E-05	7.023541E-07
4.610461E+03	2.787760E-05	7.034996E-07
4.620462E+03	2.783198E-05	7.004288E-07
4.630463E+03	2.761964E-05	6.932295E-07
4.640464E+03	2.725291E-05	6.822424E-07
4.650465E+03	2.674156E-05	6.677388E-07
4.660466E+03	2.611411E-05	6.504534E-07
4.670467E+03	2.540051E-05	6.311478E-07
4.680468E+03	2.463371E-05	6.106505E-07
4.690469E+03	2.384775E-05	5.898078E-07
4.700470E+03	2.307891E-05	5.695143E-07
4.710471E+03	2.235072E-05	5.503420E-07
4.720472E+03	2.169171E-05	5.329814E-07
4.730473E+03	2.111829E-05	5.178204E-07
4.740474E+03	2.064911E-05	5.052995E-07
4.750475E+03	2.028685E-05	4.954658E-07
4.760476E+03	2.003039E-05	4.882749E-07
4.770477E+03	1.987271E-05	4.835394E-07
4.780478E+03	1.980177E-05	4.809529E-07
4.790479E+03	1.979890E-05	4.800506E-07
4.800480E+03	1.985088E-05	4.805035E-07
4.810481E+03	1.993496E-05	4.817549E-07
4.820482E+03	2.002840E-05	4.832526E-07
4.830483E+03	2.011819E-05	4.846818E-07
4.840484E+03	2.018312E-05	4.855330E-07
4.850485E+03	2.021732E-05	4.856678E-07
4.860486E+03	2.020903E-05	4.848068E-07
4.870487E+03	2.016347E-05	4.830792E-07
4.880488E+03	2.008057E-05	4.804866E-07
4.890489E+03	1.997660E-05	4.774204E-07
4.900490E+03	1.986065E-05	4.740991E-07
4.910491E+03	1.975230E-05	4.709898E-07
4.920492E+03	1.966852E-05	4.684955E-07
4.930493E+03	1.962718E-05	4.670396E-07
4.940494E+03	1.963448E-05	4.667658E-07
4.950495E+03	1.969919E-05	4.678792E-07
4.960496E+03	1.982042E-05	4.703550E-07
4.970497E+03	1.998985E-05	4.739931E-07
4.980498E+03	2.019227E-05	4.784310E-07
4.990499E+03	2.040692E-05	4.831758E-07
5.000500E+03	2.060996E-05	4.876642E-07
5.010501E+03	2.077867E-05	4.913596E-07
5.020502E+03	2.089325E-05	4.937969E-07
5.030503E+03	2.095176E-05	4.949323E-07
5.040504E+03	2.095445E-05	4.947747E-07
5.050505E+03	2.091496E-05	4.936473E-07
5.060506E+03	2.085258E-05	4.920070E-07
5.070507E+03	2.080018E-05	4.906293E-07
5.080508E+03	2.078024E-05	4.900445E-07
5.090509E+03	2.082441E-05	4.909983E-07
5.100510E+03	2.095091E-05	4.939195E-07
5.110511E+03	2.117095E-05	4.990732E-07
5.120512E+03	2.149349E-05	5.066706E-07
5.130513E+03	2.191885E-05	5.167212E-07
5.140514E+03	2.242941E-05	5.288121E-07
5.150515E+03	2.300762E-05	5.425321E-07
5.160516E+03	2.362950E-05	5.573195E-07
5.170517E+03	2.425783E-05	5.722999E-07
5.180518E+03	2.486432E-05	5.868092E-07
5.190519E+03	2.542030E-05	6.001727E-07
5.200520E+03	2.590269E-05	6.118471E-07
5.210521E+03	2.629588E-05	6.214634E-07
5.220522E+03	2.659170E-05	6.288276E-07
5.230523E+03	2.678842E-05	6.338967E-07
5.240524E+03	2.688914E-05	6.367409E-07
5.250525E+03	2.689997E-05	6.375014E-07
5.260526E+03	2.682840E-05	6.363512E-07
5.270527E+03	2.668196E-05	6.334647E-07
5.280528E+03	2.646409E-05	6.289182E-07
5.290529E+03	2.618811E-05	6.230235E-07
5.300530E+03	2.585582E-05	6.158181E-07
5.310531E+03	2.546853E-05	6.073278E-07
5.320532E+03	2.503758E-05	5.978169E-07
5.330533E+03	2.456400E-05	5.873045E-07
5.340534E+03	2.404968E-05	5.758301E-07
5.350535E+03	2.350771E-05	5.637010E-07
5.360536E+03	2.293983E-05	5.509533E-07
5.370537E+03	2.235900E-05	5.378938E-07
5.380538E+03	2.177926E-05	5.248559E-07
5.390539E+03	2.120674E-05	5.119853E-07
5.400540E+03	2.065701E-05	4.996568E-07
5.410541E+03	2.014531E-05	4.882398E-07
5.420542E+03	1.967836E-05	4.779007E-07
5.430543E+03	1.927060E-05	4.689948E-07
5.440544E+03	1.893294E-05	4.617939E-07
5.450545E+03	1.867525E-05	4.565476E-07
5.460546E+03	1.850584E-05	4.534705E-07
5.470547E+03	1.843062E-05	4.527206E-07
5.480548E+03	1.845222E-05	4.543780E-07
5.490549E+03	1.856841E-05	4.584046E-07
5.500550E+03	1.876947E-05	4.645773E-07
5.510551E+03	1.903648E-05	4.724422E-07
5.520552E+03	1.934195E-05	4.813288E-07
5.530553E+03	1.964884E-05	4.903209E-07
5.540554E+03	1.992307E-05	4.985660E-07
5.550555E+03	2.012149E-05	5.049739E-07
5.560556E+03	2.020425E-05	5.085256E-07
5.570557E+03	2.014768E-05	5.085968E-07
5.580558E+03	1.993145E-05	5.046407E-07
5.590559E+03	1.954864E-05	4.964437E-07
5.600560E+03	1.901335E-05	4.843242E-07
5.610561E+03	1.833966E-05	4.686039E-07
5.620562E+03	1.755863E-05	4.500430E-07
5.630563E+03	1.669473E-05	4.292423E-07
5.640564E+03	1.577982E-05	4.069999E-07
5.650565E+03	1.484328E-05	3.840611E-07
5.660566E+03	1.390542E-05	3.609445E-07
5.670567E+03	1.298962E-05	3.382560E-07
5.680568E+03	1.211435E-05	3.164810E-07
5.690569E+03	1.129695E-05	2.960823E-07
5.700570E+03	1.054763E-05	2.773407E-07
5.710571E+03	9.878836E-06	2.606004E-07
5.720572E+03	9.298953E-06	2.461026E-07
5.730573E+03	8.813953E-06	2.340277E-07
5.740574E+03	8.427610E-06	2.244999E-07
5.750575E+03	8.141891E-06	2.175965E-07
5.760576E+03	7.957338E-06	2.133578E-07
5.770577E+03	7.873359E-06	2.117937E-07
5.780578E+03	7.888369E-06	2.128876E-07
5.790579E+03	7.999672E-06	2.165920E-07
5.800580E+03	8.201908E-06	2.227862E-07
5.810581E+03	8.490716E-06	2.313752E-07
5.820582E+03	8.855606E-06	2.420943E-07
5.830583E+03	9.283599E-06	2.546074E-07
5.840584E+03	9.756434E-06	2.684281E-07
5.850585E+03	1.025582E-05	2.830626E-07
5.860586E+03	1.075657E-05	2.978201E-07
5.870587E+03	1.123147E-05	3.119443E-07
5.880588E+03	1.165779E-05	3.247944E-07
5.890589E+03	1.200901E-05	3.356159E-07
5.900590E+03	1.226906E-05	3.439378E-07
5.910591E+03	1.242129E-05	3.492683E-07
5.920592E+03	1.246243E-05	3.514865E-07
5.930593E+03	1.238971E-05	3.504854E-07
5.940594E+03	1.221207E-05	3.464894E-07
5.950595E+03	1.194408E-05	3.398863E-07
5.960596E+03	1.159979E-05	3.310543E-07
5.970597E+03	1.120080E-05	3.205930E-07
5.980598E+03	1.076961E-05	3.091353E-07
5.990599E+03	1.032399E-05	2.971851E-07
6.000600E+03	9.884573E-06	2.853346E-07
6.010601E+03	9.468097E-06	2.740709E-07
6.020602E+03	9.088535E-06	2.638056E-07
6.030603E+03	8.757030E-06	2.548723E-07
6.040604E+03	8.483266E-06	2.475655E-07
6.050605E+03	8.271392E-06	2.420205E-07
6.060606E+03	8.127495E-06	2.384305E-07
6.070607E+03	8.055577E-06	2.369289E-07
6.080608E+03	8.059336E-06	2.376411E-07
6.090609E+03	8.142740E-06	2.407011E-07
6.100610E+03	8.309430E-06	2.462340E-07
6.110611E+03	8.567538E-06	2.544989E-07
6.120612E+03	8.923497E-06	2.657064E-07
6.130613E+03	9.386660E-06	2.801550E-07
6.140614E+03	9.968319E-06	2.982037E-07
6.150615E+03	1.068162E-05	3.202692E-07
6.160616E+03	1.153960E-05	3.467679E-07
6.170617E+03	1.256039E-05	3.782719E-07
6.180618E+03	1.375687E-05	4.151987E-07
6.190619E+03	1.514028E-05	4.579188E-07
6.200620E+03	1.671368E-05	5.065558E-07
6.210621E+03	1.847733E-05	5.611476E-07
6.220622E+03	2.041234E-05	6.211490E-07
6.230623E+03	2.248300E-05	6.854949E-07
6.240624E+03	2.464461E-05	7.528369E-07
6.250625E+03	2.682356E-05	8.209299E-07
6.260626E+03	2.894571E-05	8.874961E-07
6.270627E+03	3.091532E-05	9.495770E-07
6.280628E+03	3.265333E-05	1.004707E-06
6.290629E+03	3.407513E-05	1.050236E-06
6.300630E+03	3.513304E-05	1.084635E-06
6.310631E+03	3.578708E-05	1.106608E-06
6.320632E+03	3.603924E-05	1.116154E-06
6.330633E+03	3.591831E-05	1.114106E-06
6.340634E+03	3.545990E-05	1.101517E-06
6.350635E+03	3.473269E-05	1.080479E-06
6.360636E+03	3.379253E-05	1.052698E-06
6.370637E+03	3.270812E-05	1.020293E-06
6.380638E+03	3.153689E-05	9.850427E-07
6.390639E+03	3.033083E-05	9.485672E-07
6.400640E+03	2.911904E-05	9.117785E-07
6.410641E+03	2.793298E-05	8.756661E-07
6.420642E+03	2.679112E-05	8.408177E-07
6.430643E+03	2.570499E-05	8.076047E-07
6.440644E+03	2.468098E-05	7.762374E-07
6.450645E+03	2.372501E-05	7.469130E-07
6.460646E+03	2.283116E-05	7.194548E-07
6.470647E+03	2.200200E-05	6.939529E-07
6.480648E+03	2.123628E-05	6.703771E-07
6.490649E+03	2.053278E-05	6.486966E-07
6.500650E+03	1.989049E-05	6.288873E-07
6.510651E+03	1.930873E-05	6.109348E-07
6.520652E+03	1.878675E-05	5.948216E-07
6.530653E+03	1.832230E-05	5.804826E-07
6.540654E+03	1.790892E-05	5.677183E-07
6.550655E+03	1.753582E-05	5.561908E-07
6.560656E+03	1.719076E-05	5.455154E-07
6.570657E+03	1.685974E-05	5.352502E-07
6.580658E+03	1.653650E-05	5.251986E-07
6.590659E+03	1.620899E-05	5.149796E-07
6.600660E+03	1.586858E-05	5.043194E-07
6.610661E+03	1.550784E-05	4.929835E-07
6.620662E+03	1.512071E-05	4.807799E-07
6.630663E+03	1.470057E-05	4.674995E-07
6.640664E+03	1.424844E-05	4.531758E-07
6.650665E+03	1.376106E-05	4.377069E-07
6.660666E+03	1.323911E-05	4.211160E-07
6.670667E+03	1.268345E-05	4.034330E-07
6.680668E+03	1.210201E-05	3.849123E-07
6.690669E+03	1.149913E-05	3.656953E-07
6.700670E+03	1.088090E-05	3.459779E-07
6.710671E+03	1.025884E-05	3.261298E-07
6.720672E+03	9.639189E-06	3.063519E-07
6.730673E+03	9.033714E-06	2.870211E-07
6.740674E+03	8.449716E-06	2.683713E-07
6.750675E+03	7.893969E-06	2.506197E-07
6.760676E+03	7.375353E-06	2.340494E-07
6.770677E+03	6.897171E-06	2.187660E-07
6.780678E+03	6.465320E-06	2.049568E-07
6.790679E+03	6.080656E-06	1.926483E-07
6.800680E+03	5.746355E-06	1.819402E-07
6.810681E+03	5.461376E-06	1.727981E-07
6.820682E+03	5.227092E-06	1.652634E-07
6.830683E+03	5.041499E-06	1.592704E-07
6.840684E+03	4.904575E-06	1.548156E-07
6.850685E+03	4.816220E-06	1.518926E-07
6.860686E+03	4.774532E-06	1.504378E-07
6.870687E+03	4.780446E-06	1.504768E-07
6.880688E+03	4.832544E-06	1.519605E-07
6.890689E+03	4.931500E-06	1.549056E-07
6.900690E+03	5.078071E-06	1.593304E-07
6.910691E+03	5.270843E-06	1.651851E-07
6.920692E+03	5.510023E-06	1.724703E-07
6.930693E+03	5.794530E-06	1.811457E-07
6.940694E+03	6.123245E-06	1.911699E-07
6.950695E+03	6.491573E-06	2.023927E-07
6.960696E+03	6.896121E-06	2.147018E-07
6.970697E+03	7.331534E-06	2.279243E-07
6.980698E+03	7.791407E-06	2.418554E-07
6.990699E+03	8.268530E-06	2.562663E-07
7.000700E+03	8.756442E-06	2.709525E-07
7.010701E+03	9.245224E-06	2.856041E-07
7.020702E+03	9.728859E-06	3.000334E-07
7.030703E+03	1.020114E-05	3.140480E-07
7.040704E+03	1.065713E-05	3.274968E-07
7.050705E+03	1.109349E-05	3.402776E-07
7.060706E+03	1.150855E-05	3.523412E-07
7.070707E+03	1.190239E-05	3.636924E-07
7.080708E+03	1.227678E-05	3.743875E-07
7.090709E+03	1.263506E-05	3.845301E-07
7.100710E+03	1.298196E-05	3.942659E-07
7.110711E+03	1.332345E-05	4.037765E-07
7.120712E+03	1.366650E-05	4.132731E-07
7.130713E+03	1.401893E-05	4.229895E-07
7.140714E+03	1.438907E-05	4.331741E-07
7.150715E+03	1.478544E-05	4.440780E-07
7.160716E+03	1.521639E-05	4.559446E-07
7.170717E+03	1.568733E-05	4.689270E-07
7.180718E+03	1.620847E-05	4.833196E-07
7.190719E+03	1.678153E-05	4.991608E-07
7.200720E+03	1.740697E-05	5.164517E-07
7.210721E+03	1.808113E-05	5.350696E-07
7.220722E+03	1.879263E-05	5.546663E-07
7.230723E+03	1.953193E-05	5.749498E-07
7.240724E+03	2.027606E-05	5.952378E-07
7.250725E+03	2.099895E-05	6.147637E-07
7.260726E+03	2.166708E-05	6.325522E-07
7.270727E+03	2.225314E-05	6.478208E-07
7.280728E+03	2.272116E-05	6.595442E-07
7.290729E+03	2.303778E-05	6.667862E-07
7.300730E+03	2.318504E-05	6.690663E-07
7.310731E+03	2.314402E-05	6.658838E-07
7.320732E+03	2.290581E-05	6.570330E-07
7.330733E+03	2.248144E-05	6.428821E-07
7.340734E+03	2.187923E-05	6.237187E-07
7.350735E+03	2.112764E-05	6.004017E-07
7.360736E+03	2.024877E-05	5.735992E-07
7.370737E+03	1.927892E-05	5.443731E-07
7.380738E+03	1.824358E-05	5.134682E-07
7.390739E+03	1.717680E-05	4.818607E-07
7.400740E+03	1.609940E-05	4.501435E-07
7.410741E+03	1.503743E-05	4.190483E-07
7.420742E+03	1.400374E-05	3.889300E-07
7.430743E+03	1.301357E-05	3.602037E-07
7.440744E+03	1.207789E-05	3.331624E-07
7.450745E+03	1.119957E-05	3.078709E-07
7.460746E+03	1.038572E-05	2.845087E-07
7.470747E+03	9.635408E-06	2.630338E-07
7.480748E+03	8.950887E-06	2.434898E-07
7.490749E+03	8.331911E-06	2.258522E-07
7.500750E+03	7.778666E-06	2.101078E-07
7.510751E+03	7.287670E-06	1.961446E-07
7.520752E+03	6.858577E-06	1.839357E-07
7.530753E+03	6.489840E-06	1.734225E-07
7.540754E+03	6.180824E-06	1.645707E-07
7.550755E+03	5.928475E-06	1.572826E-07
7.560756E+03	5.732600E-06	1.515368E-07
7.570757E+03	5.592412E-06	1.472967E-07
7.580758E+03	5.507442E-06	1.445341E-07
7.590759E+03	5.477559E-06	1.432302E-07
7.600760E+03	5.502919E-06	1.433737E-07
7.610761E+03	5.583888E-06	1.449587E-07
7.620762E+03	5.720893E-06	1.479813E-07
7.630763E+03	5.914199E-06	1.524330E-07
7.640764E+03	6.163515E-06	1.582917E-07
7.650765E+03	6.467465E-06	1.655075E-07
7.660766E+03	6.822881E-06	1.739861E-07
7.670767E+03	7.224036E-06	1.835693E-07
7.680768E+03	7.661964E-06	1.940194E-07
7.690769E+03	8.123988E-06	2.050089E-07
7.700770E+03	8.593615E-06	2.161186E-07
7.710771E+03	9.050984E-06	2.268514E-07
7.720772E+03	9.474007E-06	2.366609E-07
7.730773E+03	9.840149E-06	2.449972E-07
7.740774E+03	1.012726E-05	2.513270E-07
7.750775E+03	1.032150E-05	2.553295E-07
7.760776E+03	1.041107E-05	2.567376E-07
