#wls	flux	fluxerr
1.600000E+03	1.263032E-16	2.066039E-18
1.640000E+03	1.257690E-16	2.050954E-18
1.680000E+03	1.252954E-16	2.036752E-18
1.720000E+03	1.248847E-16	2.023463E-18
1.760000E+03	1.245393E-16	2.011111E-18
1.800000E+03	1.243250E-16	2.000747E-18
1.840000E+03	1.241820E-16	1.991386E-18
1.880000E+03	1.242084E-16	1.984580E-18
1.920000E+03	1.243451E-16	1.979356E-18
1.960000E+03	1.246595E-16	1.976763E-18
2.000000E+03	1.251569E-16	1.976846E-18
2.040000E+03	1.258747E-16	1.980152E-18
2.080000E+03	1.267881E-16	1.986247E-18
2.120000E+03	1.279679E-16	1.996192E-18
2.160000E+03	1.293921E-16	2.009580E-18
2.200000E+03	1.311024E-16	2.027000E-18
2.240000E+03	1.331739E-16	2.049536E-18
2.280000E+03	1.355582E-16	2.076357E-18
2.320000E+03	1.383341E-16	2.108583E-18
2.360000E+03	1.415519E-16	2.146872E-18
2.400000E+03	1.452014E-16	2.190953E-18
2.440000E+03	1.493695E-16	2.242010E-18
2.480000E+03	1.540827E-16	2.300292E-18
2.520000E+03	1.594339E-16	2.367019E-18
2.560000E+03	1.654863E-16	2.442940E-18
2.600000E+03	1.723379E-16	2.529280E-18
2.640000E+03	1.799902E-16	2.625822E-18
2.680000E+03	1.886078E-16	2.734698E-18
2.720000E+03	1.982586E-16	2.856584E-18
2.760000E+03	2.090428E-16	2.992582E-18
2.800000E+03	2.210266E-16	3.143261E-18
2.840000E+03	2.343775E-16	3.310582E-18
2.880000E+03	2.491602E-16	3.494991E-18
2.920000E+03	2.655069E-16	3.697832E-18
2.960000E+03	2.835489E-16	3.920370E-18
3.000000E+03	3.034524E-16	4.164280E-18
3.010000E+03	3.087454E-16	4.228878E-18
3.020000E+03	3.141402E-16	4.294558E-18
3.030000E+03	3.196736E-16	4.361813E-18
3.040000E+03	3.253458E-16	4.430635E-18
3.050000E+03	3.311572E-16	4.501013E-18
3.060000E+03	3.371078E-16	4.572938E-18
3.070000E+03	3.431607E-16	4.645894E-18
3.080000E+03	3.493904E-16	4.720881E-18
3.090000E+03	3.557597E-16	4.797378E-18
3.100000E+03	3.622310E-16	4.874870E-18
3.110000E+03	3.689173E-16	4.954860E-18
3.120000E+03	3.757053E-16	5.035813E-18
3.130000E+03	3.826707E-16	5.118729E-18
3.140000E+03	3.897753E-16	5.203084E-18
3.150000E+03	3.970571E-16	5.289370E-18
3.160000E+03	4.044777E-16	5.377059E-18
3.170000E+03	4.120752E-16	5.466642E-18
3.180000E+03	4.198107E-16	5.557590E-18
3.190000E+03	4.277609E-16	5.650900E-18
3.200000E+03	4.358482E-16	5.745530E-18
3.210000E+03	4.441108E-16	5.841968E-18
3.220000E+03	4.525479E-16	5.940189E-18
3.230000E+03	4.611981E-16	6.040677E-18
3.240000E+03	4.699824E-16	6.142384E-18
3.250000E+03	4.789782E-16	6.246302E-18
3.260000E+03	4.881453E-16	6.351889E-18
3.270000E+03	4.975221E-16	6.459626E-18
3.280000E+03	5.070677E-16	6.568964E-18
3.290000E+03	5.167810E-16	6.679869E-18
3.300000E+03	5.266998E-16	6.792815E-18
3.310000E+03	5.368227E-16	6.907761E-18
3.320000E+03	5.471479E-16	7.024664E-18
3.330000E+03	5.576735E-16	7.143480E-18
3.340000E+03	5.683973E-16	7.264161E-18
3.350000E+03	5.793168E-16	7.386656E-18
3.360000E+03	5.904297E-16	7.510913E-18
3.370000E+03	6.017329E-16	7.636876E-18
3.380000E+03	6.132233E-16	7.764485E-18
3.390000E+03	6.249785E-16	7.894702E-18
3.400000E+03	6.368739E-16	8.025928E-18
3.410000E+03	6.490268E-16	8.159625E-18
3.420000E+03	6.613525E-16	8.294704E-18
3.430000E+03	6.738464E-16	8.431090E-18
3.440000E+03	6.865852E-16	8.569723E-18
3.450000E+03	6.995238E-16	8.710015E-18
3.460000E+03	7.126166E-16	8.851381E-18
3.470000E+03	7.259400E-16	8.994748E-18
3.480000E+03	7.394481E-16	9.139529E-18
3.490000E+03	7.531766E-16	9.286143E-18
3.500000E+03	7.670795E-16	9.434003E-18
3.510000E+03	7.811514E-16	9.583022E-18
3.520000E+03	7.954278E-16	9.733617E-18
3.530000E+03	8.099029E-16	9.885698E-18
3.540000E+03	8.245706E-16	1.003917E-17
3.550000E+03	8.393841E-16	1.019344E-17
3.560000E+03	8.543775E-16	1.034891E-17
3.570000E+03	8.695439E-16	1.050548E-17
3.580000E+03	8.849168E-16	1.066354E-17
3.590000E+03	9.004069E-16	1.082198E-17
3.600000E+03	9.160874E-16	1.098167E-17
3.610000E+03	9.319089E-16	1.114200E-17
3.620000E+03	9.479028E-16	1.130334E-17
3.630000E+03	9.640186E-16	1.146506E-17
3.640000E+03	9.802866E-16	1.162752E-17
3.650000E+03	9.966559E-16	1.179008E-17
3.660000E+03	1.013154E-15	1.195308E-17
3.670000E+03	1.029770E-15	1.211636E-17
3.680000E+03	1.046451E-15	1.227929E-17
3.690000E+03	1.063263E-15	1.244263E-17
3.700000E+03	1.080113E-15	1.260529E-17
3.710000E+03	1.097065E-15	1.276803E-17
3.720000E+03	1.114066E-15	1.293018E-17
3.730000E+03	1.131057E-15	1.309109E-17
3.740000E+03	1.148103E-15	1.325150E-17
3.750000E+03	1.165186E-15	1.341120E-17
3.760000E+03	1.182209E-15	1.356906E-17
3.770000E+03	1.199232E-15	1.372579E-17
3.780000E+03	1.216197E-15	1.388072E-17
3.790000E+03	1.233084E-15	1.403363E-17
3.800000E+03	1.249913E-15	1.418476E-17
3.810000E+03	1.266621E-15	1.433340E-17
3.820000E+03	1.283228E-15	1.447979E-17
3.830000E+03	1.299672E-15	1.462325E-17
3.840000E+03	1.315931E-15	1.476354E-17
3.850000E+03	1.331983E-15	1.490044E-17
3.860000E+03	1.347842E-15	1.503414E-17
3.870000E+03	1.363486E-15	1.516439E-17
3.880000E+03	1.378814E-15	1.529011E-17
3.890000E+03	1.393878E-15	1.541193E-17
3.900000E+03	1.408618E-15	1.552918E-17
3.910000E+03	1.423045E-15	1.564203E-17
3.920000E+03	1.437063E-15	1.574947E-17
3.930000E+03	1.450685E-15	1.585169E-17
3.940000E+03	1.463925E-15	1.594887E-17
3.950000E+03	1.476685E-15	1.604000E-17
3.960000E+03	1.488983E-15	1.612531E-17
3.970000E+03	1.500759E-15	1.620423E-17
3.980000E+03	1.512066E-15	1.627736E-17
3.990000E+03	1.522780E-15	1.634342E-17
4.000000E+03	1.532956E-15	1.640309E-17
4.010000E+03	1.542546E-15	1.645589E-17
4.020000E+03	1.551540E-15	1.650178E-17
4.030000E+03	1.559934E-15	1.654079E-17
4.040000E+03	1.567723E-15	1.657292E-17
4.050000E+03	1.574877E-15	1.659795E-17
4.060000E+03	1.581404E-15	1.661598E-17
4.070000E+03	1.587343E-15	1.662752E-17
4.080000E+03	1.592643E-15	1.663210E-17
4.090000E+03	1.597353E-15	1.663029E-17
4.100000E+03	1.601489E-15	1.662232E-17
4.110000E+03	1.605042E-15	1.660816E-17
4.120000E+03	1.608035E-15	1.658811E-17
4.130000E+03	1.610493E-15	1.656249E-17
4.140000E+03	1.612416E-15	1.653135E-17
4.150000E+03	1.613862E-15	1.649535E-17
4.160000E+03	1.614809E-15	1.645431E-17
4.170000E+03	1.615321E-15	1.640893E-17
4.180000E+03	1.615436E-15	1.635966E-17
4.190000E+03	1.615167E-15	1.630667E-17
4.200000E+03	1.614560E-15	1.625044E-17
4.210000E+03	1.613632E-15	1.619122E-17
4.220000E+03	1.612430E-15	1.612949E-17
4.230000E+03	1.611030E-15	1.606604E-17
4.240000E+03	1.609429E-15	1.600087E-17
4.250000E+03	1.607673E-15	1.593448E-17
4.260000E+03	1.605838E-15	1.586761E-17
4.270000E+03	1.603920E-15	1.580025E-17
4.280000E+03	1.601987E-15	1.573309E-17
4.290000E+03	1.600035E-15	1.566608E-17
4.300000E+03	1.598153E-15	1.560011E-17
4.310000E+03	1.596327E-15	1.553504E-17
4.320000E+03	1.594594E-15	1.547124E-17
4.330000E+03	1.592961E-15	1.540876E-17
4.340000E+03	1.591480E-15	1.534811E-17
4.350000E+03	1.590153E-15	1.528931E-17
4.360000E+03	1.589005E-15	1.523258E-17
4.370000E+03	1.588013E-15	1.517770E-17
4.380000E+03	1.587219E-15	1.512506E-17
4.390000E+03	1.586623E-15	1.507465E-17
4.400000E+03	1.586221E-15	1.502644E-17
4.410000E+03	1.585989E-15	1.498018E-17
4.420000E+03	1.585966E-15	1.493622E-17
4.430000E+03	1.586110E-15	1.489416E-17
4.440000E+03	1.586419E-15	1.485398E-17
4.450000E+03	1.586895E-15	1.481567E-17
4.460000E+03	1.587555E-15	1.477940E-17
4.470000E+03	1.588422E-15	1.474535E-17
4.480000E+03	1.589533E-15	1.471386E-17
4.490000E+03	1.590924E-15	1.468525E-17
4.500000E+03	1.592610E-15	1.465962E-17
4.510000E+03	1.594603E-15	1.463709E-17
4.520000E+03	1.596953E-15	1.461808E-17
4.530000E+03	1.599630E-15	1.460230E-17
4.540000E+03	1.602656E-15	1.458992E-17
4.550000E+03	1.606016E-15	1.458080E-17
4.560000E+03	1.609724E-15	1.457503E-17
4.570000E+03	1.613758E-15	1.457241E-17
4.580000E+03	1.618112E-15	1.457285E-17
4.590000E+03	1.622758E-15	1.457610E-17
4.600000E+03	1.627670E-15	1.458189E-17
4.610000E+03	1.632857E-15	1.459031E-17
4.620000E+03	1.638293E-15	1.460111E-17
4.630000E+03	1.643959E-15	1.461410E-17
4.640000E+03	1.649852E-15	1.462926E-17
4.650000E+03	1.655961E-15	1.464648E-17
4.660000E+03	1.662278E-15	1.466569E-17
4.670000E+03	1.668799E-15	1.468685E-17
4.680000E+03	1.675546E-15	1.471013E-17
4.690000E+03	1.682542E-15	1.473574E-17
4.700000E+03	1.689755E-15	1.476339E-17
4.710000E+03	1.697210E-15	1.479330E-17
4.720000E+03	1.704887E-15	1.482529E-17
4.730000E+03	1.712807E-15	1.485953E-17
4.740000E+03	1.720892E-15	1.489536E-17
4.750000E+03	1.729143E-15	1.493275E-17
4.760000E+03	1.737478E-15	1.497101E-17
4.770000E+03	1.745877E-15	1.500995E-17
4.780000E+03	1.754278E-15	1.504904E-17
4.790000E+03	1.762666E-15	1.508816E-17
4.800000E+03	1.771000E-15	1.512695E-17
4.810000E+03	1.779251E-15	1.516517E-17
4.820000E+03	1.787349E-15	1.520223E-17
4.830000E+03	1.795252E-15	1.523778E-17
4.840000E+03	1.802897E-15	1.527130E-17
4.850000E+03	1.810201E-15	1.530209E-17
4.860000E+03	1.817094E-15	1.532960E-17
4.870000E+03	1.823525E-15	1.535340E-17
4.880000E+03	1.829375E-15	1.537252E-17
4.890000E+03	1.834619E-15	1.538677E-17
4.900000E+03	1.839182E-15	1.539556E-17
4.910000E+03	1.842982E-15	1.539824E-17
4.920000E+03	1.846001E-15	1.539468E-17
4.930000E+03	1.848196E-15	1.538455E-17
4.940000E+03	1.849534E-15	1.536763E-17
4.950000E+03	1.850018E-15	1.534397E-17
4.960000E+03	1.849658E-15	1.531368E-17
4.970000E+03	1.848422E-15	1.527655E-17
4.980000E+03	1.846383E-15	1.523319E-17
4.990000E+03	1.843543E-15	1.518366E-17
5.000000E+03	1.839955E-15	1.512842E-17
5.010000E+03	1.835673E-15	1.506793E-17
5.020000E+03	1.830722E-15	1.500243E-17
5.030000E+03	1.825148E-15	1.493232E-17
5.040000E+03	1.819050E-15	1.485841E-17
5.050000E+03	1.812443E-15	1.478085E-17
5.060000E+03	1.805390E-15	1.470016E-17
5.070000E+03	1.797959E-15	1.461690E-17
5.080000E+03	1.790195E-15	1.453146E-17
5.090000E+03	1.782160E-15	1.444433E-17
5.100000E+03	1.773880E-15	1.435572E-17
5.110000E+03	1.765413E-15	1.426612E-17
5.120000E+03	1.756815E-15	1.417597E-17
5.130000E+03	1.748122E-15	1.408555E-17
5.140000E+03	1.739362E-15	1.399511E-17
5.150000E+03	1.730581E-15	1.390498E-17
5.160000E+03	1.721804E-15	1.381539E-17
5.170000E+03	1.713067E-15	1.372659E-17
5.180000E+03	1.704367E-15	1.363856E-17
5.190000E+03	1.695732E-15	1.355153E-17
5.200000E+03	1.687187E-15	1.346568E-17
5.210000E+03	1.678736E-15	1.338105E-17
5.220000E+03	1.670366E-15	1.329750E-17
5.230000E+03	1.662122E-15	1.321540E-17
5.240000E+03	1.653973E-15	1.313449E-17
5.250000E+03	1.645931E-15	1.305487E-17
5.260000E+03	1.637992E-15	1.297648E-17
5.270000E+03	1.630184E-15	1.289956E-17
5.280000E+03	1.622472E-15	1.282379E-17
5.290000E+03	1.614867E-15	1.274929E-17
5.300000E+03	1.607381E-15	1.267613E-17
5.310000E+03	1.600008E-15	1.260426E-17
5.320000E+03	1.592743E-15	1.253363E-17
5.330000E+03	1.585582E-15	1.246420E-17
5.340000E+03	1.578531E-15	1.239602E-17
5.350000E+03	1.571569E-15	1.232892E-17
5.360000E+03	1.564702E-15	1.226295E-17
5.370000E+03	1.557923E-15	1.219803E-17
5.380000E+03	1.551236E-15	1.213420E-17
5.390000E+03	1.544618E-15	1.207128E-17
5.400000E+03	1.538059E-15	1.200918E-17
5.410000E+03	1.531564E-15	1.194794E-17
5.420000E+03	1.525123E-15	1.188748E-17
5.430000E+03	1.518726E-15	1.182772E-17
5.440000E+03	1.512363E-15	1.176859E-17
5.450000E+03	1.506027E-15	1.171001E-17
5.460000E+03	1.499691E-15	1.165178E-17
5.470000E+03	1.493378E-15	1.159407E-17
5.480000E+03	1.487050E-15	1.153657E-17
5.490000E+03	1.480717E-15	1.147936E-17
5.500000E+03	1.474374E-15	1.142237E-17
5.510000E+03	1.468006E-15	1.136550E-17
5.520000E+03	1.461628E-15	1.130884E-17
5.530000E+03	1.455225E-15	1.125228E-17
5.540000E+03	1.448817E-15	1.119594E-17
5.550000E+03	1.442389E-15	1.113972E-17
5.560000E+03	1.435944E-15	1.108363E-17
5.570000E+03	1.429473E-15	1.102759E-17
5.580000E+03	1.422993E-15	1.097171E-17
5.590000E+03	1.416510E-15	1.091606E-17
5.600000E+03	1.410002E-15	1.086044E-17
5.610000E+03	1.403507E-15	1.080513E-17
5.620000E+03	1.397007E-15	1.075000E-17
5.630000E+03	1.390514E-15	1.069513E-17
5.640000E+03	1.384041E-15	1.064062E-17
5.650000E+03	1.377606E-15	1.058659E-17
5.660000E+03	1.371223E-15	1.053314E-17
5.670000E+03	1.364882E-15	1.048020E-17
5.680000E+03	1.358629E-15	1.042811E-17
5.690000E+03	1.352466E-15	1.037688E-17
5.700000E+03	1.346385E-15	1.032643E-17
5.710000E+03	1.340425E-15	1.027708E-17
5.720000E+03	1.334578E-15	1.022874E-17
5.730000E+03	1.328870E-15	1.018161E-17
5.740000E+03	1.323300E-15	1.013569E-17
5.750000E+03	1.317882E-15	1.009106E-17
5.760000E+03	1.312613E-15	1.004770E-17
5.770000E+03	1.307516E-15	1.000579E-17
5.780000E+03	1.302573E-15	9.965182E-18
5.790000E+03	1.297805E-15	9.926035E-18
5.800000E+03	1.293220E-15	9.888403E-18
5.810000E+03	1.288798E-15	9.852125E-18
5.820000E+03	1.284558E-15	9.817347E-18
5.830000E+03	1.280491E-15	9.784001E-18
5.840000E+03	1.276617E-15	9.752232E-18
5.850000E+03	1.272913E-15	9.721865E-18
5.860000E+03	1.269397E-15	9.693027E-18
5.870000E+03	1.266061E-15	9.665663E-18
5.880000E+03	1.262920E-15	9.639884E-18
5.890000E+03	1.259953E-15	9.615524E-18
5.900000E+03	1.257162E-15	9.592602E-18
5.910000E+03	1.254575E-15	9.571328E-18
5.920000E+03	1.252157E-15	9.551423E-18
5.930000E+03	1.249918E-15	9.532985E-18
5.940000E+03	1.247873E-15	9.516104E-18
5.950000E+03	1.245994E-15	9.500581E-18
5.960000E+03	1.244293E-15	9.486498E-18
5.970000E+03	1.242751E-15	9.473721E-18
5.980000E+03	1.241369E-15	9.462242E-18
5.990000E+03	1.240149E-15	9.452096E-18
6.000000E+03	1.239092E-15	9.443269E-18
6.010000E+03	1.238174E-15	9.435598E-18
6.020000E+03	1.237392E-15	9.429050E-18
6.030000E+03	1.236737E-15	9.423561E-18
6.040000E+03	1.236216E-15	9.419182E-18
6.050000E+03	1.235819E-15	9.415845E-18
6.060000E+03	1.235526E-15	9.413395E-18
6.070000E+03	1.235342E-15	9.411871E-18
6.080000E+03	1.235257E-15	9.411197E-18
6.090000E+03	1.235260E-15	9.411299E-18
6.100000E+03	1.235332E-15	9.412025E-18
6.110000E+03	1.235486E-15	9.413484E-18
6.120000E+03	1.235701E-15	9.415511E-18
6.130000E+03	1.235980E-15	9.418144E-18
6.140000E+03	1.236290E-15	9.421115E-18
6.150000E+03	1.236647E-15	9.424569E-18
6.160000E+03	1.237024E-15	9.428284E-18
6.170000E+03	1.237419E-15	9.432266E-18
6.180000E+03	1.237855E-15	9.436681E-18
6.190000E+03	1.238315E-15	9.441408E-18
6.200000E+03	1.238863E-15	9.446935E-18
6.210000E+03	1.239525E-15	9.453469E-18
6.220000E+03	1.240372E-15	9.461547E-18
6.230000E+03	1.241503E-15	9.471938E-18
6.240000E+03	1.243015E-15	9.485362E-18
6.250000E+03	1.245015E-15	9.502644E-18
6.260000E+03	1.247569E-15	9.524293E-18
6.270000E+03	1.250773E-15	9.551019E-18
6.280000E+03	1.254743E-15	9.583725E-18
6.290000E+03	1.259526E-15	9.622766E-18
6.300000E+03	1.265208E-15	9.668798E-18
6.310000E+03	1.271869E-15	9.722437E-18
6.320000E+03	1.279586E-15	9.784270E-18
6.330000E+03	1.288389E-15	9.854535E-18
6.340000E+03	1.298358E-15	9.933851E-18
6.350000E+03	1.309525E-15	1.002246E-17
6.360000E+03	1.321941E-15	1.012076E-17
6.370000E+03	1.335634E-15	1.022899E-17
6.380000E+03	1.350606E-15	1.034715E-17
6.390000E+03	1.366893E-15	1.047554E-17
6.400000E+03	1.384453E-15	1.061383E-17
6.410000E+03	1.403274E-15	1.076195E-17
6.420000E+03	1.423329E-15	1.091970E-17
6.430000E+03	1.444523E-15	1.108635E-17
6.440000E+03	1.466803E-15	1.126151E-17
6.450000E+03	1.490063E-15	1.144439E-17
6.460000E+03	1.514160E-15	1.163386E-17
6.470000E+03	1.538975E-15	1.182903E-17
6.480000E+03	1.564313E-15	1.202842E-17
6.490000E+03	1.589971E-15	1.223046E-17
6.500000E+03	1.615741E-15	1.243354E-17
6.510000E+03	1.641387E-15	1.263586E-17
6.520000E+03	1.666591E-15	1.283496E-17
6.530000E+03	1.691112E-15	1.302898E-17
6.540000E+03	1.714585E-15	1.321509E-17
6.550000E+03	1.736710E-15	1.339098E-17
6.560000E+03	1.757119E-15	1.355379E-17
6.570000E+03	1.775474E-15	1.370090E-17
6.580000E+03	1.791451E-15	1.382978E-17
6.590000E+03	1.804676E-15	1.393753E-17
6.600000E+03	1.814888E-15	1.402209E-17
6.610000E+03	1.821827E-15	1.408144E-17
6.620000E+03	1.825285E-15	1.411393E-17
6.630000E+03	1.825094E-15	1.411823E-17
6.640000E+03	1.821204E-15	1.409390E-17
6.650000E+03	1.813612E-15	1.404092E-17
6.660000E+03	1.802415E-15	1.395997E-17
6.670000E+03	1.787708E-15	1.385177E-17
6.680000E+03	1.769741E-15	1.371822E-17
6.690000E+03	1.748746E-15	1.356108E-17
6.700000E+03	1.725015E-15	1.338260E-17
6.710000E+03	1.698870E-15	1.318525E-17
6.720000E+03	1.670647E-15	1.297162E-17
6.730000E+03	1.640713E-15	1.274452E-17
6.740000E+03	1.609382E-15	1.250641E-17
6.750000E+03	1.576986E-15	1.225983E-17
6.760000E+03	1.543814E-15	1.200702E-17
6.770000E+03	1.510199E-15	1.175058E-17
6.780000E+03	1.476385E-15	1.149239E-17
6.790000E+03	1.442614E-15	1.123434E-17
6.800000E+03	1.409098E-15	1.097809E-17
6.810000E+03	1.376026E-15	1.072511E-17
6.820000E+03	1.343540E-15	1.047650E-17
6.830000E+03	1.311795E-15	1.023349E-17
6.840000E+03	1.280904E-15	9.996973E-18
6.850000E+03	1.250956E-15	9.767647E-18
6.860000E+03	1.222007E-15	9.545958E-18
6.870000E+03	1.194109E-15	9.332326E-18
6.880000E+03	1.167317E-15	9.127196E-18
6.890000E+03	1.141638E-15	8.930623E-18
6.900000E+03	1.117083E-15	8.742722E-18
6.910000E+03	1.093670E-15	8.563642E-18
6.920000E+03	1.071378E-15	8.393223E-18
6.930000E+03	1.050179E-15	8.231261E-18
6.940000E+03	1.030083E-15	8.077850E-18
6.950000E+03	1.011038E-15	7.932605E-18
6.960000E+03	9.930329E-16	7.795436E-18
6.970000E+03	9.760383E-16	7.666133E-18
6.980000E+03	9.600226E-16	7.544460E-18
6.990000E+03	9.449385E-16	7.430057E-18
7.000000E+03	9.307524E-16	7.322674E-18
7.010000E+03	9.174433E-16	7.222157E-18
7.020000E+03	9.049632E-16	7.128140E-18
7.030000E+03	8.932765E-16	7.040357E-18
7.040000E+03	8.823496E-16	6.958554E-18
7.050000E+03	8.721485E-16	6.882475E-18
7.060000E+03	8.626404E-16	6.811872E-18
7.070000E+03	8.537932E-16	6.746504E-18
7.080000E+03	8.455636E-16	6.686041E-18
7.090000E+03	8.379346E-16	6.630359E-18
7.100000E+03	8.308782E-16	6.579250E-18
7.110000E+03	8.243552E-16	6.532412E-18
7.120000E+03	8.183527E-16	6.489757E-18
7.130000E+03	8.128227E-16	6.450914E-18
7.140000E+03	8.077676E-16	6.415914E-18
7.150000E+03	8.031548E-16	6.384509E-18
7.160000E+03	7.989652E-16	6.356559E-18
7.170000E+03	7.951934E-16	6.332032E-18
7.180000E+03	7.917868E-16	6.310520E-18
7.190000E+03	7.887669E-16	6.292207E-18
7.200000E+03	7.860956E-16	6.276800E-18
7.210000E+03	7.837720E-16	6.264304E-18
7.220000E+03	7.817839E-16	6.254633E-18
7.230000E+03	7.801080E-16	6.247612E-18
7.240000E+03	7.787332E-16	6.243166E-18
7.250000E+03	7.776611E-16	6.241319E-18
7.260000E+03	7.768693E-16	6.241903E-18
7.270000E+03	7.763476E-16	6.244850E-18
7.280000E+03	7.760861E-16	6.250092E-18
7.290000E+03	7.760746E-16	6.257561E-18
7.300000E+03	7.763156E-16	6.267290E-18
7.310000E+03	7.767749E-16	6.279015E-18
7.320000E+03	7.774547E-16	6.292767E-18
7.330000E+03	7.783453E-16	6.308484E-18
7.340000E+03	7.794371E-16	6.326098E-18
7.350000E+03	7.807083E-16	6.345448E-18
7.360000E+03	7.821744E-16	6.366673E-18
7.370000E+03	7.837891E-16	6.389409E-18
7.380000E+03	7.855812E-16	6.413905E-18
7.390000E+03	7.875046E-16	6.439800E-18
7.400000E+03	7.895899E-16	6.467356E-18
7.410000E+03	7.917914E-16	6.496214E-18
7.420000E+03	7.941283E-16	6.526545E-18
7.430000E+03	7.965820E-16	6.558210E-18
7.440000E+03	7.991472E-16	6.591179E-18
7.450000E+03	8.018197E-16	6.625431E-18
7.460000E+03	8.045956E-16	6.660949E-18
7.470000E+03	8.074720E-16	6.697723E-18
7.480000E+03	8.104326E-16	6.735631E-18
7.490000E+03	8.135015E-16	6.774890E-18
7.500000E+03	8.166484E-16	6.815259E-18
7.510000E+03	8.198954E-16	6.856939E-18
7.520000E+03	8.232220E-16	6.899775E-18
7.530000E+03	8.266331E-16	6.943815E-18
7.540000E+03	8.301040E-16	6.988857E-18
7.550000E+03	8.336228E-16	7.034802E-18
7.560000E+03	8.372058E-16	7.081791E-18
7.570000E+03	8.408132E-16	7.129488E-18
7.580000E+03	8.444625E-16	7.178042E-18
7.590000E+03	8.481290E-16	7.227245E-18
7.600000E+03	8.517886E-16	7.276889E-18
7.610000E+03	8.554767E-16	7.327276E-18
7.620000E+03	8.591413E-16	7.377960E-18
7.630000E+03	8.628048E-16	7.429130E-18
7.640000E+03	8.664614E-16	7.480733E-18
7.650000E+03	8.700904E-16	7.532589E-18
7.660000E+03	8.737021E-16	7.584781E-18
7.670000E+03	8.772923E-16	7.637271E-18
7.680000E+03	8.808418E-16	7.689886E-18
7.690000E+03	8.843785E-16	7.742865E-18
7.700000E+03	8.878682E-16	7.795903E-18
7.710000E+03	8.913401E-16	7.849253E-18
7.720000E+03	8.947766E-16	7.902753E-18
7.730000E+03	8.981756E-16	7.956379E-18
7.740000E+03	9.015360E-16	8.010115E-18
7.750000E+03	9.048720E-16	8.064083E-18
7.760000E+03	9.081681E-16	8.118135E-18
