#wls	flux	fluxerr
1.600000E+03	4.923967E-17	4.544018E-18
1.640000E+03	5.111918E-17	4.716608E-18
1.680000E+03	5.308142E-17	4.896746E-18
1.720000E+03	5.514572E-17	5.086206E-18
1.760000E+03	5.733275E-17	5.286887E-18
1.800000E+03	5.961445E-17	5.496192E-18
1.840000E+03	6.202837E-17	5.717572E-18
1.880000E+03	6.454510E-17	5.948307E-18
1.920000E+03	6.720359E-17	6.191977E-18
1.960000E+03	6.999111E-17	6.447394E-18
2.000000E+03	7.291186E-17	6.714936E-18
2.040000E+03	7.596987E-17	6.994960E-18
2.080000E+03	7.916894E-17	7.287801E-18
2.120000E+03	8.253236E-17	7.595590E-18
2.160000E+03	8.602388E-17	7.914976E-18
2.200000E+03	8.968612E-17	8.249864E-18
2.240000E+03	9.350117E-17	8.598589E-18
2.280000E+03	9.749170E-17	8.963221E-18
2.320000E+03	1.016151E-16	9.339818E-18
2.360000E+03	1.059142E-16	9.732314E-18
2.400000E+03	1.103654E-16	1.013850E-17
2.440000E+03	1.149650E-16	1.055803E-17
2.480000E+03	1.197079E-16	1.099043E-17
2.520000E+03	1.245873E-16	1.143503E-17
2.560000E+03	1.295941E-16	1.189099E-17
2.600000E+03	1.347173E-16	1.235729E-17
2.640000E+03	1.399433E-16	1.283265E-17
2.680000E+03	1.452822E-16	1.331800E-17
2.720000E+03	1.506631E-16	1.380679E-17
2.760000E+03	1.561170E-16	1.430189E-17
2.800000E+03	1.615929E-16	1.479858E-17
2.840000E+03	1.670905E-16	1.529685E-17
2.880000E+03	1.725797E-16	1.579392E-17
2.920000E+03	1.780556E-16	1.628934E-17
2.960000E+03	1.834820E-16	1.677980E-17
3.000000E+03	1.888490E-16	1.726438E-17
3.010000E+03	1.901757E-16	1.738408E-17
3.020000E+03	1.915154E-16	1.750494E-17
3.030000E+03	1.928383E-16	1.762424E-17
3.040000E+03	1.941729E-16	1.774458E-17
3.050000E+03	1.954893E-16	1.786323E-17
3.060000E+03	1.967868E-16	1.798012E-17
3.070000E+03	1.980938E-16	1.809786E-17
3.080000E+03	1.994096E-16	1.821637E-17
3.090000E+03	2.007042E-16	1.833292E-17
3.100000E+03	2.020062E-16	1.845011E-17
3.110000E+03	2.032854E-16	1.856519E-17
3.120000E+03	2.045703E-16	1.868077E-17
3.130000E+03	2.058602E-16	1.879678E-17
3.140000E+03	2.071542E-16	1.891313E-17
3.150000E+03	2.084222E-16	1.902708E-17
3.160000E+03	2.096927E-16	1.914123E-17
3.170000E+03	2.109648E-16	1.925550E-17
3.180000E+03	2.122376E-16	1.936981E-17
3.190000E+03	2.134809E-16	1.948139E-17
3.200000E+03	2.147524E-16	1.959553E-17
3.210000E+03	2.159927E-16	1.970678E-17
3.220000E+03	2.172593E-16	1.982041E-17
3.230000E+03	2.185219E-16	1.993365E-17
3.240000E+03	2.197796E-16	2.004641E-17
3.250000E+03	2.210021E-16	2.015594E-17
3.260000E+03	2.222762E-16	2.027014E-17
3.270000E+03	2.235130E-16	2.038091E-17
3.280000E+03	2.247698E-16	2.049349E-17
3.290000E+03	2.260166E-16	2.060511E-17
3.300000E+03	2.272521E-16	2.071568E-17
3.310000E+03	2.285041E-16	2.082773E-17
3.320000E+03	2.297426E-16	2.093852E-17
3.330000E+03	2.309952E-16	2.105057E-17
3.340000E+03	2.322319E-16	2.116115E-17
3.350000E+03	2.334802E-16	2.127274E-17
3.360000E+03	2.347102E-16	2.138264E-17
3.370000E+03	2.359775E-16	2.149592E-17
3.380000E+03	2.372239E-16	2.160727E-17
3.390000E+03	2.384764E-16	2.171914E-17
3.400000E+03	2.397336E-16	2.183141E-17
3.410000E+03	2.409940E-16	2.194394E-17
3.420000E+03	2.422282E-16	2.205407E-17
3.430000E+03	2.434907E-16	2.216673E-17
3.440000E+03	2.447794E-16	2.228177E-17
3.450000E+03	2.460377E-16	2.239399E-17
3.460000E+03	2.472916E-16	2.250580E-17
3.470000E+03	2.485669E-16	2.261952E-17
3.480000E+03	2.498615E-16	2.273497E-17
3.490000E+03	2.511198E-16	2.284709E-17
3.500000E+03	2.524209E-16	2.296308E-17
3.510000E+03	2.537091E-16	2.307787E-17
3.520000E+03	2.549830E-16	2.319132E-17
3.530000E+03	2.562935E-16	2.330808E-17
3.540000E+03	2.575860E-16	2.342317E-17
3.550000E+03	2.588848E-16	2.353881E-17
3.560000E+03	2.601881E-16	2.365482E-17
3.570000E+03	2.614937E-16	2.377102E-17
3.580000E+03	2.627997E-16	2.388723E-17
3.590000E+03	2.641295E-16	2.400557E-17
3.600000E+03	2.654302E-16	2.412124E-17
3.610000E+03	2.667504E-16	2.423865E-17
3.620000E+03	2.680875E-16	2.435757E-17
3.630000E+03	2.694146E-16	2.447556E-17
3.640000E+03	2.707540E-16	2.459463E-17
3.650000E+03	2.720793E-16	2.471239E-17
3.660000E+03	2.734124E-16	2.483084E-17
3.670000E+03	2.747512E-16	2.494977E-17
3.680000E+03	2.760931E-16	2.506896E-17
3.690000E+03	2.774124E-16	2.518607E-17
3.700000E+03	2.787540E-16	2.530518E-17
3.710000E+03	2.801149E-16	2.542601E-17
3.720000E+03	2.814467E-16	2.554417E-17
3.730000E+03	2.827931E-16	2.566364E-17
3.740000E+03	2.841291E-16	2.578213E-17
3.750000E+03	2.854747E-16	2.590146E-17
3.760000E+03	2.868273E-16	2.602140E-17
3.770000E+03	2.881626E-16	2.613975E-17
3.780000E+03	2.895004E-16	2.625830E-17
3.790000E+03	2.908382E-16	2.637682E-17
3.800000E+03	2.921947E-16	2.649701E-17
3.810000E+03	2.935255E-16	2.661484E-17
3.820000E+03	2.948700E-16	2.673390E-17
3.830000E+03	2.962054E-16	2.685209E-17
3.840000E+03	2.975295E-16	2.696925E-17
3.850000E+03	2.988604E-16	2.708700E-17
3.860000E+03	3.001760E-16	2.720333E-17
3.870000E+03	3.015135E-16	2.732162E-17
3.880000E+03	3.028314E-16	2.743812E-17
3.890000E+03	3.041474E-16	2.755442E-17
3.900000E+03	3.054594E-16	2.767033E-17
3.910000E+03	3.067839E-16	2.778735E-17
3.920000E+03	3.080821E-16	2.790197E-17
3.930000E+03	3.093890E-16	2.801735E-17
3.940000E+03	3.107024E-16	2.813330E-17
3.950000E+03	3.120025E-16	2.824803E-17
3.960000E+03	3.132882E-16	2.836143E-17
3.970000E+03	3.145926E-16	2.847650E-17
3.980000E+03	3.158794E-16	2.858996E-17
3.990000E+03	3.171645E-16	2.870325E-17
4.000000E+03	3.184466E-16	2.881624E-17
4.010000E+03	3.197244E-16	2.892882E-17
4.020000E+03	3.210126E-16	2.904233E-17
4.030000E+03	3.222940E-16	2.915520E-17
4.040000E+03	3.235676E-16	2.926736E-17
4.050000E+03	3.248482E-16	2.938012E-17
4.060000E+03	3.261194E-16	2.949203E-17
4.070000E+03	3.273958E-16	2.960438E-17
4.080000E+03	3.286765E-16	2.971709E-17
4.090000E+03	3.299461E-16	2.982880E-17
4.100000E+03	3.312190E-16	2.994079E-17
4.110000E+03	3.324947E-16	3.005302E-17
4.120000E+03	3.337730E-16	3.016546E-17
4.130000E+03	3.350673E-16	3.027933E-17
4.140000E+03	3.363497E-16	3.039212E-17
4.150000E+03	3.376346E-16	3.050512E-17
4.160000E+03	3.389218E-16	3.061832E-17
4.170000E+03	3.402248E-16	3.073292E-17
4.180000E+03	3.415307E-16	3.084777E-17
4.190000E+03	3.428398E-16	3.096291E-17
4.200000E+03	3.441529E-16	3.107839E-17
4.210000E+03	3.454708E-16	3.119429E-17
4.220000E+03	3.467941E-16	3.131068E-17
4.230000E+03	3.481360E-16	3.142872E-17
4.240000E+03	3.494849E-16	3.154739E-17
4.250000E+03	3.508421E-16	3.166680E-17
4.260000E+03	3.522087E-16	3.178705E-17
4.270000E+03	3.535859E-16	3.190825E-17
4.280000E+03	3.549752E-16	3.203052E-17
4.290000E+03	3.563778E-16	3.215399E-17
4.300000E+03	3.577950E-16	3.227878E-17
4.310000E+03	3.592178E-16	3.240405E-17
4.320000E+03	3.606586E-16	3.253094E-17
4.330000E+03	3.621084E-16	3.265864E-17
4.340000E+03	3.635795E-16	3.278825E-17
4.350000E+03	3.650633E-16	3.291900E-17
4.360000E+03	3.665719E-16	3.305198E-17
4.370000E+03	3.680869E-16	3.318554E-17
4.380000E+03	3.696108E-16	3.331988E-17
4.390000E+03	3.711650E-16	3.345697E-17
4.400000E+03	3.727322E-16	3.359521E-17
4.410000E+03	3.743146E-16	3.373482E-17
4.420000E+03	3.759049E-16	3.387514E-17
4.430000E+03	3.775242E-16	3.401807E-17
4.440000E+03	3.791560E-16	3.416212E-17
4.450000E+03	3.808026E-16	3.430751E-17
4.460000E+03	3.824663E-16	3.445444E-17
4.470000E+03	3.841494E-16	3.460311E-17
4.480000E+03	3.858453E-16	3.475293E-17
4.490000E+03	3.875651E-16	3.490490E-17
4.500000E+03	3.892935E-16	3.505766E-17
4.510000E+03	3.910333E-16	3.521143E-17
4.520000E+03	3.927951E-16	3.536718E-17
4.530000E+03	3.945726E-16	3.552435E-17
4.540000E+03	3.963599E-16	3.568240E-17
4.550000E+03	3.981593E-16	3.584154E-17
4.560000E+03	3.999729E-16	3.600196E-17
4.570000E+03	4.017952E-16	3.616316E-17
4.580000E+03	4.036282E-16	3.632532E-17
4.590000E+03	4.054740E-16	3.648865E-17
4.600000E+03	4.073347E-16	3.665331E-17
4.610000E+03	4.091969E-16	3.681811E-17
4.620000E+03	4.110703E-16	3.698392E-17
4.630000E+03	4.129492E-16	3.715023E-17
4.640000E+03	4.148282E-16	3.731654E-17
4.650000E+03	4.167165E-16	3.748371E-17
4.660000E+03	4.186087E-16	3.765122E-17
4.670000E+03	4.205063E-16	3.781923E-17
4.680000E+03	4.224038E-16	3.798723E-17
4.690000E+03	4.243028E-16	3.815539E-17
4.700000E+03	4.261978E-16	3.832317E-17
4.710000E+03	4.280902E-16	3.849075E-17
4.720000E+03	4.299817E-16	3.865824E-17
4.730000E+03	4.318664E-16	3.882513E-17
4.740000E+03	4.337528E-16	3.899218E-17
4.750000E+03	4.356279E-16	3.915823E-17
4.760000E+03	4.374932E-16	3.932341E-17
4.770000E+03	4.393564E-16	3.948842E-17
4.780000E+03	4.412051E-16	3.965213E-17
4.790000E+03	4.430401E-16	3.981462E-17
4.800000E+03	4.448690E-16	3.997658E-17
4.810000E+03	4.466791E-16	4.013686E-17
4.820000E+03	4.484779E-16	4.029615E-17
4.830000E+03	4.502658E-16	4.045448E-17
4.840000E+03	4.520304E-16	4.061072E-17
4.850000E+03	4.537851E-16	4.076610E-17
4.860000E+03	4.555170E-16	4.091945E-17
4.870000E+03	4.572268E-16	4.107083E-17
4.880000E+03	4.589209E-16	4.122083E-17
4.890000E+03	4.605932E-16	4.136888E-17
4.900000E+03	4.622435E-16	4.151499E-17
4.910000E+03	4.638782E-16	4.165972E-17
4.920000E+03	4.654845E-16	4.180192E-17
4.930000E+03	4.670624E-16	4.194160E-17
4.940000E+03	4.686241E-16	4.207985E-17
4.950000E+03	4.701567E-16	4.221552E-17
4.960000E+03	4.716662E-16	4.234914E-17
4.970000E+03	4.731521E-16	4.248067E-17
4.980000E+03	4.746077E-16	4.260951E-17
4.990000E+03	4.760387E-16	4.273618E-17
5.000000E+03	4.774445E-16	4.286062E-17
5.010000E+03	4.788245E-16	4.298277E-17
5.020000E+03	4.801718E-16	4.310202E-17
5.030000E+03	4.814980E-16	4.321943E-17
5.040000E+03	4.827963E-16	4.333435E-17
5.050000E+03	4.840659E-16	4.344674E-17
5.060000E+03	4.853121E-16	4.355708E-17
5.070000E+03	4.865281E-16	4.366473E-17
5.080000E+03	4.877191E-16	4.377019E-17
5.090000E+03	4.888843E-16	4.387337E-17
5.100000E+03	4.900289E-16	4.397475E-17
5.110000E+03	4.911461E-16	4.407372E-17
5.120000E+03	4.922353E-16	4.417021E-17
5.130000E+03	4.933015E-16	4.426469E-17
5.140000E+03	4.943501E-16	4.435763E-17
5.150000E+03	4.953744E-16	4.444845E-17
5.160000E+03	4.963797E-16	4.453760E-17
5.170000E+03	4.973653E-16	4.462504E-17
5.180000E+03	4.983307E-16	4.471072E-17
5.190000E+03	4.992814E-16	4.479512E-17
5.200000E+03	5.002109E-16	4.487769E-17
5.210000E+03	5.011306E-16	4.495942E-17
5.220000E+03	5.020403E-16	4.504030E-17
5.230000E+03	5.029337E-16	4.511979E-17
5.240000E+03	5.038225E-16	4.519891E-17
5.250000E+03	5.047006E-16	4.527714E-17
5.260000E+03	5.055739E-16	4.535499E-17
5.270000E+03	5.064426E-16	4.543248E-17
5.280000E+03	5.073066E-16	4.550961E-17
5.290000E+03	5.081721E-16	4.558695E-17
5.300000E+03	5.090453E-16	4.566503E-17
5.310000E+03	5.099206E-16	4.574336E-17
5.320000E+03	5.107988E-16	4.582202E-17
5.330000E+03	5.116918E-16	4.590207E-17
5.340000E+03	5.125946E-16	4.598306E-17
5.350000E+03	5.135137E-16	4.606558E-17
5.360000E+03	5.144501E-16	4.614972E-17
5.370000E+03	5.154045E-16	4.623554E-17
5.380000E+03	5.163837E-16	4.632366E-17
5.390000E+03	5.173889E-16	4.641418E-17
5.400000E+03	5.184153E-16	4.650667E-17
5.410000E+03	5.194756E-16	4.660228E-17
5.420000E+03	5.205711E-16	4.670111E-17
5.430000E+03	5.216972E-16	4.680277E-17
5.440000E+03	5.228609E-16	4.690789E-17
5.450000E+03	5.240693E-16	4.701708E-17
5.460000E+03	5.253178E-16	4.712995E-17
5.470000E+03	5.266136E-16	4.724715E-17
5.480000E+03	5.279520E-16	4.736825E-17
5.490000E+03	5.293400E-16	4.749388E-17
5.500000E+03	5.307785E-16	4.762413E-17
5.510000E+03	5.322686E-16	4.775908E-17
5.520000E+03	5.338166E-16	4.789934E-17
5.530000E+03	5.354121E-16	4.804393E-17
5.540000E+03	5.370671E-16	4.819396E-17
5.550000E+03	5.387821E-16	4.834947E-17
5.560000E+03	5.405521E-16	4.851000E-17
5.570000E+03	5.423777E-16	4.867560E-17
5.580000E+03	5.442592E-16	4.884632E-17
5.590000E+03	5.462030E-16	4.902272E-17
5.600000E+03	5.482036E-16	4.920432E-17
5.610000E+03	5.502672E-16	4.939167E-17
5.620000E+03	5.523830E-16	4.958379E-17
5.630000E+03	5.545626E-16	4.978173E-17
5.640000E+03	5.567950E-16	4.998450E-17
5.650000E+03	5.590863E-16	5.019266E-17
5.660000E+03	5.614368E-16	5.040623E-17
5.670000E+03	5.638355E-16	5.062421E-17
5.680000E+03	5.662998E-16	5.084819E-17
5.690000E+03	5.688071E-16	5.107612E-17
5.700000E+03	5.713749E-16	5.130958E-17
5.710000E+03	5.739920E-16	5.154756E-17
5.720000E+03	5.766587E-16	5.179009E-17
5.730000E+03	5.793752E-16	5.203720E-17
5.740000E+03	5.821417E-16	5.228890E-17
5.750000E+03	5.849471E-16	5.254418E-17
5.760000E+03	5.878030E-16	5.280411E-17
5.770000E+03	5.906922E-16	5.306713E-17
5.780000E+03	5.936266E-16	5.333431E-17
5.790000E+03	5.966005E-16	5.360513E-17
5.800000E+03	5.996082E-16	5.387910E-17
5.810000E+03	6.026442E-16	5.415570E-17
5.820000E+03	6.057143E-16	5.443548E-17
5.830000E+03	6.088127E-16	5.471790E-17
5.840000E+03	6.119396E-16	5.500299E-17
5.850000E+03	6.150835E-16	5.528970E-17
5.860000E+03	6.182560E-16	5.557909E-17
5.870000E+03	6.214395E-16	5.586957E-17
5.880000E+03	6.246402E-16	5.616170E-17
5.890000E+03	6.278519E-16	5.645492E-17
5.900000E+03	6.310688E-16	5.674872E-17
5.910000E+03	6.342968E-16	5.704362E-17
5.920000E+03	6.375240E-16	5.733855E-17
5.930000E+03	6.407564E-16	5.763404E-17
5.940000E+03	6.439818E-16	5.792902E-17
5.950000E+03	6.472004E-16	5.822347E-17
5.960000E+03	6.504119E-16	5.851740E-17
5.970000E+03	6.536101E-16	5.881023E-17
5.980000E+03	6.567952E-16	5.910198E-17
5.990000E+03	6.599606E-16	5.939207E-17
6.000000E+03	6.631064E-16	5.968049E-17
6.010000E+03	6.662321E-16	5.996720E-17
6.020000E+03	6.693256E-16	6.025111E-17
6.030000E+03	6.723924E-16	6.053272E-17
6.040000E+03	6.754263E-16	6.081146E-17
6.050000E+03	6.784206E-16	6.108674E-17
6.060000E+03	6.813810E-16	6.135905E-17
6.070000E+03	6.843069E-16	6.162836E-17
6.080000E+03	6.871856E-16	6.189350E-17
6.090000E+03	6.900163E-16	6.215442E-17
6.100000E+03	6.928044E-16	6.241159E-17
6.110000E+03	6.955428E-16	6.266438E-17
6.120000E+03	6.982244E-16	6.291214E-17
6.130000E+03	7.008543E-16	6.315532E-17
6.140000E+03	7.034314E-16	6.339383E-17
6.150000E+03	7.059543E-16	6.362755E-17
6.160000E+03	7.084091E-16	6.385520E-17
6.170000E+03	7.108065E-16	6.407777E-17
6.180000E+03	7.131450E-16	6.429510E-17
6.190000E+03	7.154162E-16	6.450644E-17
6.200000E+03	7.176180E-16	6.471160E-17
6.210000E+03	7.197544E-16	6.491094E-17
6.220000E+03	7.218164E-16	6.510364E-17
6.230000E+03	7.238143E-16	6.529063E-17
6.240000E+03	7.257320E-16	6.547046E-17
6.250000E+03	7.275797E-16	6.564403E-17
6.260000E+03	7.293536E-16	6.581102E-17
6.270000E+03	7.310438E-16	6.597051E-17
6.280000E+03	7.326595E-16	6.612334E-17
6.290000E+03	7.341901E-16	6.626853E-17
6.300000E+03	7.356376E-16	6.640630E-17
6.310000E+03	7.370045E-16	6.653683E-17
6.320000E+03	7.382790E-16	6.665908E-17
6.330000E+03	7.394698E-16	6.677382E-17
6.340000E+03	7.405648E-16	6.687995E-17
6.350000E+03	7.415722E-16	6.697821E-17
6.360000E+03	7.424795E-16	6.706748E-17
6.370000E+03	7.432879E-16	6.714785E-17
6.380000E+03	7.440052E-16	6.722002E-17
6.390000E+03	7.446114E-16	6.728219E-17
6.400000E+03	7.451144E-16	6.733507E-17
6.410000E+03	7.455077E-16	6.737806E-17
6.420000E+03	7.457922E-16	6.741124E-17
6.430000E+03	7.459615E-16	6.743403E-17
6.440000E+03	7.460162E-16	6.744647E-17
6.450000E+03	7.459500E-16	6.744801E-17
6.460000E+03	7.457639E-16	6.743871E-17
6.470000E+03	7.454588E-16	6.741866E-17
6.480000E+03	7.450216E-16	6.738667E-17
6.490000E+03	7.444537E-16	6.734286E-17
6.500000E+03	7.437564E-16	6.728735E-17
6.510000E+03	7.429248E-16	6.721967E-17
6.520000E+03	7.419606E-16	6.714000E-17
6.530000E+03	7.408594E-16	6.704791E-17
6.540000E+03	7.396167E-16	6.694300E-17
6.550000E+03	7.382357E-16	6.682556E-17
6.560000E+03	7.367129E-16	6.669526E-17
6.570000E+03	7.350451E-16	6.655180E-17
6.580000E+03	7.332368E-16	6.639561E-17
6.590000E+03	7.312933E-16	6.622713E-17
6.600000E+03	7.292055E-16	6.604554E-17
6.610000E+03	7.269723E-16	6.585075E-17
6.620000E+03	7.246002E-16	6.564334E-17
6.630000E+03	7.220965E-16	6.542395E-17
6.640000E+03	7.194542E-16	6.519195E-17
6.650000E+03	7.166816E-16	6.494810E-17
6.660000E+03	7.137800E-16	6.469251E-17
6.670000E+03	7.107442E-16	6.442468E-17
6.680000E+03	7.075912E-16	6.414617E-17
6.690000E+03	7.043237E-16	6.385721E-17
6.700000E+03	7.009380E-16	6.355747E-17
6.710000E+03	6.974377E-16	6.324726E-17
6.720000E+03	6.938413E-16	6.292827E-17
6.730000E+03	6.901391E-16	6.259961E-17
6.740000E+03	6.863501E-16	6.226298E-17
6.750000E+03	6.824651E-16	6.191758E-17
6.760000E+03	6.785038E-16	6.156516E-17
6.770000E+03	6.744644E-16	6.120557E-17
6.780000E+03	6.703528E-16	6.083935E-17
6.790000E+03	6.661748E-16	6.046700E-17
6.800000E+03	6.619435E-16	6.008972E-17
6.810000E+03	6.576647E-16	5.970805E-17
6.820000E+03	6.533375E-16	5.932188E-17
6.830000E+03	6.489678E-16	5.893176E-17
6.840000E+03	6.445686E-16	5.853887E-17
6.850000E+03	6.401390E-16	5.814312E-17
6.860000E+03	6.356915E-16	5.774565E-17
6.870000E+03	6.312251E-16	5.734635E-17
6.880000E+03	6.267520E-16	5.694636E-17
6.890000E+03	6.222709E-16	5.654554E-17
6.900000E+03	6.177938E-16	5.614498E-17
6.910000E+03	6.133189E-16	5.574452E-17
6.920000E+03	6.088510E-16	5.534460E-17
6.930000E+03	6.044014E-16	5.494625E-17
6.940000E+03	5.999679E-16	5.454926E-17
6.950000E+03	5.955547E-16	5.415401E-17
6.960000E+03	5.911655E-16	5.376085E-17
6.970000E+03	5.868109E-16	5.337074E-17
6.980000E+03	5.824809E-16	5.298277E-17
6.990000E+03	5.781923E-16	5.259847E-17
7.000000E+03	5.739347E-16	5.221689E-17
7.010000E+03	5.697242E-16	5.183950E-17
7.020000E+03	5.655502E-16	5.146535E-17
7.030000E+03	5.614219E-16	5.109525E-17
7.040000E+03	5.573349E-16	5.072882E-17
7.050000E+03	5.532977E-16	5.036684E-17
7.060000E+03	5.493122E-16	5.000947E-17
7.070000E+03	5.453737E-16	4.965628E-17
7.080000E+03	5.414901E-16	4.930801E-17
7.090000E+03	5.376564E-16	4.896419E-17
7.100000E+03	5.338739E-16	4.862496E-17
7.110000E+03	5.301438E-16	4.829040E-17
7.120000E+03	5.264670E-16	4.796062E-17
7.130000E+03	5.228443E-16	4.763569E-17
7.140000E+03	5.192766E-16	4.731568E-17
7.150000E+03	5.157646E-16	4.700066E-17
7.160000E+03	5.123025E-16	4.669011E-17
7.170000E+03	5.088970E-16	4.638465E-17
7.180000E+03	5.055486E-16	4.608431E-17
7.190000E+03	5.022514E-16	4.578856E-17
7.200000E+03	4.990057E-16	4.549743E-17
7.210000E+03	4.958177E-16	4.521150E-17
7.220000E+03	4.926816E-16	4.493021E-17
7.230000E+03	4.895972E-16	4.465358E-17
7.240000E+03	4.865649E-16	4.438161E-17
7.250000E+03	4.835844E-16	4.411431E-17
7.260000E+03	4.806557E-16	4.385167E-17
7.270000E+03	4.777787E-16	4.359366E-17
7.280000E+03	4.749473E-16	4.333976E-17
7.290000E+03	4.721672E-16	4.309048E-17
7.300000E+03	4.694383E-16	4.284580E-17
7.310000E+03	4.667544E-16	4.260516E-17
7.320000E+03	4.641210E-16	4.236907E-17
7.330000E+03	4.615321E-16	4.213698E-17
7.340000E+03	4.589930E-16	4.190938E-17
7.350000E+03	4.564921E-16	4.168521E-17
7.360000E+03	4.540402E-16	4.146545E-17
7.370000E+03	4.516371E-16	4.125009E-17
7.380000E+03	4.492710E-16	4.103805E-17
7.390000E+03	4.469470E-16	4.082981E-17
7.400000E+03	4.446704E-16	4.062584E-17
7.410000E+03	4.424352E-16	4.042559E-17
7.420000E+03	4.402351E-16	4.022850E-17
7.430000E+03	4.380809E-16	4.003556E-17
7.440000E+03	4.359665E-16	3.984620E-17
7.450000E+03	4.338859E-16	3.965988E-17
7.460000E+03	4.318496E-16	3.947755E-17
7.470000E+03	4.298461E-16	3.929817E-17
7.480000E+03	4.278856E-16	3.912268E-17
7.490000E+03	4.259568E-16	3.895004E-17
7.500000E+03	4.240701E-16	3.878120E-17
7.510000E+03	4.222138E-16	3.861510E-17
7.520000E+03	4.203929E-16	3.845219E-17
7.530000E+03	4.186123E-16	3.829291E-17
7.540000E+03	4.168604E-16	3.813623E-17
7.550000E+03	4.151475E-16	3.798306E-17
7.560000E+03	4.134676E-16	3.783288E-17
7.570000E+03	4.118201E-16	3.768562E-17
7.580000E+03	4.102044E-16	3.754122E-17
7.590000E+03	4.086198E-16	3.739963E-17
7.600000E+03	4.070711E-16	3.726129E-17
7.610000E+03	4.055523E-16	3.712564E-17
7.620000E+03	4.040628E-16	3.699264E-17
7.630000E+03	4.026019E-16	3.686222E-17
7.640000E+03	4.011798E-16	3.673531E-17
7.650000E+03	3.997797E-16	3.661038E-17
7.660000E+03	3.984117E-16	3.648836E-17
7.670000E+03	3.970753E-16	3.636919E-17
7.680000E+03	3.957644E-16	3.625232E-17
7.690000E+03	3.944891E-16	3.613869E-17
7.700000E+03	3.932328E-16	3.602675E-17
7.710000E+03	3.920108E-16	3.591793E-17
7.720000E+03	3.908118E-16	3.581119E-17
7.730000E+03	3.896461E-16	3.570746E-17
7.740000E+03	3.885022E-16	3.560570E-17
7.750000E+03	3.873849E-16	3.550634E-17
7.760000E+03	3.862936E-16	3.540934E-17
