#wls	flux	fluxerr
1.600000E+03	1.577700E-17	3.725997E-19
1.640000E+03	1.628449E-17	3.844089E-19
1.680000E+03	1.681625E-17	3.967757E-19
1.720000E+03	1.737327E-17	4.097223E-19
1.760000E+03	1.794981E-17	4.231119E-19
1.800000E+03	1.854642E-17	4.369568E-19
1.840000E+03	1.917076E-17	4.514357E-19
1.880000E+03	1.981662E-17	4.664012E-19
1.920000E+03	2.049200E-17	4.820402E-19
1.960000E+03	2.119799E-17	4.983764E-19
2.000000E+03	2.192790E-17	5.152509E-19
2.040000E+03	2.269024E-17	5.328623E-19
2.080000E+03	2.347796E-17	5.510432E-19
2.120000E+03	2.429993E-17	5.699999E-19
2.160000E+03	2.514870E-17	5.895555E-19
2.200000E+03	2.603353E-17	6.099254E-19
2.240000E+03	2.695552E-17	6.311328E-19
2.280000E+03	2.790647E-17	6.529839E-19
2.320000E+03	2.889624E-17	6.757070E-19
2.360000E+03	2.991615E-17	6.990970E-19
2.400000E+03	3.097646E-17	7.233909E-19
2.440000E+03	3.207810E-17	7.486081E-19
2.480000E+03	3.322201E-17	7.747676E-19
2.520000E+03	3.439835E-17	8.016375E-19
2.560000E+03	3.561816E-17	8.294720E-19
2.600000E+03	3.688218E-17	8.582861E-19
2.640000E+03	3.817965E-17	8.878260E-19
2.680000E+03	3.952214E-17	9.183585E-19
2.720000E+03	4.091024E-17	9.498936E-19
2.760000E+03	4.234440E-17	9.824392E-19
2.800000E+03	4.382503E-17	1.016001E-18
2.840000E+03	4.533957E-17	1.050286E-18
2.880000E+03	4.690054E-17	1.085580E-18
2.920000E+03	4.850805E-17	1.121884E-18
2.960000E+03	5.016213E-17	1.159194E-18
3.000000E+03	5.184864E-17	1.197182E-18
3.010000E+03	5.227521E-17	1.206781E-18
3.020000E+03	5.271790E-17	1.216748E-18
3.030000E+03	5.314841E-17	1.226429E-18
3.040000E+03	5.358083E-17	1.236150E-18
3.050000E+03	5.402952E-17	1.246241E-18
3.060000E+03	5.446576E-17	1.256040E-18
3.070000E+03	5.491839E-17	1.266212E-18
3.080000E+03	5.537299E-17	1.276425E-18
3.090000E+03	5.581484E-17	1.286339E-18
3.100000E+03	5.627324E-17	1.296630E-18
3.110000E+03	5.673355E-17	1.306959E-18
3.120000E+03	5.719575E-17	1.317327E-18
3.130000E+03	5.765980E-17	1.327733E-18
3.140000E+03	5.811063E-17	1.337830E-18
3.150000E+03	5.857826E-17	1.348308E-18
3.160000E+03	5.906287E-17	1.359172E-18
3.170000E+03	5.953413E-17	1.369723E-18
3.180000E+03	6.000711E-17	1.380309E-18
3.190000E+03	6.048182E-17	1.390930E-18
3.200000E+03	6.095820E-17	1.401584E-18
3.210000E+03	6.145182E-17	1.412629E-18
3.220000E+03	6.193156E-17	1.423350E-18
3.230000E+03	6.241291E-17	1.434103E-18
3.240000E+03	6.291162E-17	1.445250E-18
3.250000E+03	6.339616E-17	1.456065E-18
3.260000E+03	6.389815E-17	1.467277E-18
3.270000E+03	6.440179E-17	1.478520E-18
3.280000E+03	6.489092E-17	1.489426E-18
3.290000E+03	6.539764E-17	1.500730E-18
3.300000E+03	6.590591E-17	1.512064E-18
3.310000E+03	6.641568E-17	1.523427E-18
3.320000E+03	6.692692E-17	1.534819E-18
3.330000E+03	6.743961E-17	1.546238E-18
3.340000E+03	6.795370E-17	1.557685E-18
3.350000E+03	6.846917E-17	1.569157E-18
3.360000E+03	6.898598E-17	1.580655E-18
3.370000E+03	6.950408E-17	1.592177E-18
3.380000E+03	7.002346E-17	1.603723E-18
3.390000E+03	7.056096E-17	1.615679E-18
3.400000E+03	7.108284E-17	1.627271E-18
3.410000E+03	7.160587E-17	1.638885E-18
3.420000E+03	7.214713E-17	1.650910E-18
3.430000E+03	7.267244E-17	1.662565E-18
3.440000E+03	7.321604E-17	1.674633E-18
3.450000E+03	7.374346E-17	1.686326E-18
3.460000E+03	7.428926E-17	1.698433E-18
3.470000E+03	7.483611E-17	1.710560E-18
3.480000E+03	7.536645E-17	1.722303E-18
3.490000E+03	7.591524E-17	1.734463E-18
3.500000E+03	7.646498E-17	1.746639E-18
3.510000E+03	7.701561E-17	1.758831E-18
3.520000E+03	7.756710E-17	1.771036E-18
3.530000E+03	7.811941E-17	1.783255E-18
3.540000E+03	7.867247E-17	1.795486E-18
3.550000E+03	7.922626E-17	1.807728E-18
3.560000E+03	7.978074E-17	1.819981E-18
3.570000E+03	8.035400E-17	1.832657E-18
3.580000E+03	8.090976E-17	1.844929E-18
3.590000E+03	8.146605E-17	1.857208E-18
3.600000E+03	8.204120E-17	1.869911E-18
3.610000E+03	8.259850E-17	1.882203E-18
3.620000E+03	8.317469E-17	1.894920E-18
3.630000E+03	8.373279E-17	1.907220E-18
3.640000E+03	8.430982E-17	1.919946E-18
3.650000E+03	8.486853E-17	1.932250E-18
3.660000E+03	8.544619E-17	1.944980E-18
3.670000E+03	8.602413E-17	1.957712E-18
3.680000E+03	8.660230E-17	1.970444E-18
3.690000E+03	8.716167E-17	1.982744E-18
3.700000E+03	8.774005E-17	1.995472E-18
3.710000E+03	8.831849E-17	2.008196E-18
3.720000E+03	8.889693E-17	2.020916E-18
3.730000E+03	8.947532E-17	2.033630E-18
3.740000E+03	9.005361E-17	2.046337E-18
3.750000E+03	9.063174E-17	2.059036E-18
3.760000E+03	9.122904E-17	2.072166E-18
3.770000E+03	9.180672E-17	2.084846E-18
3.780000E+03	9.238409E-17	2.097515E-18
3.790000E+03	9.296105E-17	2.110171E-18
3.800000E+03	9.355720E-17	2.123257E-18
3.810000E+03	9.413325E-17	2.135884E-18
3.820000E+03	9.470875E-17	2.148494E-18
3.830000E+03	9.530342E-17	2.161535E-18
3.840000E+03	9.587765E-17	2.174109E-18
3.850000E+03	9.647104E-17	2.187114E-18
3.860000E+03	9.706373E-17	2.200098E-18
3.870000E+03	9.763564E-17	2.212609E-18
3.880000E+03	9.822668E-17	2.225549E-18
3.890000E+03	9.881685E-17	2.238466E-18
3.900000E+03	9.940605E-17	2.251358E-18
3.910000E+03	9.997399E-17	2.263765E-18
3.920000E+03	1.005610E-16	2.276602E-18
3.930000E+03	1.011470E-16	2.289410E-18
3.940000E+03	1.017317E-16	2.302189E-18
3.950000E+03	1.023151E-16	2.314935E-18
3.960000E+03	1.028971E-16	2.327647E-18
3.970000E+03	1.034779E-16	2.340327E-18
3.980000E+03	1.040570E-16	2.352968E-18
3.990000E+03	1.046348E-16	2.365576E-18
4.000000E+03	1.052315E-16	2.378610E-18
4.010000E+03	1.058060E-16	2.391140E-18
4.020000E+03	1.063788E-16	2.403629E-18
4.030000E+03	1.069498E-16	2.416075E-18
4.040000E+03	1.075397E-16	2.428949E-18
4.050000E+03	1.081070E-16	2.441309E-18
4.060000E+03	1.086722E-16	2.453620E-18
4.070000E+03	1.092565E-16	2.466361E-18
4.080000E+03	1.098177E-16	2.478580E-18
4.090000E+03	1.103978E-16	2.491224E-18
4.100000E+03	1.109547E-16	2.503342E-18
4.110000E+03	1.115305E-16	2.515887E-18
4.120000E+03	1.120827E-16	2.527901E-18
4.130000E+03	1.126539E-16	2.540339E-18
4.140000E+03	1.132227E-16	2.552726E-18
4.150000E+03	1.137677E-16	2.564576E-18
4.160000E+03	1.143316E-16	2.576850E-18
4.170000E+03	1.148928E-16	2.589065E-18
4.180000E+03	1.154516E-16	2.601224E-18
4.190000E+03	1.159862E-16	2.612840E-18
4.200000E+03	1.165396E-16	2.624881E-18
4.210000E+03	1.170902E-16	2.636858E-18
4.220000E+03	1.176381E-16	2.648775E-18
4.230000E+03	1.181830E-16	2.660628E-18
4.240000E+03	1.187252E-16	2.672419E-18
4.250000E+03	1.192427E-16	2.683657E-18
4.260000E+03	1.197789E-16	2.695317E-18
4.270000E+03	1.203121E-16	2.706911E-18
4.280000E+03	1.208422E-16	2.718437E-18
4.290000E+03	1.213692E-16	2.729897E-18
4.300000E+03	1.218930E-16	2.741288E-18
4.310000E+03	1.224137E-16	2.752611E-18
4.320000E+03	1.229312E-16	2.763862E-18
4.330000E+03	1.234455E-16	2.775047E-18
4.340000E+03	1.239783E-16	2.786651E-18
4.350000E+03	1.244860E-16	2.797694E-18
4.360000E+03	1.249902E-16	2.808662E-18
4.370000E+03	1.254912E-16	2.819562E-18
4.380000E+03	1.259888E-16	2.830387E-18
4.390000E+03	1.264829E-16	2.841141E-18
4.400000E+03	1.269735E-16	2.851820E-18
4.410000E+03	1.274829E-16	2.862924E-18
4.420000E+03	1.279666E-16	2.873457E-18
4.430000E+03	1.284467E-16	2.883913E-18
4.440000E+03	1.289232E-16	2.894296E-18
4.450000E+03	1.293960E-16	2.904598E-18
4.460000E+03	1.298651E-16	2.914825E-18
4.470000E+03	1.303527E-16	2.925471E-18
4.480000E+03	1.308144E-16	2.935540E-18
4.490000E+03	1.312721E-16	2.945528E-18
4.500000E+03	1.317261E-16	2.955435E-18
4.510000E+03	1.321984E-16	2.965761E-18
4.520000E+03	1.326447E-16	2.975508E-18
4.530000E+03	1.330869E-16	2.985169E-18
4.540000E+03	1.335252E-16	2.994747E-18
4.550000E+03	1.339595E-16	3.004243E-18
4.560000E+03	1.344121E-16	3.014153E-18
4.570000E+03	1.348383E-16	3.023479E-18
4.580000E+03	1.352604E-16	3.032719E-18
4.590000E+03	1.356784E-16	3.041872E-18
4.600000E+03	1.360922E-16	3.050937E-18
4.610000E+03	1.365241E-16	3.060416E-18
4.620000E+03	1.369296E-16	3.069307E-18
4.630000E+03	1.373308E-16	3.078109E-18
4.640000E+03	1.377277E-16	3.086821E-18
4.650000E+03	1.381203E-16	3.095442E-18
4.660000E+03	1.385086E-16	3.103973E-18
4.670000E+03	1.388926E-16	3.112413E-18
4.680000E+03	1.392944E-16	3.121261E-18
4.690000E+03	1.396695E-16	3.129513E-18
4.700000E+03	1.400402E-16	3.137676E-18
4.710000E+03	1.404062E-16	3.145741E-18
4.720000E+03	1.407679E-16	3.153713E-18
4.730000E+03	1.411249E-16	3.161589E-18
4.740000E+03	1.414773E-16	3.169370E-18
4.750000E+03	1.418251E-16	3.177051E-18
4.760000E+03	1.421682E-16	3.184635E-18
4.770000E+03	1.425066E-16	3.192120E-18
4.780000E+03	1.428402E-16	3.199506E-18
4.790000E+03	1.431690E-16	3.206790E-18
4.800000E+03	1.434708E-16	3.213475E-18
4.810000E+03	1.437899E-16	3.220556E-18
4.820000E+03	1.441041E-16	3.227534E-18
4.830000E+03	1.444132E-16	3.234405E-18
4.840000E+03	1.447174E-16	3.241173E-18
4.850000E+03	1.449943E-16	3.247334E-18
4.860000E+03	1.452882E-16	3.253885E-18
4.870000E+03	1.455769E-16	3.260328E-18
4.880000E+03	1.458382E-16	3.266163E-18
4.890000E+03	1.461163E-16	3.272382E-18
4.900000E+03	1.463669E-16	3.277991E-18
4.910000E+03	1.466341E-16	3.283980E-18
4.920000E+03	1.468737E-16	3.289359E-18
4.930000E+03	1.471299E-16	3.295116E-18
4.940000E+03	1.473583E-16	3.300258E-18
4.950000E+03	1.476031E-16	3.305773E-18
4.960000E+03	1.478199E-16	3.310668E-18
4.970000E+03	1.480309E-16	3.315442E-18
4.980000E+03	1.482359E-16	3.320089E-18
4.990000E+03	1.484569E-16	3.325101E-18
5.000000E+03	1.486496E-16	3.329488E-18
5.010000E+03	1.488362E-16	3.333745E-18
5.020000E+03	1.490164E-16	3.337866E-18
5.030000E+03	1.491902E-16	3.341851E-18
5.040000E+03	1.493575E-16	3.345698E-18
5.050000E+03	1.495181E-16	3.349402E-18
5.060000E+03	1.496502E-16	3.352476E-18
5.070000E+03	1.497975E-16	3.355895E-18
5.080000E+03	1.499376E-16	3.359163E-18
5.090000E+03	1.500708E-16	3.362284E-18
5.100000E+03	1.501752E-16	3.364766E-18
5.110000E+03	1.502940E-16	3.367579E-18
5.120000E+03	1.503838E-16	3.369749E-18
5.130000E+03	1.504878E-16	3.372247E-18
5.140000E+03	1.505627E-16	3.374097E-18
5.150000E+03	1.506514E-16	3.376266E-18
5.160000E+03	1.507109E-16	3.377787E-18
5.170000E+03	1.507625E-16	3.379140E-18
5.180000E+03	1.508061E-16	3.380321E-18
5.190000E+03	1.508417E-16	3.381329E-18
5.200000E+03	1.508692E-16	3.382162E-18
5.210000E+03	1.508883E-16	3.382816E-18
5.220000E+03	1.508990E-16	3.383291E-18
5.230000E+03	1.509013E-16	3.383583E-18
5.240000E+03	1.508950E-16	3.383689E-18
5.250000E+03	1.508800E-16	3.383608E-18
5.260000E+03	1.508352E-16	3.382865E-18
5.270000E+03	1.508026E-16	3.382404E-18
5.280000E+03	1.507400E-16	3.381278E-18
5.290000E+03	1.506895E-16	3.380430E-18
5.300000E+03	1.506089E-16	3.378917E-18
5.310000E+03	1.505193E-16	3.377205E-18
5.320000E+03	1.504412E-16	3.375762E-18
5.330000E+03	1.503331E-16	3.373651E-18
5.340000E+03	1.502157E-16	3.371339E-18
5.350000E+03	1.500890E-16	3.368826E-18
5.360000E+03	1.499529E-16	3.366107E-18
5.370000E+03	1.497869E-16	3.362727E-18
5.380000E+03	1.496320E-16	3.359601E-18
5.390000E+03	1.494676E-16	3.356269E-18
5.400000E+03	1.492734E-16	3.352275E-18
5.410000E+03	1.490902E-16	3.348534E-18
5.420000E+03	1.488771E-16	3.344129E-18
5.430000E+03	1.486547E-16	3.339523E-18
5.440000E+03	1.484430E-16	3.335162E-18
5.450000E+03	1.482018E-16	3.330147E-18
5.460000E+03	1.479514E-16	3.324930E-18
5.470000E+03	1.476917E-16	3.319511E-18
5.480000E+03	1.474226E-16	3.313889E-18
5.490000E+03	1.471445E-16	3.308068E-18
5.500000E+03	1.468376E-16	3.301606E-18
5.510000E+03	1.465413E-16	3.295389E-18
5.520000E+03	1.462166E-16	3.288538E-18
5.530000E+03	1.459025E-16	3.281929E-18
5.540000E+03	1.455602E-16	3.274693E-18
5.550000E+03	1.452094E-16	3.267268E-18
5.560000E+03	1.448691E-16	3.260085E-18
5.570000E+03	1.445012E-16	3.252285E-18
5.580000E+03	1.441250E-16	3.244303E-18
5.590000E+03	1.437217E-16	3.235713E-18
5.600000E+03	1.433293E-16	3.227374E-18
5.610000E+03	1.429289E-16	3.218858E-18
5.620000E+03	1.425022E-16	3.209750E-18
5.630000E+03	1.420864E-16	3.200894E-18
5.640000E+03	1.416446E-16	3.191453E-18
5.650000E+03	1.412141E-16	3.182268E-18
5.660000E+03	1.407580E-16	3.172510E-18
5.670000E+03	1.402949E-16	3.162596E-18
5.680000E+03	1.398252E-16	3.152535E-18
5.690000E+03	1.393489E-16	3.142327E-18
5.700000E+03	1.388662E-16	3.131976E-18
5.710000E+03	1.383593E-16	3.121081E-18
5.720000E+03	1.378644E-16	3.110456E-18
5.730000E+03	1.373460E-16	3.099302E-18
5.740000E+03	1.368396E-16	3.088420E-18
5.750000E+03	1.363101E-16	3.077017E-18
5.760000E+03	1.357756E-16	3.065500E-18
5.770000E+03	1.352361E-16	3.053870E-18
5.780000E+03	1.346918E-16	3.042133E-18
5.790000E+03	1.341428E-16	3.030289E-18
5.800000E+03	1.335895E-16	3.018347E-18
5.810000E+03	1.330150E-16	3.005924E-18
5.820000E+03	1.324534E-16	2.993792E-18
5.830000E+03	1.318712E-16	2.981194E-18
5.840000E+03	1.312855E-16	2.968516E-18
5.850000E+03	1.307131E-16	2.956136E-18
5.860000E+03	1.301207E-16	2.943304E-18
5.870000E+03	1.295255E-16	2.930404E-18
5.880000E+03	1.289111E-16	2.917068E-18
5.890000E+03	1.283105E-16	2.904043E-18
5.900000E+03	1.277074E-16	2.890959E-18
5.910000E+03	1.270860E-16	2.877457E-18
5.920000E+03	1.264785E-16	2.864270E-18
5.930000E+03	1.258533E-16	2.850676E-18
5.940000E+03	1.252264E-16	2.837043E-18
5.950000E+03	1.245981E-16	2.823372E-18
5.960000E+03	1.239683E-16	2.809668E-18
5.970000E+03	1.233374E-16	2.795933E-18
5.980000E+03	1.227056E-16	2.782174E-18
5.990000E+03	1.220574E-16	2.768041E-18
6.000000E+03	1.214240E-16	2.754239E-18
6.010000E+03	1.207747E-16	2.740074E-18
6.020000E+03	1.201253E-16	2.725899E-18
6.030000E+03	1.194905E-16	2.712055E-18
6.040000E+03	1.188407E-16	2.697864E-18
6.050000E+03	1.181761E-16	2.683335E-18
6.060000E+03	1.175268E-16	2.669146E-18
6.070000E+03	1.168775E-16	2.654955E-18
6.080000E+03	1.162288E-16	2.640772E-18
6.090000E+03	1.155662E-16	2.626268E-18
6.100000E+03	1.149045E-16	2.611780E-18
6.110000E+03	1.142436E-16	2.597306E-18
6.120000E+03	1.135978E-16	2.583170E-18
6.130000E+03	1.129389E-16	2.568732E-18
6.140000E+03	1.122674E-16	2.554001E-18
6.150000E+03	1.116112E-16	2.539611E-18
6.160000E+03	1.109562E-16	2.525246E-18
6.170000E+03	1.102892E-16	2.510601E-18
6.180000E+03	1.096373E-16	2.496296E-18
6.190000E+03	1.089737E-16	2.481718E-18
6.200000E+03	1.083119E-16	2.467175E-18
6.210000E+03	1.076520E-16	2.452671E-18
6.220000E+03	1.069942E-16	2.438206E-18
6.230000E+03	1.063383E-16	2.423782E-18
6.240000E+03	1.056716E-16	2.409105E-18
6.250000E+03	1.050202E-16	2.394770E-18
6.260000E+03	1.043582E-16	2.380190E-18
6.270000E+03	1.037114E-16	2.365948E-18
6.280000E+03	1.030543E-16	2.351466E-18
6.290000E+03	1.023999E-16	2.337038E-18
6.300000E+03	1.017480E-16	2.322663E-18
6.310000E+03	1.010987E-16	2.308343E-18
6.320000E+03	1.004399E-16	2.293798E-18
6.330000E+03	9.979625E-17	2.279592E-18
6.340000E+03	9.914325E-17	2.265167E-18
6.350000E+03	9.850526E-17	2.251079E-18
6.360000E+03	9.785820E-17	2.236777E-18
6.370000E+03	9.721420E-17	2.222539E-18
6.380000E+03	9.657330E-17	2.208366E-18
6.390000E+03	9.593551E-17	2.194257E-18
6.400000E+03	9.530088E-17	2.180215E-18
6.410000E+03	9.465789E-17	2.165975E-18
6.420000E+03	9.402972E-17	2.152068E-18
6.430000E+03	9.339341E-17	2.137968E-18
6.440000E+03	9.277180E-17	2.124198E-18
6.450000E+03	9.214225E-17	2.110240E-18
6.460000E+03	9.151616E-17	2.096355E-18
6.470000E+03	9.089353E-17	2.082543E-18
6.480000E+03	9.027438E-17	2.068805E-18
6.490000E+03	8.964784E-17	2.054890E-18
6.500000E+03	8.903578E-17	2.041301E-18
6.510000E+03	8.841650E-17	2.027541E-18
6.520000E+03	8.781158E-17	2.014103E-18
6.530000E+03	8.719963E-17	2.000498E-18
6.540000E+03	8.659138E-17	1.986971E-18
6.550000E+03	8.598686E-17	1.973523E-18
6.560000E+03	8.538605E-17	1.960155E-18
6.570000E+03	8.478898E-17	1.946866E-18
6.580000E+03	8.418542E-17	1.933421E-18
6.590000E+03	8.359591E-17	1.920293E-18
6.600000E+03	8.300006E-17	1.907013E-18
6.610000E+03	8.240811E-17	1.893816E-18
6.620000E+03	8.182999E-17	1.880931E-18
6.630000E+03	8.124576E-17	1.867900E-18
6.640000E+03	8.066543E-17	1.854951E-18
6.650000E+03	8.007927E-17	1.841863E-18
6.660000E+03	7.950680E-17	1.829083E-18
6.670000E+03	7.893823E-17	1.816387E-18
6.680000E+03	7.836402E-17	1.803555E-18
6.690000E+03	7.780330E-17	1.791027E-18
6.700000E+03	7.723708E-17	1.778366E-18
6.710000E+03	7.667487E-17	1.765792E-18
6.720000E+03	7.611668E-17	1.753305E-18
6.730000E+03	7.556249E-17	1.740903E-18
6.740000E+03	7.501230E-17	1.728588E-18
6.750000E+03	7.446610E-17	1.716359E-18
6.760000E+03	7.391490E-17	1.704008E-18
6.770000E+03	7.337672E-17	1.691952E-18
6.780000E+03	7.283367E-17	1.679778E-18
6.790000E+03	7.229469E-17	1.667692E-18
6.800000E+03	7.175980E-17	1.655694E-18
6.810000E+03	7.123764E-17	1.643984E-18
6.820000E+03	7.070220E-17	1.631963E-18
6.830000E+03	7.017947E-17	1.620228E-18
6.840000E+03	6.966078E-17	1.608582E-18
6.850000E+03	6.914611E-17	1.597022E-18
6.860000E+03	6.862708E-17	1.585357E-18
6.870000E+03	6.812047E-17	1.573972E-18
6.880000E+03	6.760961E-17	1.562484E-18
6.890000E+03	6.710283E-17	1.551085E-18
6.900000E+03	6.660014E-17	1.539775E-18
6.910000E+03	6.610150E-17	1.528553E-18
6.920000E+03	6.560691E-17	1.517420E-18
6.930000E+03	6.511635E-17	1.506374E-18
6.940000E+03	6.462190E-17	1.495233E-18
6.950000E+03	6.413940E-17	1.484363E-18
6.960000E+03	6.365311E-17	1.473401E-18
6.970000E+03	6.317862E-17	1.462706E-18
6.980000E+03	6.270040E-17	1.451920E-18
6.990000E+03	6.222623E-17	1.441222E-18
7.000000E+03	6.175608E-17	1.430613E-18
7.010000E+03	6.128993E-17	1.420091E-18
7.020000E+03	6.082777E-17	1.409657E-18
7.030000E+03	6.036959E-17	1.399309E-18
7.040000E+03	5.990798E-17	1.388878E-18
7.050000E+03	5.945772E-17	1.378705E-18
7.060000E+03	5.900412E-17	1.368450E-18
7.070000E+03	5.856171E-17	1.358449E-18
7.080000E+03	5.811602E-17	1.348367E-18
7.090000E+03	5.767428E-17	1.338373E-18
7.100000E+03	5.723647E-17	1.328465E-18
7.110000E+03	5.680257E-17	1.318643E-18
7.120000E+03	5.637255E-17	1.308906E-18
7.130000E+03	5.594640E-17	1.299255E-18
7.140000E+03	5.551723E-17	1.289530E-18
7.150000E+03	5.509880E-17	1.280049E-18
7.160000E+03	5.467738E-17	1.270495E-18
7.170000E+03	5.426657E-17	1.261182E-18
7.180000E+03	5.385283E-17	1.251797E-18
7.190000E+03	5.344292E-17	1.242497E-18
7.200000E+03	5.303680E-17	1.233281E-18
7.210000E+03	5.263446E-17	1.224149E-18
7.220000E+03	5.223587E-17	1.215099E-18
7.230000E+03	5.184101E-17	1.206132E-18
7.240000E+03	5.144984E-17	1.197248E-18
7.250000E+03	5.105600E-17	1.188296E-18
7.260000E+03	5.067221E-17	1.179575E-18
7.270000E+03	5.028578E-17	1.170788E-18
7.280000E+03	4.990927E-17	1.162229E-18
7.290000E+03	4.953014E-17	1.153604E-18
7.300000E+03	4.915466E-17	1.145061E-18
7.310000E+03	4.878278E-17	1.136598E-18
7.320000E+03	4.841450E-17	1.128214E-18
7.330000E+03	4.804976E-17	1.119910E-18
7.340000E+03	4.768857E-17	1.111685E-18
7.350000E+03	4.733087E-17	1.103537E-18
7.360000E+03	4.697666E-17	1.095467E-18
7.370000E+03	4.662004E-17	1.087338E-18
7.380000E+03	4.627275E-17	1.079422E-18
7.390000E+03	4.592307E-17	1.071447E-18
7.400000E+03	4.558260E-17	1.063684E-18
7.410000E+03	4.523975E-17	1.055862E-18
7.420000E+03	4.490031E-17	1.048116E-18
7.430000E+03	4.456422E-17	1.040444E-18
7.440000E+03	4.423148E-17	1.032848E-18
7.450000E+03	4.390206E-17	1.025326E-18
7.460000E+03	4.357593E-17	1.017877E-18
7.470000E+03	4.325305E-17	1.010502E-18
7.480000E+03	4.292794E-17	1.003071E-18
7.490000E+03	4.261154E-17	9.958401E-19
7.500000E+03	4.229830E-17	9.886804E-19
7.510000E+03	4.198286E-17	9.814662E-19
7.520000E+03	4.167061E-17	9.743235E-19
7.530000E+03	4.136682E-17	9.673755E-19
7.540000E+03	4.106083E-17	9.603733E-19
7.550000E+03	4.075795E-17	9.534408E-19
7.560000E+03	4.045815E-17	9.465773E-19
7.570000E+03	4.016139E-17	9.397824E-19
7.580000E+03	3.986767E-17	9.330556E-19
7.590000E+03	3.957692E-17	9.263958E-19
7.600000E+03	3.928916E-17	9.198031E-19
7.610000E+03	3.900433E-17	9.132762E-19
7.620000E+03	3.871740E-17	9.066976E-19
7.630000E+03	3.843840E-17	9.003019E-19
7.640000E+03	3.815730E-17	8.938546E-19
7.650000E+03	3.788402E-17	8.875877E-19
7.660000E+03	3.760865E-17	8.812693E-19
7.670000E+03	3.734097E-17	8.751286E-19
7.680000E+03	3.707120E-17	8.689366E-19
7.690000E+03	3.680423E-17	8.628075E-19
7.700000E+03	3.653999E-17	8.567402E-19
7.710000E+03	3.627849E-17	8.507346E-19
7.720000E+03	3.601968E-17	8.447896E-19
7.730000E+03	3.576353E-17	8.389049E-19
7.740000E+03	3.551003E-17	8.330799E-19
7.750000E+03	3.525915E-17	8.273142E-19
7.760000E+03	3.501085E-17	8.216066E-19
