#wls	flux	fluxerr
1.580871E+03	8.830751E-03	6.208169E-07
1.620393E+03	8.994556E-03	6.323326E-07
1.659915E+03	9.163084E-03	6.441803E-07
1.699437E+03	9.338234E-03	6.564936E-07
1.738959E+03	9.519694E-03	6.692504E-07
1.778480E+03	9.707123E-03	6.824269E-07
1.818002E+03	9.900841E-03	6.960455E-07
1.857524E+03	1.010184E-02	7.101762E-07
1.897046E+03	1.030962E-02	7.247832E-07
1.936568E+03	1.052432E-02	7.398769E-07
1.976089E+03	1.074531E-02	7.554124E-07
2.015611E+03	1.097398E-02	7.714884E-07
2.055133E+03	1.120952E-02	7.880475E-07
2.094655E+03	1.145174E-02	8.050752E-07
2.134176E+03	1.170099E-02	8.225980E-07
2.173698E+03	1.195753E-02	8.406329E-07
2.213220E+03	1.221937E-02	8.590408E-07
2.252742E+03	1.248787E-02	8.779165E-07
2.292264E+03	1.276213E-02	8.971970E-07
2.331785E+03	1.304111E-02	9.168098E-07
2.371307E+03	1.332365E-02	9.366729E-07
2.410829E+03	1.361051E-02	9.568389E-07
2.450351E+03	1.390036E-02	9.772157E-07
2.489873E+03	1.419203E-02	9.977206E-07
2.529394E+03	1.448596E-02	1.018384E-06
2.568916E+03	1.478227E-02	1.039215E-06
2.608438E+03	1.508177E-02	1.060270E-06
2.647960E+03	1.538324E-02	1.081463E-06
2.687481E+03	1.568604E-02	1.102750E-06
2.727003E+03	1.598966E-02	1.124095E-06
2.766525E+03	1.629397E-02	1.145488E-06
2.806047E+03	1.659805E-02	1.166865E-06
2.845569E+03	1.690295E-02	1.188300E-06
2.885090E+03	1.720920E-02	1.209830E-06
2.924612E+03	1.751689E-02	1.231460E-06
2.964134E+03	1.782663E-02	1.253235E-06
2.974014E+03	1.790456E-02	1.258714E-06
2.983895E+03	1.798245E-02	1.264189E-06
2.993775E+03	1.806029E-02	1.269662E-06
3.003656E+03	1.813859E-02	1.275166E-06
3.013536E+03	1.821681E-02	1.280665E-06
3.023417E+03	1.829545E-02	1.286193E-06
3.033297E+03	1.837400E-02	1.291715E-06
3.043178E+03	1.845244E-02	1.297230E-06
3.053058E+03	1.853178E-02	1.302807E-06
3.062938E+03	1.861098E-02	1.308375E-06
3.072819E+03	1.869006E-02	1.313934E-06
3.082699E+03	1.876949E-02	1.319519E-06
3.092580E+03	1.884927E-02	1.325127E-06
3.102460E+03	1.892889E-02	1.330725E-06
3.112341E+03	1.900933E-02	1.336379E-06
3.122221E+03	1.908961E-02	1.342023E-06
3.132102E+03	1.916972E-02	1.347655E-06
3.141982E+03	1.925062E-02	1.353342E-06
3.151862E+03	1.933136E-02	1.359018E-06
3.161743E+03	1.941242E-02	1.364716E-06
3.171623E+03	1.949377E-02	1.370436E-06
3.181504E+03	1.957499E-02	1.376145E-06
3.191384E+03	1.965698E-02	1.381909E-06
3.201265E+03	1.973884E-02	1.387664E-06
3.211145E+03	1.982104E-02	1.393443E-06
3.221026E+03	1.990360E-02	1.399247E-06
3.230906E+03	1.998654E-02	1.405077E-06
3.240786E+03	2.006988E-02	1.410936E-06
3.250667E+03	2.015366E-02	1.416826E-06
3.260547E+03	2.023749E-02	1.422719E-06
3.270428E+03	2.032186E-02	1.428650E-06
3.280308E+03	2.040727E-02	1.434655E-06
3.290189E+03	2.049295E-02	1.440678E-06
3.300069E+03	2.057943E-02	1.446758E-06
3.309950E+03	2.066644E-02	1.452874E-06
3.319830E+03	2.075499E-02	1.459099E-06
3.329711E+03	2.084446E-02	1.465389E-06
3.339591E+03	2.093557E-02	1.471794E-06
3.349471E+03	2.102865E-02	1.478338E-06
3.359352E+03	2.112416E-02	1.485052E-06
3.369232E+03	2.122222E-02	1.491946E-06
3.379113E+03	2.132392E-02	1.499096E-06
3.388993E+03	2.142964E-02	1.506527E-06
3.398874E+03	2.154107E-02	1.514361E-06
3.408754E+03	2.165800E-02	1.522581E-06
3.418635E+03	2.178268E-02	1.531346E-06
3.428515E+03	2.191497E-02	1.540646E-06
3.438395E+03	2.205715E-02	1.550642E-06
3.448276E+03	2.220930E-02	1.561338E-06
3.458156E+03	2.237346E-02	1.572879E-06
3.468037E+03	2.255042E-02	1.585319E-06
3.477917E+03	2.274157E-02	1.598757E-06
3.487798E+03	2.294699E-02	1.613198E-06
3.497678E+03	2.316805E-02	1.628739E-06
3.507559E+03	2.340476E-02	1.645379E-06
3.517439E+03	2.365685E-02	1.663101E-06
3.527319E+03	2.392502E-02	1.681954E-06
3.537200E+03	2.420824E-02	1.701865E-06
3.547080E+03	2.450649E-02	1.722832E-06
3.556961E+03	2.481893E-02	1.744797E-06
3.566841E+03	2.514554E-02	1.767757E-06
3.576722E+03	2.548562E-02	1.791665E-06
3.586602E+03	2.583948E-02	1.816542E-06
3.596483E+03	2.620689E-02	1.842371E-06
3.606363E+03	2.658835E-02	1.869188E-06
3.616243E+03	2.698472E-02	1.897053E-06
3.626124E+03	2.739720E-02	1.926051E-06
3.636004E+03	2.782685E-02	1.956255E-06
3.643909E+03	2.481532E-02	1.744542E-06
3.645885E+03	2.520420E-02	1.771881E-06
3.647861E+03	2.534467E-02	1.781755E-06
3.649837E+03	2.525031E-02	1.775122E-06
3.651813E+03	2.540451E-02	1.785962E-06
3.653789E+03	2.572514E-02	1.808503E-06
3.655765E+03	2.537625E-02	1.783976E-06
3.657741E+03	2.543847E-02	1.788350E-06
3.659717E+03	2.529702E-02	1.778406E-06
3.661694E+03	2.593509E-02	1.823262E-06
3.663670E+03	2.645775E-02	1.860006E-06
3.665646E+03	2.642803E-02	1.857917E-06
3.667622E+03	2.644532E-02	1.859132E-06
3.669598E+03	2.636659E-02	1.853597E-06
3.671574E+03	2.608202E-02	1.833592E-06
3.673550E+03	2.619726E-02	1.841693E-06
3.675526E+03	2.634978E-02	1.852415E-06
3.677502E+03	2.583369E-02	1.816134E-06
3.679478E+03	2.567437E-02	1.804934E-06
3.681454E+03	2.580332E-02	1.813998E-06
3.683430E+03	2.548504E-02	1.791623E-06
3.685407E+03	2.529224E-02	1.778069E-06
3.687383E+03	2.523083E-02	1.773752E-06
3.689359E+03	2.479459E-02	1.743084E-06
3.691335E+03	2.455055E-02	1.725928E-06
3.693311E+03	2.459500E-02	1.729052E-06
3.695287E+03	2.502029E-02	1.758951E-06
3.697263E+03	2.572056E-02	1.808180E-06
3.699239E+03	2.611860E-02	1.836163E-06
3.701215E+03	2.641461E-02	1.856973E-06
3.703191E+03	2.664784E-02	1.873369E-06
3.705167E+03	2.647448E-02	1.861181E-06
3.707144E+03	2.649557E-02	1.862664E-06
3.709120E+03	2.666795E-02	1.874783E-06
3.711096E+03	2.725697E-02	1.916191E-06
3.713072E+03	2.754151E-02	1.936195E-06
3.715048E+03	2.808557E-02	1.974443E-06
3.717024E+03	2.864157E-02	2.013530E-06
3.719000E+03	2.910527E-02	2.046128E-06
3.720976E+03	2.932722E-02	2.061732E-06
3.722952E+03	2.964556E-02	2.084111E-06
3.724928E+03	3.006824E-02	2.113826E-06
3.726904E+03	3.018607E-02	2.122110E-06
3.728881E+03	3.006391E-02	2.113522E-06
3.730857E+03	3.000075E-02	2.109081E-06
3.732833E+03	3.004184E-02	2.111970E-06
3.734809E+03	3.034864E-02	2.133538E-06
3.736785E+03	3.038584E-02	2.136154E-06
3.738761E+03	3.046632E-02	2.141811E-06
3.740737E+03	3.030467E-02	2.130447E-06
3.742713E+03	3.032803E-02	2.132089E-06
3.744689E+03	3.029823E-02	2.129994E-06
3.746665E+03	3.040431E-02	2.137452E-06
3.748641E+03	3.004159E-02	2.111952E-06
3.750618E+03	3.028355E-02	2.128962E-06
3.752594E+03	3.063198E-02	2.153457E-06
3.754570E+03	3.053513E-02	2.146648E-06
3.756546E+03	3.100780E-02	2.179877E-06
3.758522E+03	3.106662E-02	2.184013E-06
3.760498E+03	3.116490E-02	2.190922E-06
3.762474E+03	3.123756E-02	2.196030E-06
3.764450E+03	3.154090E-02	2.217355E-06
3.766426E+03	3.142429E-02	2.209157E-06
3.768402E+03	3.176319E-02	2.232982E-06
3.770378E+03	3.174123E-02	2.231438E-06
3.772355E+03	3.153579E-02	2.216995E-06
3.774331E+03	3.150190E-02	2.214613E-06
3.776307E+03	3.121151E-02	2.194198E-06
3.778283E+03	3.115784E-02	2.190425E-06
3.780259E+03	3.130739E-02	2.200939E-06
3.782235E+03	3.144514E-02	2.210623E-06
3.784211E+03	3.150986E-02	2.215172E-06
3.786187E+03	3.174433E-02	2.231656E-06
3.788163E+03	3.173206E-02	2.230793E-06
3.790139E+03	3.211865E-02	2.257971E-06
3.792115E+03	3.284103E-02	2.308755E-06
3.794091E+03	3.309544E-02	2.326640E-06
3.796068E+03	3.336178E-02	2.345364E-06
3.798044E+03	3.378420E-02	2.375060E-06
3.800020E+03	3.424620E-02	2.407540E-06
3.801996E+03	3.444944E-02	2.421828E-06
3.803972E+03	3.504597E-02	2.463764E-06
3.805948E+03	3.582836E-02	2.518766E-06
3.807924E+03	3.662078E-02	2.574475E-06
3.809900E+03	3.706746E-02	2.605876E-06
3.811876E+03	3.705948E-02	2.605316E-06
3.813852E+03	3.736783E-02	2.626992E-06
3.815828E+03	3.768217E-02	2.649091E-06
3.817805E+03	3.813497E-02	2.680923E-06
3.819781E+03	3.873813E-02	2.723326E-06
3.821757E+03	3.910606E-02	2.749192E-06
3.823733E+03	3.955116E-02	2.780482E-06
3.825709E+03	3.981433E-02	2.798984E-06
3.827685E+03	4.018636E-02	2.825138E-06
3.829661E+03	4.065143E-02	2.857832E-06
3.831637E+03	4.089493E-02	2.874951E-06
3.833613E+03	4.114835E-02	2.892766E-06
3.835589E+03	4.115238E-02	2.893050E-06
3.837565E+03	4.142168E-02	2.911982E-06
3.839542E+03	4.172860E-02	2.933558E-06
3.841518E+03	4.193656E-02	2.948178E-06
3.843494E+03	4.203960E-02	2.955422E-06
3.845470E+03	4.217431E-02	2.964892E-06
3.847446E+03	4.217437E-02	2.964896E-06
3.849422E+03	4.250912E-02	2.988430E-06
3.851398E+03	4.263393E-02	2.997204E-06
3.853374E+03	4.301825E-02	3.024221E-06
3.855350E+03	4.321243E-02	3.037873E-06
3.857326E+03	4.348984E-02	3.057374E-06
3.859302E+03	4.375538E-02	3.076042E-06
3.861279E+03	4.386043E-02	3.083427E-06
3.863255E+03	4.411410E-02	3.101260E-06
3.865231E+03	4.426868E-02	3.112128E-06
3.867207E+03	4.429047E-02	3.113660E-06
3.869183E+03	4.440934E-02	3.122016E-06
3.871159E+03	4.461745E-02	3.136646E-06
3.873135E+03	4.476805E-02	3.147234E-06
3.875111E+03	4.460930E-02	3.136073E-06
3.877087E+03	4.441877E-02	3.122679E-06
3.879063E+03	4.481129E-02	3.150273E-06
3.881039E+03	4.466432E-02	3.139941E-06
3.883016E+03	4.483468E-02	3.151918E-06
3.884992E+03	4.451106E-02	3.129167E-06
3.886968E+03	4.457225E-02	3.133468E-06
3.888944E+03	4.468898E-02	3.141675E-06
3.890920E+03	4.476602E-02	3.147091E-06
3.892896E+03	4.482321E-02	3.151111E-06
3.894872E+03	4.486049E-02	3.153732E-06
3.896848E+03	4.489381E-02	3.156074E-06
3.898824E+03	4.472265E-02	3.144041E-06
3.900800E+03	4.491469E-02	3.157542E-06
3.902776E+03	4.512658E-02	3.172438E-06
3.904752E+03	4.524316E-02	3.180634E-06
3.906729E+03	4.540343E-02	3.191901E-06
3.908705E+03	4.547037E-02	3.196607E-06
3.910681E+03	4.536846E-02	3.189442E-06
3.912657E+03	4.505998E-02	3.167756E-06
3.914633E+03	4.487655E-02	3.154861E-06
3.916609E+03	4.469505E-02	3.142101E-06
3.918585E+03	4.441018E-02	3.122074E-06
3.920561E+03	4.418881E-02	3.106512E-06
3.922537E+03	4.366737E-02	3.069854E-06
3.924513E+03	4.331672E-02	3.045203E-06
3.926489E+03	4.306135E-02	3.027250E-06
3.928466E+03	4.259527E-02	2.994484E-06
3.930442E+03	4.229802E-02	2.973588E-06
3.932418E+03	4.236637E-02	2.978393E-06
3.934394E+03	4.256189E-02	2.992137E-06
3.936370E+03	4.302772E-02	3.024886E-06
3.938346E+03	4.333059E-02	3.046177E-06
3.940322E+03	4.318816E-02	3.036165E-06
3.942298E+03	4.329617E-02	3.043758E-06
3.944274E+03	4.347377E-02	3.056243E-06
3.946250E+03	4.372092E-02	3.073618E-06
3.948226E+03	4.372748E-02	3.074079E-06
3.950203E+03	4.387913E-02	3.084740E-06
3.952179E+03	4.417596E-02	3.105608E-06
3.954155E+03	4.419236E-02	3.106761E-06
3.956131E+03	4.403373E-02	3.095609E-06
3.958107E+03	4.395858E-02	3.090325E-06
3.960083E+03	4.407232E-02	3.098322E-06
3.962059E+03	4.425964E-02	3.111490E-06
3.964035E+03	4.451457E-02	3.129412E-06
3.966011E+03	4.485503E-02	3.153346E-06
3.967987E+03	4.494681E-02	3.159799E-06
3.969963E+03	4.518975E-02	3.176878E-06
3.971940E+03	4.500095E-02	3.163605E-06
3.973916E+03	4.508665E-02	3.169629E-06
3.975892E+03	4.482610E-02	3.151313E-06
3.977868E+03	4.461124E-02	3.136208E-06
3.979844E+03	4.447593E-02	3.126695E-06
3.981820E+03	4.445797E-02	3.125433E-06
3.983796E+03	4.441211E-02	3.122209E-06
3.985772E+03	4.411742E-02	3.101492E-06
3.987748E+03	4.366147E-02	3.069438E-06
3.989724E+03	4.348010E-02	3.056687E-06
3.991700E+03	4.332454E-02	3.045751E-06
3.993677E+03	4.313511E-02	3.032434E-06
3.995653E+03	4.318446E-02	3.035904E-06
3.997629E+03	4.301881E-02	3.024258E-06
3.999605E+03	4.280730E-02	3.009389E-06
4.001581E+03	4.252007E-02	2.989196E-06
4.003557E+03	4.206757E-02	2.957385E-06
4.005533E+03	4.180410E-02	2.938863E-06
4.007509E+03	4.135144E-02	2.907040E-06
4.009485E+03	4.120534E-02	2.896769E-06
4.011461E+03	4.085211E-02	2.871937E-06
4.013437E+03	4.042714E-02	2.842061E-06
4.015413E+03	4.019324E-02	2.825618E-06
4.017390E+03	3.998120E-02	2.810711E-06
4.019366E+03	3.995231E-02	2.808680E-06
4.021342E+03	3.984571E-02	2.801186E-06
4.023318E+03	4.008158E-02	2.817768E-06
4.025294E+03	4.035925E-02	2.837288E-06
4.027270E+03	3.993187E-02	2.807243E-06
4.029246E+03	4.009196E-02	2.818497E-06
4.031222E+03	3.990944E-02	2.805666E-06
4.033198E+03	4.026262E-02	2.830495E-06
4.035174E+03	4.041064E-02	2.840901E-06
4.037150E+03	4.034550E-02	2.836322E-06
4.039127E+03	4.051731E-02	2.848400E-06
4.041103E+03	4.078470E-02	2.867197E-06
4.043079E+03	4.073733E-02	2.863867E-06
4.045055E+03	4.095084E-02	2.878877E-06
4.047031E+03	4.126988E-02	2.901306E-06
4.049007E+03	4.150321E-02	2.917709E-06
4.050983E+03	4.200938E-02	2.953293E-06
4.052959E+03	4.235018E-02	2.977252E-06
4.054935E+03	4.244196E-02	2.983704E-06
4.056911E+03	4.282249E-02	3.010456E-06
4.058887E+03	4.285438E-02	3.012698E-06
4.060864E+03	4.306752E-02	3.027681E-06
4.062840E+03	4.341601E-02	3.052180E-06
4.064816E+03	4.342583E-02	3.052871E-06
4.066792E+03	4.345156E-02	3.054680E-06
4.068768E+03	4.355091E-02	3.061663E-06
4.070744E+03	4.354264E-02	3.061083E-06
4.072720E+03	4.374145E-02	3.075059E-06
4.074696E+03	4.405573E-02	3.097153E-06
4.076672E+03	4.424845E-02	3.110701E-06
4.078648E+03	4.446898E-02	3.126204E-06
4.080624E+03	4.486072E-02	3.153744E-06
4.082601E+03	4.503930E-02	3.166298E-06
4.084577E+03	4.530146E-02	3.184728E-06
4.086553E+03	4.533251E-02	3.186911E-06
4.088529E+03	4.547901E-02	3.197210E-06
4.090505E+03	4.565929E-02	3.209884E-06
4.092481E+03	4.556865E-02	3.203512E-06
4.094457E+03	4.544611E-02	3.194897E-06
4.096433E+03	4.556642E-02	3.203355E-06
4.098409E+03	4.578027E-02	3.218389E-06
4.100385E+03	4.582280E-02	3.221379E-06
4.102361E+03	4.598072E-02	3.232481E-06
4.104338E+03	4.624610E-02	3.251137E-06
4.106314E+03	4.643374E-02	3.264328E-06
4.108290E+03	4.654364E-02	3.272054E-06
4.110266E+03	4.660965E-02	3.276695E-06
4.112242E+03	4.662184E-02	3.277552E-06
4.114218E+03	4.669966E-02	3.283022E-06
4.116194E+03	4.678534E-02	3.289046E-06
4.118170E+03	4.669976E-02	3.283030E-06
4.120146E+03	4.673553E-02	3.285544E-06
4.122122E+03	4.683293E-02	3.292391E-06
4.124098E+03	4.701580E-02	3.305247E-06
4.126074E+03	4.704138E-02	3.307046E-06
4.128051E+03	4.727384E-02	3.323388E-06
4.130027E+03	4.726339E-02	3.322653E-06
4.132003E+03	4.711161E-02	3.311982E-06
4.133979E+03	4.709704E-02	3.310958E-06
4.135955E+03	4.737685E-02	3.330629E-06
4.137931E+03	4.733027E-02	3.327355E-06
4.139907E+03	4.749850E-02	3.339181E-06
4.141883E+03	4.768449E-02	3.352256E-06
4.143859E+03	4.760583E-02	3.346726E-06
4.145835E+03	4.745547E-02	3.336156E-06
4.147811E+03	4.728315E-02	3.324042E-06
4.149788E+03	4.704120E-02	3.307032E-06
4.151764E+03	4.707557E-02	3.309449E-06
4.153740E+03	4.694483E-02	3.300257E-06
4.155716E+03	4.702479E-02	3.305878E-06
4.157692E+03	4.674874E-02	3.286472E-06
4.159668E+03	4.659394E-02	3.275589E-06
4.161644E+03	4.670345E-02	3.283288E-06
4.163620E+03	4.674723E-02	3.286366E-06
4.165596E+03	4.697380E-02	3.302293E-06
4.167572E+03	4.690608E-02	3.297532E-06
4.169548E+03	4.696150E-02	3.301429E-06
4.171525E+03	4.697111E-02	3.302104E-06
4.173501E+03	4.679186E-02	3.289503E-06
4.175477E+03	4.691650E-02	3.298265E-06
4.177453E+03	4.706885E-02	3.308975E-06
4.179429E+03	4.733625E-02	3.327774E-06
4.181405E+03	4.727183E-02	3.323245E-06
4.183381E+03	4.726690E-02	3.322899E-06
4.185357E+03	4.744457E-02	3.335388E-06
4.187333E+03	4.714555E-02	3.314368E-06
4.189309E+03	4.685843E-02	3.294182E-06
4.191285E+03	4.682337E-02	3.291718E-06
4.193262E+03	4.692912E-02	3.299152E-06
4.195238E+03	4.709626E-02	3.310902E-06
4.197214E+03	4.713823E-02	3.313853E-06
4.199190E+03	4.716818E-02	3.315958E-06
4.201166E+03	4.700359E-02	3.304387E-06
4.203142E+03	4.719798E-02	3.318053E-06
4.205118E+03	4.698365E-02	3.302985E-06
4.207094E+03	4.711229E-02	3.312028E-06
4.209070E+03	4.725666E-02	3.322178E-06
4.211046E+03	4.730574E-02	3.325628E-06
4.213022E+03	4.733881E-02	3.327953E-06
4.214999E+03	4.751050E-02	3.340023E-06
4.216975E+03	4.740656E-02	3.332716E-06
4.218951E+03	4.731046E-02	3.325960E-06
4.220927E+03	4.722217E-02	3.319753E-06
4.222903E+03	4.704071E-02	3.306996E-06
4.224879E+03	4.724736E-02	3.321524E-06
4.226855E+03	4.750333E-02	3.339519E-06
4.228831E+03	4.719481E-02	3.317830E-06
4.230807E+03	4.708027E-02	3.309777E-06
4.232783E+03	4.711211E-02	3.312015E-06
4.234759E+03	4.711214E-02	3.312017E-06
4.236736E+03	4.700522E-02	3.304501E-06
4.238712E+03	4.680519E-02	3.290439E-06
4.240688E+03	4.655370E-02	3.272759E-06
4.242664E+03	4.668581E-02	3.282046E-06
4.244640E+03	4.677025E-02	3.287982E-06
4.246616E+03	4.687630E-02	3.295438E-06
4.248592E+03	4.680428E-02	3.290374E-06
4.250568E+03	4.653654E-02	3.271552E-06
4.252544E+03	4.649002E-02	3.268281E-06
4.254520E+03	4.636044E-02	3.259172E-06
4.256496E+03	4.634727E-02	3.258246E-06
4.258472E+03	4.632606E-02	3.256755E-06
4.260449E+03	4.630869E-02	3.255534E-06
4.262425E+03	4.626946E-02	3.252776E-06
4.264401E+03	4.617878E-02	3.246401E-06
4.266377E+03	4.607815E-02	3.239327E-06
4.268353E+03	4.619831E-02	3.247774E-06
4.270329E+03	4.624333E-02	3.250939E-06
4.272305E+03	4.642422E-02	3.263656E-06
4.274281E+03	4.642747E-02	3.263884E-06
4.276257E+03	4.642271E-02	3.263549E-06
4.278233E+03	4.649460E-02	3.268603E-06
4.280209E+03	4.653085E-02	3.271152E-06
4.282186E+03	4.662405E-02	3.277704E-06
4.284162E+03	4.652803E-02	3.270953E-06
4.286138E+03	4.689246E-02	3.296573E-06
4.288114E+03	4.700665E-02	3.304600E-06
4.290090E+03	4.683927E-02	3.292834E-06
4.292066E+03	4.680755E-02	3.290604E-06
4.294042E+03	4.683858E-02	3.292785E-06
4.296018E+03	4.710532E-02	3.311537E-06
4.297994E+03	4.741497E-02	3.333306E-06
4.299970E+03	4.754155E-02	3.342204E-06
4.301946E+03	4.750487E-02	3.339626E-06
4.303923E+03	4.726776E-02	3.322957E-06
4.305899E+03	4.741140E-02	3.333054E-06
4.307875E+03	4.769019E-02	3.352654E-06
4.309851E+03	4.780189E-02	3.360506E-06
4.311827E+03	4.802316E-02	3.376061E-06
4.313803E+03	4.823625E-02	3.391042E-06
4.315779E+03	4.851567E-02	3.410685E-06
4.317755E+03	4.871048E-02	3.424381E-06
4.319731E+03	4.877173E-02	3.428686E-06
4.321707E+03	4.896203E-02	3.442064E-06
4.323683E+03	4.928900E-02	3.465051E-06
4.325660E+03	4.961556E-02	3.488008E-06
4.327636E+03	4.986737E-02	3.505710E-06
4.329612E+03	5.006206E-02	3.519397E-06
4.331588E+03	5.038938E-02	3.542408E-06
4.333564E+03	5.038985E-02	3.542441E-06
4.335540E+03	5.070463E-02	3.564570E-06
4.337516E+03	5.114593E-02	3.595594E-06
4.339492E+03	5.155155E-02	3.624109E-06
4.341468E+03	5.198398E-02	3.654509E-06
4.343444E+03	5.236122E-02	3.681029E-06
4.345420E+03	5.253511E-02	3.693254E-06
4.347397E+03	5.277493E-02	3.710113E-06
4.349373E+03	5.318775E-02	3.739135E-06
4.351349E+03	5.341689E-02	3.755243E-06
4.353325E+03	5.377020E-02	3.780082E-06
4.355301E+03	5.413080E-02	3.805431E-06
4.357277E+03	5.453556E-02	3.833886E-06
4.359253E+03	5.486973E-02	3.857379E-06
4.361229E+03	5.535502E-02	3.891495E-06
4.363205E+03	5.575608E-02	3.919690E-06
4.365181E+03	5.606328E-02	3.941286E-06
4.367157E+03	5.682627E-02	3.994924E-06
4.369133E+03	5.735541E-02	4.032123E-06
4.371110E+03	5.779070E-02	4.062725E-06
4.373086E+03	5.808571E-02	4.083464E-06
4.375062E+03	5.842667E-02	4.107434E-06
4.377038E+03	5.889883E-02	4.140627E-06
4.379014E+03	5.937609E-02	4.174178E-06
4.380990E+03	5.941706E-02	4.177059E-06
4.382966E+03	5.944415E-02	4.178963E-06
4.384942E+03	5.971268E-02	4.197841E-06
4.386918E+03	6.012759E-02	4.227010E-06
4.388894E+03	6.068289E-02	4.266047E-06
4.390870E+03	6.088586E-02	4.280316E-06
4.392847E+03	6.116557E-02	4.299980E-06
4.394823E+03	6.147749E-02	4.321908E-06
4.396799E+03	6.170011E-02	4.337558E-06
4.398775E+03	6.199740E-02	4.358458E-06
4.400751E+03	6.226903E-02	4.377554E-06
4.402727E+03	6.260558E-02	4.401213E-06
4.404703E+03	6.283564E-02	4.417386E-06
4.406679E+03	6.321712E-02	4.444204E-06
4.408655E+03	6.344990E-02	4.460569E-06
4.410631E+03	6.383202E-02	4.487433E-06
4.412607E+03	6.402522E-02	4.501015E-06
4.414584E+03	6.455199E-02	4.538047E-06
4.416560E+03	6.490519E-02	4.562877E-06
4.418536E+03	6.524623E-02	4.586853E-06
4.420512E+03	6.533171E-02	4.592861E-06
4.422488E+03	6.561412E-02	4.612715E-06
4.424464E+03	6.600506E-02	4.640198E-06
4.426440E+03	6.638572E-02	4.666959E-06
4.428416E+03	6.668535E-02	4.688023E-06
4.430392E+03	6.712197E-02	4.718718E-06
4.432368E+03	6.756927E-02	4.750163E-06
4.434344E+03	6.784590E-02	4.769610E-06
4.436321E+03	6.820585E-02	4.794915E-06
4.438297E+03	6.870052E-02	4.829691E-06
4.440273E+03	6.927629E-02	4.870168E-06
4.442249E+03	6.970062E-02	4.899998E-06
4.444225E+03	7.005755E-02	4.925090E-06
4.446201E+03	7.052604E-02	4.958026E-06
4.448177E+03	7.083968E-02	4.980075E-06
