#wls	flux	fluxerr
1.580871E+03	3.264470E-03	6.409739E-05
1.620393E+03	3.294982E-03	6.460242E-05
1.659915E+03	3.325065E-03	6.509484E-05
1.699437E+03	3.354624E-03	6.557267E-05
1.738959E+03	3.383270E-03	6.602827E-05
1.778480E+03	3.411462E-03	6.647052E-05
1.818002E+03	3.438525E-03	6.688622E-05
1.857524E+03	3.464893E-03	6.728378E-05
1.897046E+03	3.489886E-03	6.764996E-05
1.936568E+03	3.513927E-03	6.799295E-05
1.976089E+03	3.536601E-03	6.830473E-05
2.015611E+03	3.558041E-03	6.858786E-05
2.055133E+03	3.577827E-03	6.883431E-05
2.094655E+03	3.596092E-03	6.904666E-05
2.134176E+03	3.612419E-03	6.921701E-05
2.173698E+03	3.627205E-03	6.935304E-05
2.213220E+03	3.640312E-03	6.945221E-05
2.252742E+03	3.651347E-03	6.950713E-05
2.292264E+03	3.660458E-03	6.952080E-05
2.331785E+03	3.667799E-03	6.949627E-05
2.371307E+03	3.673536E-03	6.943679E-05
2.410829E+03	3.677588E-03	6.934103E-05
2.450351E+03	3.680149E-03	6.921277E-05
2.489873E+03	3.681176E-03	6.905131E-05
2.529394E+03	3.681374E-03	6.887002E-05
2.568916E+03	3.680471E-03	6.866388E-05
2.608438E+03	3.678945E-03	6.844187E-05
2.647960E+03	3.677027E-03	6.820832E-05
2.687481E+03	3.674968E-03	6.796789E-05
2.727003E+03	3.673033E-03	6.772541E-05
2.766525E+03	3.671743E-03	6.749038E-05
2.806047E+03	3.671204E-03	6.726458E-05
2.845569E+03	3.672219E-03	6.706247E-05
2.885090E+03	3.675214E-03	6.689146E-05
2.924612E+03	3.680677E-03	6.675998E-05
2.964134E+03	3.689597E-03	6.668534E-05
2.974014E+03	3.692520E-03	6.667822E-05
2.983895E+03	3.695594E-03	6.667345E-05
2.993775E+03	3.698835E-03	6.667124E-05
3.003656E+03	3.702643E-03	6.667884E-05
3.013536E+03	3.706637E-03	6.668931E-05
3.023417E+03	3.711019E-03	6.670633E-05
3.033297E+03	3.715610E-03	6.672664E-05
3.043178E+03	3.720615E-03	6.675390E-05
3.053058E+03	3.726235E-03	6.679168E-05
3.062938E+03	3.731916E-03	6.683003E-05
3.072819E+03	3.738238E-03	6.687935E-05
3.082699E+03	3.745029E-03	6.693650E-05
3.092580E+03	3.752302E-03	6.700170E-05
3.102460E+03	3.759886E-03	6.707187E-05
3.112341E+03	3.768173E-03	6.715396E-05
3.122221E+03	3.776998E-03	6.724500E-05
3.132102E+03	3.786188E-03	6.734190E-05
3.141982E+03	3.796138E-03	6.745166E-05
3.151862E+03	3.806681E-03	6.757124E-05
3.161743E+03	3.818026E-03	6.770433E-05
3.171623E+03	3.829830E-03	6.784480E-05
3.181504E+03	3.842478E-03	6.799943E-05
3.191384E+03	3.855819E-03	6.816552E-05
3.201265E+03	3.869879E-03	6.834347E-05
3.211145E+03	3.884862E-03	6.853685E-05
3.221026E+03	3.900624E-03	6.874306E-05
3.230906E+03	3.917370E-03	6.896565E-05
3.240786E+03	3.934955E-03	6.920203E-05
3.250667E+03	3.953591E-03	6.945584E-05
3.260547E+03	3.973137E-03	6.972459E-05
3.270428E+03	3.993808E-03	7.001194E-05
3.280308E+03	4.015641E-03	7.031851E-05
3.290189E+03	4.038501E-03	7.064184E-05
3.300069E+03	4.062603E-03	7.098564E-05
3.309950E+03	4.087995E-03	7.135065E-05
3.319830E+03	4.114723E-03	7.173760E-05
3.329711E+03	4.142834E-03	7.214722E-05
3.339591E+03	4.172200E-03	7.257720E-05
3.349471E+03	4.203228E-03	7.303454E-05
3.359352E+03	4.235794E-03	7.351695E-05
3.369232E+03	4.269777E-03	7.402226E-05
3.379113E+03	4.305591E-03	7.455752E-05
3.388993E+03	4.343118E-03	7.512060E-05
3.398874E+03	4.382594E-03	7.571545E-05
3.408754E+03	4.423739E-03	7.633710E-05
3.418635E+03	4.466962E-03	7.699250E-05
3.428515E+03	4.512164E-03	7.767979E-05
3.438395E+03	4.559585E-03	7.840298E-05
3.448276E+03	4.609127E-03	7.916024E-05
3.458156E+03	4.660863E-03	7.995266E-05
3.468037E+03	4.715047E-03	8.078446E-05
3.477917E+03	4.771759E-03	8.165684E-05
3.487798E+03	4.830908E-03	8.256805E-05
3.497678E+03	4.892750E-03	8.352232E-05
3.507559E+03	4.957378E-03	8.452101E-05
3.517439E+03	5.024695E-03	8.556232E-05
3.527319E+03	5.095161E-03	8.665384E-05
3.537200E+03	5.168504E-03	8.779077E-05
3.547080E+03	5.245002E-03	8.897760E-05
3.556961E+03	5.324757E-03	9.021583E-05
3.566841E+03	5.407866E-03	9.150688E-05
3.576722E+03	5.494434E-03	9.285228E-05
3.586602E+03	5.584377E-03	9.425036E-05
3.596483E+03	5.678172E-03	9.570891E-05
3.606363E+03	5.775738E-03	9.722631E-05
3.616243E+03	5.877372E-03	9.880725E-05
3.626124E+03	5.982783E-03	1.004465E-04
3.636004E+03	6.092461E-03	1.021522E-04
3.645885E+03	6.206100E-03	1.039186E-04
3.655765E+03	6.324179E-03	1.057537E-04
3.665646E+03	6.446566E-03	1.076548E-04
3.675526E+03	6.573527E-03	1.096260E-04
3.685407E+03	6.704895E-03	1.116643E-04
3.695287E+03	6.840684E-03	1.137695E-04
3.705167E+03	6.980880E-03	1.159410E-04
3.715048E+03	7.125648E-03	1.181813E-04
3.724928E+03	7.274693E-03	1.204851E-04
3.734809E+03	7.428100E-03	1.228535E-04
3.744689E+03	7.585473E-03	1.252796E-04
3.754570E+03	7.746575E-03	1.277591E-04
3.764450E+03	7.911332E-03	1.302906E-04
3.774331E+03	8.079159E-03	1.328641E-04
3.784211E+03	8.249866E-03	1.354763E-04
3.794091E+03	8.422732E-03	1.381150E-04
3.803972E+03	8.597201E-03	1.407710E-04
3.813852E+03	8.772899E-03	1.434379E-04
3.823733E+03	8.948914E-03	1.461009E-04
3.833613E+03	9.124770E-03	1.487520E-04
3.843494E+03	9.299465E-03	1.513749E-04
3.853374E+03	9.472202E-03	1.539566E-04
3.863255E+03	9.642420E-03	1.564883E-04
3.873135E+03	9.809049E-03	1.589527E-04
3.883016E+03	9.971528E-03	1.613408E-04
3.892896E+03	1.012856E-02	1.636322E-04
3.902776E+03	1.027990E-02	1.658231E-04
3.912657E+03	1.042483E-02	1.679023E-04
3.922537E+03	1.056219E-02	1.698517E-04
3.932418E+03	1.069190E-02	1.716706E-04
3.942298E+03	1.081319E-02	1.733472E-04
3.952179E+03	1.092567E-02	1.748755E-04
3.962059E+03	1.102925E-02	1.762552E-04
3.971940E+03	1.112321E-02	1.774753E-04
3.981820E+03	1.120770E-02	1.785388E-04
3.991700E+03	1.128273E-02	1.794464E-04
4.001581E+03	1.134865E-02	1.802049E-04
4.011461E+03	1.140519E-02	1.808103E-04
4.021342E+03	1.145295E-02	1.812728E-04
4.031222E+03	1.149235E-02	1.815999E-04
4.041103E+03	1.152368E-02	1.817968E-04
4.050983E+03	1.154783E-02	1.818778E-04
4.060864E+03	1.156548E-02	1.818547E-04
4.070744E+03	1.157718E-02	1.817364E-04
4.080624E+03	1.158401E-02	1.815402E-04
4.090505E+03	1.158664E-02	1.812769E-04
4.100385E+03	1.158601E-02	1.809617E-04
4.110266E+03	1.158335E-02	1.806141E-04
4.120146E+03	1.157944E-02	1.802463E-04
4.130027E+03	1.157512E-02	1.798714E-04
4.139907E+03	1.157191E-02	1.795131E-04
4.149788E+03	1.157066E-02	1.791846E-04
4.159668E+03	1.157226E-02	1.788993E-04
4.169548E+03	1.157802E-02	1.786773E-04
4.179429E+03	1.158902E-02	1.785350E-04
4.189309E+03	1.160614E-02	1.784852E-04
4.199190E+03	1.163063E-02	1.785470E-04
4.209070E+03	1.166332E-02	1.787322E-04
4.218951E+03	1.170518E-02	1.790551E-04
4.228831E+03	1.175715E-02	1.795294E-04
4.238712E+03	1.182010E-02	1.801675E-04
4.248592E+03	1.189463E-02	1.809775E-04
4.258472E+03	1.198187E-02	1.819758E-04
4.268353E+03	1.208203E-02	1.831644E-04
4.278233E+03	1.219584E-02	1.845531E-04
4.288114E+03	1.232326E-02	1.861406E-04
4.297994E+03	1.246497E-02	1.879355E-04
4.307875E+03	1.262106E-02	1.899384E-04
4.317755E+03	1.279104E-02	1.921405E-04
4.327636E+03	1.297467E-02	1.945370E-04
4.337516E+03	1.317191E-02	1.971262E-04
4.347397E+03	1.338168E-02	1.998909E-04
4.357277E+03	1.360309E-02	2.028167E-04
4.367157E+03	1.383526E-02	2.058893E-04
4.377038E+03	1.407636E-02	2.090810E-04
4.386918E+03	1.432522E-02	2.123733E-04
4.396799E+03	1.457950E-02	2.157311E-04
4.406679E+03	1.483731E-02	2.191259E-04
4.416560E+03	1.509606E-02	2.225194E-04
4.426440E+03	1.535346E-02	2.258776E-04
4.436321E+03	1.560660E-02	2.291579E-04
4.446201E+03	1.585249E-02	2.323170E-04
4.456081E+03	1.608885E-02	2.353219E-04
4.465962E+03	1.631252E-02	2.381274E-04
4.475842E+03	1.652123E-02	2.407014E-04
4.485723E+03	1.671245E-02	2.430084E-04
4.495603E+03	1.688447E-02	2.450253E-04
4.505484E+03	1.703524E-02	2.467238E-04
4.515364E+03	1.716410E-02	2.480962E-04
4.525245E+03	1.726988E-02	2.491277E-04
4.535125E+03	1.735239E-02	2.498172E-04
4.545005E+03	1.741208E-02	2.501736E-04
4.554886E+03	1.744939E-02	2.502050E-04
4.564766E+03	1.746562E-02	2.499318E-04
4.574647E+03	1.746168E-02	2.493691E-04
4.584527E+03	1.743948E-02	2.485458E-04
4.594408E+03	1.740070E-02	2.474874E-04
4.604288E+03	1.734762E-02	2.462276E-04
4.614169E+03	1.728241E-02	2.447986E-04
4.624049E+03	1.720685E-02	2.432265E-04
4.633929E+03	1.712363E-02	2.415503E-04
4.643810E+03	1.703451E-02	2.397956E-04
4.653690E+03	1.694189E-02	2.379963E-04
4.663571E+03	1.684784E-02	2.361819E-04
4.673451E+03	1.675410E-02	2.343769E-04
4.683332E+03	1.666271E-02	2.326099E-04
4.693212E+03	1.657514E-02	2.309010E-04
4.703093E+03	1.649290E-02	2.292711E-04
4.712973E+03	1.641734E-02	2.277382E-04
4.722853E+03	1.634959E-02	2.263176E-04
4.732734E+03	1.629062E-02	2.250219E-04
4.742614E+03	1.624098E-02	2.238582E-04
4.752495E+03	1.620146E-02	2.228363E-04
4.762375E+03	1.617249E-02	2.219612E-04
4.772256E+03	1.615412E-02	2.212330E-04
4.782136E+03	1.614672E-02	2.206553E-04
4.792017E+03	1.615012E-02	2.202255E-04
4.801897E+03	1.616433E-02	2.199422E-04
4.811777E+03	1.618926E-02	2.198037E-04
4.821658E+03	1.622502E-02	2.198103E-04
4.831538E+03	1.627129E-02	2.199570E-04
4.841419E+03	1.632797E-02	2.202413E-04
4.851299E+03	1.639510E-02	2.206628E-04
4.861180E+03	1.647214E-02	2.212137E-04
4.871060E+03	1.655932E-02	2.218958E-04
4.880941E+03	1.665624E-02	2.227033E-04
4.890821E+03	1.676270E-02	2.236324E-04
4.900702E+03	1.687850E-02	2.246798E-04
4.910582E+03	1.700343E-02	2.258419E-04
4.920462E+03	1.713756E-02	2.271187E-04
4.930343E+03	1.728062E-02	2.285062E-04
4.940223E+03	1.743247E-02	2.300016E-04
4.950104E+03	1.759367E-02	2.316114E-04
4.959984E+03	1.776455E-02	2.333394E-04
4.969865E+03	1.794519E-02	2.351858E-04
4.979745E+03	1.813661E-02	2.371631E-04
4.989626E+03	1.833935E-02	2.392776E-04
4.999506E+03	1.855446E-02	2.415418E-04
5.009386E+03	1.878261E-02	2.439636E-04
5.019267E+03	1.902492E-02	2.465562E-04
5.029147E+03	1.928204E-02	2.493271E-04
5.039028E+03	1.955497E-02	2.522880E-04
5.048908E+03	1.984422E-02	2.554439E-04
5.058789E+03	2.015057E-02	2.588039E-04
5.068669E+03	2.047451E-02	2.623725E-04
5.078550E+03	2.081637E-02	2.661528E-04
5.088430E+03	2.117638E-02	2.701461E-04
5.098310E+03	2.155465E-02	2.743526E-04
5.108191E+03	2.195097E-02	2.787680E-04
5.118071E+03	2.236574E-02	2.833959E-04
5.127952E+03	2.279880E-02	2.882332E-04
5.137832E+03	2.324945E-02	2.932695E-04
5.147713E+03	2.371784E-02	2.985052E-04
5.157593E+03	2.420352E-02	3.039335E-04
5.167474E+03	2.470540E-02	3.095395E-04
5.177354E+03	2.522345E-02	3.153217E-04
5.187234E+03	2.575617E-02	3.212601E-04
5.197115E+03	2.630277E-02	3.273441E-04
5.206995E+03	2.686110E-02	3.335458E-04
5.216876E+03	2.742939E-02	3.398428E-04
5.226756E+03	2.800510E-02	3.462033E-04
5.236637E+03	2.858527E-02	3.525901E-04
5.246517E+03	2.916660E-02	3.589628E-04
5.256398E+03	2.974458E-02	3.652661E-04
5.266278E+03	3.031444E-02	3.714421E-04
5.276158E+03	3.087103E-02	3.774291E-04
5.286039E+03	3.140818E-02	3.831531E-04
5.295919E+03	3.191983E-02	3.885422E-04
5.305800E+03	3.239951E-02	3.935202E-04
5.315680E+03	3.284065E-02	3.980104E-04
5.325561E+03	3.323702E-02	4.019410E-04
5.335441E+03	3.358298E-02	4.052476E-04
5.345322E+03	3.387373E-02	4.078768E-04
5.355202E+03	3.410574E-02	4.097905E-04
5.365083E+03	3.427710E-02	4.109710E-04
5.374963E+03	3.438654E-02	4.114078E-04
5.384843E+03	3.443612E-02	4.111304E-04
5.394724E+03	3.442736E-02	4.101618E-04
5.404604E+03	3.436515E-02	4.085645E-04
5.414485E+03	3.425311E-02	4.063857E-04
5.424365E+03	3.409720E-02	4.036998E-04
5.434246E+03	3.390125E-02	4.005552E-04
5.444126E+03	3.366937E-02	3.970033E-04
5.454007E+03	3.340502E-02	3.930876E-04
5.463887E+03	3.311115E-02	3.888451E-04
5.473767E+03	3.279186E-02	3.843257E-04
5.483648E+03	3.245184E-02	3.795861E-04
5.493528E+03	3.209550E-02	3.746788E-04
5.503409E+03	3.172879E-02	3.696743E-04
5.513289E+03	3.135770E-02	3.646423E-04
5.523170E+03	3.098938E-02	3.596662E-04
5.533050E+03	3.063038E-02	3.548210E-04
5.542931E+03	3.028717E-02	3.501811E-04
5.552811E+03	2.996673E-02	3.458255E-04
5.562691E+03	2.967572E-02	3.418292E-04
5.572572E+03	2.941928E-02	3.382493E-04
5.582452E+03	2.920297E-02	3.351473E-04
5.592333E+03	2.903088E-02	3.325671E-04
5.602213E+03	2.890722E-02	3.305541E-04
5.612094E+03	2.883408E-02	3.291292E-04
5.621974E+03	2.881352E-02	3.283126E-04
5.631855E+03	2.884596E-02	3.281059E-04
5.641735E+03	2.893178E-02	3.285102E-04
5.651615E+03	2.906892E-02	3.294992E-04
5.661496E+03	2.925606E-02	3.310547E-04
5.671376E+03	2.948959E-02	3.331336E-04
5.681257E+03	2.976553E-02	3.356882E-04
5.691137E+03	3.007948E-02	3.386668E-04
5.701018E+03	3.042604E-02	3.420069E-04
5.710898E+03	3.079889E-02	3.456359E-04
5.720779E+03	3.119157E-02	3.494803E-04
5.730659E+03	3.159735E-02	3.534638E-04
5.740539E+03	3.200958E-02	3.575121E-04
5.750420E+03	3.242111E-02	3.615452E-04
5.760300E+03	3.282516E-02	3.654878E-04
5.770181E+03	3.321566E-02	3.692734E-04
5.780061E+03	3.358594E-02	3.728286E-04
5.789942E+03	3.393121E-02	3.761020E-04
5.799822E+03	3.424596E-02	3.790338E-04
5.809703E+03	3.452669E-02	3.815872E-04
5.819583E+03	3.476929E-02	3.837187E-04
5.829463E+03	3.497139E-02	3.854041E-04
5.839344E+03	3.513100E-02	3.866237E-04
5.849224E+03	3.524686E-02	3.873656E-04
5.859105E+03	3.531798E-02	3.876212E-04
5.868985E+03	3.534507E-02	3.874004E-04
5.878866E+03	3.532763E-02	3.866998E-04
5.888746E+03	3.526765E-02	3.855430E-04
5.898627E+03	3.516587E-02	3.839398E-04
5.908507E+03	3.502391E-02	3.819098E-04
5.918388E+03	3.484413E-02	3.794803E-04
5.928268E+03	3.462874E-02	3.766768E-04
5.938148E+03	3.437945E-02	3.735192E-04
5.948029E+03	3.409955E-02	3.700443E-04
5.957909E+03	3.379185E-02	3.662837E-04
5.967790E+03	3.345861E-02	3.622628E-04
5.977670E+03	3.310360E-02	3.580231E-04
5.987551E+03	3.272981E-02	3.535975E-04
5.997431E+03	3.234068E-02	3.490234E-04
6.007312E+03	3.194006E-02	3.443428E-04
6.017192E+03	3.153109E-02	3.395898E-04
6.027072E+03	3.111794E-02	3.348090E-04
6.036953E+03	3.070483E-02	3.300457E-04
6.046833E+03	3.029518E-02	3.253366E-04
6.056714E+03	2.989358E-02	3.207305E-04
6.066594E+03	2.950335E-02	3.162624E-04
6.076475E+03	2.912879E-02	3.119778E-04
6.086355E+03	2.877286E-02	3.079079E-04
6.096236E+03	2.843924E-02	3.040911E-04
6.106116E+03	2.813014E-02	3.005503E-04
6.115996E+03	2.784798E-02	2.973108E-04
6.125877E+03	2.759452E-02	2.943901E-04
6.135757E+03	2.737111E-02	2.918022E-04
6.145638E+03	2.717770E-02	2.895456E-04
6.155518E+03	2.701484E-02	2.876254E-04
6.165399E+03	2.688131E-02	2.860280E-04
6.175279E+03	2.677654E-02	2.847468E-04
6.185160E+03	2.669890E-02	2.837639E-04
6.195040E+03	2.664611E-02	2.830546E-04
6.204920E+03	2.661577E-02	2.825930E-04
6.214801E+03	2.660523E-02	2.823507E-04
6.224681E+03	2.661220E-02	2.823034E-04
6.234562E+03	2.663325E-02	2.824144E-04
6.244442E+03	2.666577E-02	2.826562E-04
6.254323E+03	2.670697E-02	2.829989E-04
6.264203E+03	2.675402E-02	2.834129E-04
6.274084E+03	2.680516E-02	2.838796E-04
6.283964E+03	2.685808E-02	2.843746E-04
6.293844E+03	2.691123E-02	2.848817E-04
6.303725E+03	2.696341E-02	2.853883E-04
6.313605E+03	2.701389E-02	2.858869E-04
6.323486E+03	2.706271E-02	2.863782E-04
6.333366E+03	2.711017E-02	2.868654E-04
6.343247E+03	2.715686E-02	2.873550E-04
6.353127E+03	2.720446E-02	2.878648E-04
6.363008E+03	2.725454E-02	2.884118E-04
6.372888E+03	2.730981E-02	2.890248E-04
6.382769E+03	2.737312E-02	2.897342E-04
6.392649E+03	2.744766E-02	2.905738E-04
6.402529E+03	2.753686E-02	2.915804E-04
6.412410E+03	2.764453E-02	2.927945E-04
6.422290E+03	2.777353E-02	2.942470E-04
6.432171E+03	2.792752E-02	2.959768E-04
6.442051E+03	2.810846E-02	2.980050E-04
6.451932E+03	2.831742E-02	3.003433E-04
6.461812E+03	2.855411E-02	3.029891E-04
6.471693E+03	2.881589E-02	3.059148E-04
6.481573E+03	2.909917E-02	3.090829E-04
6.491453E+03	2.939854E-02	3.124361E-04
6.501334E+03	2.970865E-02	3.159182E-04
6.511214E+03	3.002238E-02	3.194538E-04
6.521095E+03	3.033322E-02	3.229737E-04
6.530975E+03	3.063437E-02	3.264054E-04
6.540856E+03	3.091881E-02	3.296743E-04
6.550736E+03	3.118099E-02	3.327205E-04
6.560617E+03	3.141501E-02	3.354808E-04
6.570497E+03	3.161611E-02	3.379035E-04
6.580377E+03	3.178060E-02	3.399482E-04
6.590258E+03	3.190622E-02	3.415898E-04
6.600138E+03	3.199089E-02	3.428048E-04
6.610019E+03	3.203510E-02	3.435972E-04
6.619899E+03	3.203984E-02	3.439760E-04
6.629780E+03	3.200680E-02	3.439583E-04
6.639660E+03	3.193902E-02	3.435752E-04
6.649541E+03	3.184062E-02	3.428698E-04
6.659421E+03	3.171571E-02	3.418849E-04
6.669301E+03	3.156945E-02	3.406752E-04
6.679182E+03	3.140696E-02	3.392947E-04
6.689062E+03	3.123299E-02	3.377941E-04
6.698943E+03	3.105281E-02	3.362297E-04
6.708823E+03	3.087073E-02	3.346478E-04
6.718704E+03	3.069164E-02	3.331008E-04
6.728584E+03	3.051860E-02	3.316219E-04
6.738465E+03	3.035502E-02	3.302481E-04
6.748345E+03	3.020353E-02	3.290083E-04
6.758225E+03	3.006612E-02	3.279243E-04
6.768106E+03	2.994435E-02	3.270135E-04
6.777986E+03	2.983925E-02	3.262876E-04
6.787867E+03	2.975122E-02	3.257514E-04
6.797747E+03	2.968133E-02	3.254173E-04
6.807628E+03	2.962935E-02	3.252833E-04
6.817508E+03	2.959528E-02	3.253498E-04
6.827389E+03	2.957885E-02	3.256149E-04
6.837269E+03	2.957970E-02	3.260749E-04
6.847149E+03	2.959735E-02	3.267254E-04
6.857030E+03	2.963156E-02	3.275641E-04
6.866910E+03	2.968092E-02	3.285764E-04
6.876791E+03	2.974535E-02	3.297617E-04
6.886671E+03	2.982355E-02	3.311064E-04
6.896552E+03	2.991452E-02	3.325999E-04
6.906432E+03	3.001750E-02	3.342342E-04
6.916313E+03	3.013095E-02	3.359927E-04
6.926193E+03	3.025360E-02	3.378617E-04
6.936074E+03	3.038419E-02	3.398273E-04
6.945954E+03	3.052170E-02	3.418787E-04
6.955834E+03	3.066446E-02	3.439971E-04
6.965715E+03	3.081118E-02	3.461684E-04
6.975595E+03	3.096088E-02	3.483818E-04
6.985476E+03	3.111194E-02	3.506191E-04
6.995356E+03	3.126305E-02	3.528654E-04
7.005237E+03	3.141328E-02	3.551102E-04
7.015117E+03	3.156133E-02	3.573387E-04
7.024998E+03	3.170506E-02	3.595264E-04
7.034878E+03	3.184378E-02	3.616654E-04
7.044758E+03	3.197600E-02	3.637381E-04
7.054639E+03	3.209972E-02	3.657215E-04
7.064519E+03	3.221329E-02	3.675963E-04
7.074400E+03	3.231535E-02	3.693462E-04
7.084280E+03	3.240379E-02	3.709465E-04
7.094161E+03	3.247679E-02	3.723754E-04
7.104041E+03	3.253300E-02	3.736165E-04
7.113922E+03	3.257067E-02	3.746489E-04
7.123802E+03	3.258780E-02	3.754483E-04
7.133682E+03	3.258287E-02	3.759958E-04
7.143563E+03	3.255486E-02	3.762786E-04
7.153443E+03	3.250217E-02	3.762767E-04
7.163324E+03	3.242424E-02	3.759823E-04
7.173204E+03	3.231988E-02	3.753797E-04
7.183085E+03	3.218908E-02	3.744676E-04
7.192965E+03	3.203127E-02	3.732377E-04
7.202846E+03	3.184663E-02	3.716903E-04
7.212726E+03	3.163610E-02	3.698350E-04
7.222606E+03	3.140061E-02	3.676811E-04
7.232487E+03	3.114060E-02	3.652322E-04
7.242367E+03	3.085883E-02	3.625193E-04
7.252248E+03	3.055611E-02	3.595506E-04
7.262128E+03	3.023541E-02	3.563597E-04
7.272009E+03	2.989915E-02	3.529741E-04
7.281889E+03	2.954965E-02	3.494205E-04
7.291770E+03	2.918971E-02	3.457309E-04
7.301650E+03	2.882230E-02	3.419400E-04
7.311530E+03	2.845074E-02	3.380868E-04
7.321411E+03	2.807801E-02	3.342064E-04
7.331291E+03	2.770670E-02	3.303295E-04
7.341172E+03	2.733969E-02	3.264905E-04
7.351052E+03	2.697965E-02	3.227218E-04
7.360933E+03	2.662950E-02	3.190585E-04
7.370813E+03	2.629120E-02	3.155247E-04
7.380694E+03	2.596685E-02	3.121462E-04
7.390574E+03	2.565852E-02	3.089489E-04
7.400455E+03	2.536734E-02	3.059473E-04
7.410335E+03	2.509452E-02	3.031569E-04
7.420215E+03	2.484114E-02	3.005921E-04
7.430096E+03	2.460739E-02	2.982560E-04
7.439976E+03	2.439350E-02	2.961527E-04
7.449857E+03	2.419969E-02	2.942861E-04
7.459737E+03	2.402501E-02	2.926459E-04
7.469618E+03	2.386959E-02	2.912346E-04
7.479498E+03	2.373248E-02	2.900419E-04
7.489379E+03	2.361325E-02	2.890635E-04
7.499259E+03	2.351047E-02	2.882832E-04
7.509139E+03	2.342401E-02	2.877003E-04
7.519020E+03	2.335281E-02	2.873026E-04
7.528900E+03	2.329619E-02	2.870830E-04
7.538781E+03	2.325360E-02	2.870352E-04
7.548661E+03	2.322487E-02	2.871583E-04
7.558542E+03	2.320902E-02	2.874410E-04
7.568422E+03	2.320646E-02	2.878891E-04
7.578303E+03	2.321671E-02	2.884977E-04
7.588183E+03	2.323973E-02	2.892667E-04
7.598063E+03	2.327547E-02	2.901967E-04
7.607944E+03	2.332393E-02	2.912884E-04
7.617824E+03	2.338504E-02	2.925418E-04
7.627705E+03	2.345867E-02	2.939561E-04
7.637585E+03	2.354453E-02	2.955285E-04
7.647466E+03	2.364216E-02	2.972539E-04
7.657346E+03	2.375117E-02	2.991285E-04
7.667227E+03	2.386989E-02	3.011317E-04
