#wls	flux	fluxerr
1.600000E+03	1.890702E-15	4.075481E-16
1.640000E+03	1.909384E-15	3.741010E-16
1.680000E+03	1.926710E-15	3.400194E-16
1.720000E+03	1.942663E-15	3.055546E-16
1.760000E+03	1.957207E-15	2.709908E-16
1.800000E+03	1.970321E-15	2.366589E-16
1.840000E+03	1.981720E-15	2.029217E-16
1.880000E+03	1.991214E-15	1.702511E-16
1.920000E+03	1.998243E-15	1.392301E-16
1.960000E+03	2.002081E-15	1.106752E-16
2.000000E+03	2.001826E-15	8.579927E-17
2.040000E+03	1.997049E-15	6.642981E-17
2.080000E+03	1.988475E-15	5.466455E-17
2.120000E+03	1.978762E-15	5.041938E-17
2.160000E+03	1.970770E-15	4.977619E-17
2.200000E+03	1.968818E-15	4.972106E-17
2.240000E+03	1.978789E-15	5.070683E-17
2.280000E+03	2.006503E-15	5.495813E-17
2.320000E+03	2.054539E-15	6.261576E-17
2.360000E+03	2.122679E-15	7.152676E-17
2.400000E+03	2.210496E-15	7.945989E-17
2.440000E+03	2.317424E-15	8.468487E-17
2.480000E+03	2.442117E-15	8.599890E-17
2.520000E+03	2.582499E-15	8.304674E-17
2.560000E+03	2.736102E-15	7.741664E-17
2.600000E+03	2.900959E-15	7.486740E-17
2.640000E+03	3.076793E-15	8.493060E-17
2.680000E+03	3.260951E-15	1.104351E-16
2.720000E+03	3.449549E-15	1.462124E-16
2.760000E+03	3.640976E-15	1.873073E-16
2.800000E+03	3.834896E-15	2.304852E-16
2.840000E+03	4.031853E-15	2.734919E-16
2.880000E+03	4.232284E-15	3.145160E-16
2.920000E+03	4.436567E-15	3.519757E-16
2.960000E+03	4.644741E-15	3.844118E-16
3.000000E+03	4.856797E-15	4.104848E-16
3.010000E+03	4.910333E-15	4.158570E-16
3.020000E+03	4.964073E-15	4.207347E-16
3.030000E+03	5.018074E-15	4.251058E-16
3.040000E+03	5.072166E-15	4.289398E-16
3.050000E+03	5.126407E-15	4.322264E-16
3.060000E+03	5.180778E-15	4.349496E-16
3.070000E+03	5.235260E-15	4.370941E-16
3.080000E+03	5.289836E-15	4.386458E-16
3.090000E+03	5.344487E-15	4.395915E-16
3.100000E+03	5.399195E-15	4.399192E-16
3.110000E+03	5.453943E-15	4.396181E-16
3.120000E+03	5.508638E-15	4.386725E-16
3.130000E+03	5.563338E-15	4.370805E-16
3.140000E+03	5.617954E-15	4.348293E-16
3.150000E+03	5.672469E-15	4.319140E-16
3.160000E+03	5.726869E-15	4.283314E-16
3.170000E+03	5.781067E-15	4.240742E-16
3.180000E+03	5.835124E-15	4.191484E-16
3.190000E+03	5.888882E-15	4.135458E-16
3.200000E+03	5.942404E-15	4.072764E-16
3.210000E+03	5.995608E-15	4.003419E-16
3.220000E+03	6.048415E-15	3.927469E-16
3.230000E+03	6.100820E-15	3.845036E-16
3.240000E+03	6.152820E-15	3.756267E-16
3.250000E+03	6.204342E-15	3.661293E-16
3.260000E+03	6.255315E-15	3.560279E-16
3.270000E+03	6.305672E-15	3.453426E-16
3.280000E+03	6.355421E-15	3.341011E-16
3.290000E+03	6.404572E-15	3.223345E-16
3.300000E+03	6.452927E-15	3.100672E-16
3.310000E+03	6.500575E-15	2.973426E-16
3.320000E+03	6.547471E-15	2.842016E-16
3.330000E+03	6.593503E-15	2.706878E-16
3.340000E+03	6.638638E-15	2.568539E-16
3.350000E+03	6.682853E-15	2.427600E-16
3.360000E+03	6.726201E-15	2.284760E-16
3.370000E+03	6.768612E-15	2.140761E-16
3.380000E+03	6.810095E-15	1.996486E-16
3.390000E+03	6.850682E-15	1.852948E-16
3.400000E+03	6.890353E-15	1.711315E-16
3.410000E+03	6.929184E-15	1.572983E-16
3.420000E+03	6.967280E-15	1.439607E-16
3.430000E+03	7.004778E-15	1.313154E-16
3.440000E+03	7.041790E-15	1.195925E-16
3.450000E+03	7.078598E-15	1.090576E-16
3.460000E+03	7.115323E-15	9.998892E-17
3.470000E+03	7.152251E-15	9.264155E-17
3.478000E+03	7.118689E-15	3.410298E-16
3.479470E+03	7.097278E-15	3.403688E-16
3.480940E+03	7.076290E-15	3.397194E-16
3.482410E+03	7.060232E-15	3.391743E-16
3.483880E+03	7.048119E-15	3.387121E-16
3.485350E+03	7.032765E-15	3.381852E-16
3.486820E+03	7.017975E-15	3.376716E-16
3.488290E+03	7.006848E-15	3.372343E-16
3.489760E+03	7.005157E-15	3.369895E-16
3.491230E+03	7.004733E-15	3.367707E-16
3.492700E+03	6.996563E-15	3.363957E-16
3.494170E+03	6.991631E-15	3.360868E-16
3.495640E+03	6.993459E-15	3.359141E-16
3.497110E+03	6.990639E-15	3.356483E-16
3.498580E+03	6.985707E-15	3.353407E-16
3.500050E+03	6.984294E-15	3.351038E-16
3.501520E+03	6.984712E-15	3.349035E-16
3.502990E+03	6.986819E-15	3.347368E-16
3.504460E+03	6.986954E-15	3.456476E-16
3.505930E+03	6.984836E-15	3.438625E-16
3.507400E+03	6.983702E-15	3.378897E-16
3.508870E+03	6.982709E-15	3.361960E-16
3.510340E+03	6.984813E-15	3.412191E-16
3.511810E+03	6.991563E-15	3.426180E-16
3.513280E+03	7.001410E-15	3.484913E-16
3.514750E+03	7.014494E-15	3.541805E-16
3.516220E+03	7.025465E-15	3.555894E-16
3.517690E+03	7.031367E-15	3.578005E-16
3.519160E+03	7.037408E-15	3.682372E-16
3.520630E+03	7.045138E-15	3.683078E-16
3.522100E+03	7.055965E-15	3.685354E-16
3.523570E+03	7.067072E-15	3.693073E-16
3.525040E+03	7.083527E-15	3.713232E-16
3.526510E+03	7.106316E-15	3.688026E-16
3.527980E+03	7.128963E-15	3.692100E-16
3.529450E+03	7.146399E-15	3.682996E-16
3.530920E+03	7.159893E-15	3.602039E-16
3.532390E+03	7.181691E-15	3.585522E-16
3.533860E+03	7.206583E-15	3.594044E-16
3.535330E+03	7.230489E-15	3.600683E-16
3.536800E+03	7.250733E-15	3.659530E-16
3.538270E+03	7.273369E-15	3.708793E-16
3.539740E+03	7.297410E-15	3.722854E-16
3.541210E+03	7.326657E-15	3.716183E-16
3.542680E+03	7.362940E-15	3.722042E-16
3.544150E+03	7.396827E-15	3.709479E-16
3.545620E+03	7.426209E-15	3.656857E-16
3.547090E+03	7.453900E-15	3.635823E-16
3.548560E+03	7.482714E-15	3.576705E-16
3.550030E+03	7.503084E-15	3.582550E-16
3.551500E+03	7.521341E-15	3.555342E-16
3.552970E+03	7.543537E-15	3.517820E-16
3.554440E+03	7.565590E-15	3.460845E-16
3.555910E+03	7.587782E-15	3.472899E-16
3.557380E+03	7.604907E-15	3.454772E-16
3.558850E+03	7.617106E-15	3.447318E-16
3.560320E+03	7.626208E-15	3.427676E-16
3.561790E+03	7.638405E-15	3.424109E-16
3.563260E+03	7.650882E-15	3.366753E-16
3.564730E+03	7.664061E-15	3.333651E-16
3.566200E+03	7.670345E-15	3.370084E-16
3.567670E+03	7.673392E-15	3.358971E-16
3.569140E+03	7.680940E-15	3.245556E-16
3.570610E+03	7.685674E-15	3.247133E-16
3.572080E+03	7.684920E-15	3.253748E-16
3.573550E+03	7.684729E-15	3.243207E-16
3.575020E+03	7.689460E-15	3.253390E-16
3.576490E+03	7.693206E-15	3.249815E-16
3.577960E+03	7.692028E-15	3.250377E-16
3.579430E+03	7.688880E-15	3.264961E-16
3.580900E+03	7.698952E-15	3.223416E-16
3.582370E+03	7.719713E-15	3.240907E-16
3.583840E+03	7.731190E-15	3.216046E-16
3.585310E+03	7.733242E-15	3.207074E-16
3.586780E+03	7.735434E-15	3.145470E-16
3.588250E+03	7.741423E-15	3.123220E-16
3.589720E+03	7.750645E-15	3.130368E-16
3.591190E+03	7.759022E-15	3.190095E-16
3.592660E+03	7.767819E-15	3.164205E-16
3.594130E+03	7.779710E-15	3.205149E-16
3.595600E+03	7.795536E-15	3.256681E-16
3.597070E+03	7.809111E-15	3.224693E-16
3.598540E+03	7.826762E-15	3.237062E-16
3.600010E+03	7.844552E-15	3.290653E-16
3.601480E+03	7.856013E-15	3.286738E-16
3.602950E+03	7.859881E-15	3.275116E-16
3.604420E+03	7.860514E-15	3.236472E-16
3.605890E+03	7.871269E-15	3.235465E-16
3.607360E+03	7.887084E-15	3.306494E-16
3.608830E+03	7.896431E-15	3.386774E-16
3.610300E+03	7.905776E-15	3.394235E-16
3.611770E+03	7.915401E-15	3.411506E-16
3.613240E+03	7.916872E-15	3.415031E-16
3.614710E+03	7.914687E-15	3.388531E-16
3.616180E+03	7.911940E-15	3.322100E-16
3.617650E+03	7.909754E-15	3.270484E-16
3.619120E+03	7.896183E-15	3.265496E-16
3.620590E+03	7.885563E-15	3.256812E-16
3.622060E+03	7.874943E-15	3.236919E-16
3.623530E+03	7.859826E-15	3.266099E-16
3.625000E+03	7.848082E-15	3.304332E-16
3.626470E+03	7.828467E-15	3.293927E-16
3.627940E+03	7.802951E-15	3.304491E-16
3.629410E+03	7.781371E-15	3.285118E-16
3.630880E+03	7.761477E-15	3.330128E-16
3.632350E+03	7.747345E-15	3.218565E-16
3.633820E+03	7.732229E-15	3.341818E-16
3.635290E+03	7.710790E-15	3.382329E-16
3.636760E+03	7.696799E-15	3.363898E-16
3.638230E+03	7.687023E-15	3.260862E-16
3.639700E+03	7.671206E-15	3.164517E-16
3.641170E+03	7.642041E-15	3.057294E-16
3.642640E+03	7.610349E-15	3.025800E-16
3.644110E+03	7.581468E-15	2.989130E-16
3.645580E+03	7.547390E-15	2.947205E-16
3.647050E+03	7.512189E-15	2.931814E-16
3.648520E+03	7.478956E-15	2.939397E-16
3.649990E+03	7.447551E-15	2.898387E-16
3.651460E+03	7.411511E-15	2.892802E-16
3.652930E+03	7.372383E-15	2.865061E-16
3.654400E+03	7.334801E-15	2.885359E-16
3.655870E+03	7.296238E-15	2.902981E-16
3.657340E+03	7.256272E-15	2.832765E-16
3.658810E+03	7.216308E-15	2.733548E-16
3.660280E+03	7.182946E-15	2.703021E-16
3.661750E+03	7.153377E-15	2.677717E-16
3.663220E+03	7.118332E-15	2.659596E-16
3.664690E+03	7.079217E-15	2.647484E-16
3.666160E+03	7.043754E-15	2.629029E-16
3.667630E+03	7.010961E-15	2.629439E-16
3.669100E+03	6.983505E-15	2.630284E-16
3.670570E+03	6.965457E-15	2.631307E-16
3.672040E+03	6.951060E-15	2.649555E-16
3.673510E+03	6.936944E-15	2.601903E-16
3.674980E+03	6.939115E-15	2.515541E-16
3.676450E+03	6.953499E-15	2.538106E-16
3.677920E+03	6.963389E-15	2.522683E-16
3.679390E+03	6.972294E-15	2.576380E-16
3.680860E+03	6.991166E-15	2.577902E-16
3.682330E+03	7.021968E-15	2.664958E-16
3.683800E+03	7.049819E-15	2.440391E-16
3.685270E+03	7.077387E-15	2.320279E-16
3.686740E+03	7.115058E-15	2.317520E-16
3.688210E+03	7.162411E-15	2.353476E-16
3.689680E+03	7.216778E-15	2.494657E-16
3.691150E+03	7.284755E-15	2.552211E-16
3.692620E+03	7.353708E-15	2.561997E-16
3.694090E+03	7.416482E-15	2.615415E-16
3.695560E+03	7.486127E-15	2.624338E-16
3.697030E+03	7.563064E-15	2.619276E-16
3.698500E+03	7.643644E-15	2.705133E-16
3.699970E+03	7.726182E-15	2.794200E-16
3.701440E+03	7.818256E-15	2.863882E-16
3.702910E+03	7.916216E-15	2.921525E-16
3.704380E+03	8.011783E-15	2.966910E-16
3.705850E+03	8.105940E-15	3.103038E-16
3.707320E+03	8.197003E-15	3.208092E-16
3.708790E+03	8.291146E-15	3.226568E-16
3.710260E+03	8.389210E-15	3.231892E-16
3.711730E+03	8.492037E-15	3.253096E-16
3.713200E+03	8.594294E-15	3.301750E-16
3.714670E+03	8.690932E-15	3.310158E-16
3.716140E+03	8.784197E-15	3.333106E-16
3.717610E+03	8.878857E-15	3.329708E-16
3.719080E+03	8.971406E-15	3.341758E-16
3.720550E+03	9.065070E-15	3.384176E-16
3.722020E+03	9.158726E-15	3.382716E-16
3.723490E+03	9.256021E-15	3.438826E-16
3.724960E+03	9.360602E-15	3.643333E-16
3.726430E+03	9.461387E-15	3.667728E-16
3.727900E+03	9.554312E-15	3.679659E-16
3.729370E+03	9.649473E-15	3.639238E-16
3.730840E+03	9.750796E-15	3.575224E-16
3.732310E+03	9.845100E-15	3.477171E-16
3.733780E+03	9.925656E-15	3.452119E-16
3.735250E+03	1.000761E-14	3.479127E-16
3.736720E+03	1.008871E-14	3.571012E-16
3.738190E+03	1.016616E-14	3.630920E-16
3.739660E+03	1.024809E-14	3.694450E-16
3.741130E+03	1.032161E-14	3.797259E-16
3.742600E+03	1.038544E-14	3.813446E-16
3.744070E+03	1.045277E-14	3.818210E-16
3.745540E+03	1.051744E-14	3.872612E-16
3.747010E+03	1.057298E-14	3.884317E-16
3.748480E+03	1.063007E-14	3.849964E-16
3.749950E+03	1.068350E-14	3.804213E-16
3.751420E+03	1.072923E-14	3.757987E-16
3.752890E+03	1.077522E-14	3.732780E-16
3.754360E+03	1.082556E-14	3.727224E-16
3.755830E+03	1.087337E-14	3.623433E-16
3.757300E+03	1.091655E-14	3.533304E-16
3.758770E+03	1.095861E-14	3.529011E-16
3.760240E+03	1.099603E-14	3.618648E-16
3.761710E+03	1.102211E-14	3.728473E-16
3.763180E+03	1.104145E-14	3.740500E-16
3.764650E+03	1.105575E-14	3.795128E-16
3.766120E+03	1.106795E-14	3.814835E-16
3.767590E+03	1.107692E-14	3.832678E-16
3.769060E+03	1.107399E-14	3.837140E-16
3.770530E+03	1.107217E-14	3.806115E-16
3.772000E+03	1.107329E-14	3.793726E-16
3.773470E+03	1.106895E-14	3.749486E-16
3.774940E+03	1.105887E-14	3.583872E-16
3.776410E+03	1.104248E-14	3.544919E-16
3.777880E+03	1.102091E-14	3.499442E-16
3.779350E+03	1.099738E-14	3.468068E-16
3.780820E+03	1.097371E-14	3.468757E-16
3.782290E+03	1.095312E-14	3.464275E-16
3.783760E+03	1.092735E-14	3.457125E-16
3.785230E+03	1.089528E-14	3.439383E-16
3.786700E+03	1.085831E-14	3.359892E-16
3.788170E+03	1.080931E-14	3.299191E-16
3.789640E+03	1.075400E-14	3.182045E-16
3.791110E+03	1.070024E-14	3.031297E-16
3.792580E+03	1.064522E-14	2.989960E-16
3.794050E+03	1.058236E-14	3.009168E-16
3.795520E+03	1.052371E-14	2.896066E-16
3.796990E+03	1.046254E-14	2.843918E-16
3.798460E+03	1.038332E-14	2.870145E-16
3.799930E+03	1.030382E-14	2.931580E-16
3.801400E+03	1.022769E-14	3.043729E-16
3.802870E+03	1.014078E-14	3.166329E-16
3.804340E+03	1.004814E-14	3.190714E-16
3.805810E+03	9.954253E-15	3.173164E-16
3.807280E+03	9.858549E-15	3.163885E-16
3.808750E+03	9.763132E-15	3.142578E-16
3.810220E+03	9.666183E-15	3.060277E-16
3.811690E+03	9.568540E-15	2.931940E-16
3.813160E+03	9.471185E-15	2.847961E-16
3.814630E+03	9.377474E-15	2.761073E-16
3.816100E+03	9.286149E-15	2.711968E-16
3.817570E+03	9.188114E-15	2.671895E-16
3.819040E+03	9.091206E-15	2.638759E-16
3.820510E+03	9.001859E-15	2.651383E-16
3.821980E+03	8.915736E-15	2.650880E-16
3.823450E+03	8.838711E-15	2.646442E-16
3.824920E+03	8.775960E-15	2.644704E-16
3.826390E+03	8.709576E-15	2.652829E-16
3.827860E+03	8.629770E-15	2.624688E-16
3.829330E+03	8.555004E-15	2.611217E-16
3.830800E+03	8.490034E-15	2.590307E-16
3.832270E+03	8.424649E-15	2.562660E-16
3.833740E+03	8.359268E-15	2.561619E-16
3.835210E+03	8.302562E-15	2.589694E-16
3.836680E+03	8.256906E-15	2.614233E-16
3.838150E+03	8.210694E-15	2.627261E-16
3.839620E+03	8.170218E-15	2.619599E-16
3.841090E+03	8.137434E-15	2.558487E-16
3.842560E+03	8.100598E-15	2.607293E-16
3.844030E+03	8.066560E-15	2.637914E-16
3.845500E+03	8.039933E-15	2.678344E-16
3.846970E+03	8.016383E-15	2.843664E-16
3.848440E+03	7.999404E-15	2.912095E-16
3.849910E+03	7.982985E-15	2.854814E-16
3.851380E+03	7.964750E-15	2.758154E-16
3.852850E+03	7.952245E-15	2.740692E-16
3.854320E+03	7.939461E-15	2.670174E-16
3.855790E+03	7.925840E-15	2.675759E-16
3.857260E+03	7.920184E-15	2.646181E-16
3.858730E+03	7.924589E-15	2.637009E-16
3.860200E+03	7.926897E-15	2.634248E-16
3.861670E+03	7.924313E-15	2.662863E-16
3.863140E+03	7.928016E-15	2.685116E-16
3.864610E+03	7.935072E-15	2.678578E-16
3.866080E+03	7.944361E-15	2.645435E-16
3.867550E+03	7.956583E-15	2.623188E-16
3.869020E+03	7.968802E-15	2.692572E-16
3.870490E+03	7.984931E-15	2.775961E-16
3.871960E+03	7.999102E-15	2.885651E-16
3.873430E+03	8.014528E-15	2.979704E-16
3.874900E+03	8.033584E-15	3.007497E-16
3.876370E+03	8.053195E-15	3.000335E-16
3.877840E+03	8.075458E-15	3.002180E-16
3.879310E+03	8.097299E-15	3.042559E-16
3.880780E+03	8.116902E-15	3.035219E-16
3.882250E+03	8.141251E-15	3.027249E-16
3.883720E+03	8.166714E-15	3.023231E-16
3.885190E+03	8.191475E-15	3.006781E-16
3.886660E+03	8.213860E-15	2.960398E-16
3.888130E+03	8.242106E-15	2.990321E-16
3.889600E+03	8.277050E-15	3.016402E-16
3.891070E+03	8.306824E-15	3.032775E-16
3.892540E+03	8.338130E-15	3.050500E-16
3.894010E+03	8.375435E-15	3.034788E-16
3.895480E+03	8.406036E-15	3.011539E-16
3.896950E+03	8.436912E-15	2.867117E-16
3.898420E+03	8.475181E-15	2.772687E-16
3.899890E+03	8.514144E-15	2.830835E-16
3.901360E+03	8.558964E-15	2.839038E-16
3.902830E+03	8.606570E-15	2.688237E-16
3.904300E+03	8.650542E-15	2.696288E-16
3.905770E+03	8.696184E-15	2.682684E-16
3.907240E+03	8.744751E-15	2.726473E-16
3.908710E+03	8.790940E-15	2.733323E-16
3.910180E+03	8.830148E-15	2.747482E-16
3.911650E+03	8.868235E-15	2.751619E-16
3.913120E+03	8.911619E-15	2.745615E-16
3.914590E+03	8.955556E-15	2.747148E-16
3.916060E+03	9.003534E-15	2.768811E-16
3.917530E+03	9.055690E-15	2.794443E-16
3.919000E+03	9.111606E-15	2.789262E-16
3.920470E+03	9.169050E-15	2.687289E-16
3.921940E+03	9.222722E-15	2.533916E-16
3.923410E+03	9.273460E-15	2.418032E-16
3.924880E+03	9.322378E-15	2.367606E-16
3.926350E+03	9.370036E-15	2.418140E-16
3.927820E+03	9.420896E-15	2.457594E-16
3.929290E+03	9.475793E-15	2.371023E-16
3.930760E+03	9.536260E-15	2.354079E-16
3.932230E+03	9.596442E-15	2.429617E-16
3.933700E+03	9.655363E-15	2.457440E-16
3.935170E+03	9.716786E-15	2.478963E-16
3.936640E+03	9.775414E-15	2.543487E-16
3.938110E+03	9.834035E-15	2.586163E-16
3.939580E+03	9.897946E-15	2.602210E-16
3.941050E+03	9.962546E-15	2.585179E-16
3.942520E+03	1.002352E-14	2.527957E-16
3.943990E+03	1.008350E-14	2.500087E-16
3.945460E+03	1.013958E-14	2.495644E-16
3.946930E+03	1.018799E-14	2.499505E-16
3.948400E+03	1.023709E-14	2.493630E-16
3.949870E+03	1.029537E-14	2.429976E-16
3.951340E+03	1.035616E-14	2.411507E-16
3.952810E+03	1.040413E-14	2.425417E-16
3.954280E+03	1.045668E-14	2.429655E-16
3.955750E+03	1.051341E-14	2.432997E-16
3.957220E+03	1.056205E-14	2.394337E-16
3.958690E+03	1.060985E-14	2.412142E-16
3.960160E+03	1.065598E-14	2.430765E-16
3.961630E+03	1.070307E-14	2.416538E-16
3.963100E+03	1.075225E-14	2.416754E-16
3.964570E+03	1.079640E-14	2.429723E-16
3.966040E+03	1.083442E-14	2.409586E-16
3.967510E+03	1.087244E-14	2.386744E-16
3.968980E+03	1.091268E-14	2.370935E-16
3.970450E+03	1.095361E-14	2.521926E-16
3.971920E+03	1.099482E-14	2.620928E-16
3.973390E+03	1.103184E-14	2.634419E-16
3.974860E+03	1.106886E-14	2.660473E-16
3.976330E+03	1.110295E-14	2.645203E-16
3.977800E+03	1.113383E-14	2.612722E-16
3.979270E+03	1.116916E-14	2.611454E-16
3.980740E+03	1.120032E-14	2.596770E-16
3.982210E+03	1.122520E-14	2.535663E-16
3.983680E+03	1.124953E-14	2.518485E-16
3.985150E+03	1.127232E-14	2.485222E-16
3.986620E+03	1.129023E-14	2.419497E-16
3.988090E+03	1.130286E-14	2.310291E-16
3.989560E+03	1.131339E-14	2.251197E-16
3.991030E+03	1.132225E-14	2.266106E-16
3.992500E+03	1.132722E-14	2.270236E-16
3.993970E+03	1.132885E-14	2.276706E-16
3.995440E+03	1.133033E-14	2.278591E-16
3.996910E+03	1.133237E-14	2.343769E-16
3.998380E+03	1.133274E-14	2.476129E-16
3.999850E+03	1.132935E-14	2.618308E-16
4.001320E+03	1.132360E-14	2.707101E-16
4.002790E+03	1.131771E-14	2.704887E-16
4.004260E+03	1.131223E-14	2.725541E-16
4.005730E+03	1.131093E-14	2.763315E-16
4.007200E+03	1.131518E-14	2.783965E-16
4.008670E+03	1.132180E-14	2.797681E-16
4.010140E+03	1.132619E-14	2.787219E-16
4.011610E+03	1.133100E-14	2.822103E-16
4.013080E+03	1.134582E-14	2.878370E-16
4.014550E+03	1.136230E-14	2.860662E-16
4.016020E+03	1.137877E-14	2.853993E-16
4.017490E+03	1.139914E-14	2.845293E-16
4.018960E+03	1.141603E-14	2.790107E-16
4.020430E+03	1.143528E-14	2.586823E-16
4.021900E+03	1.145842E-14	2.423132E-16
4.023370E+03	1.148155E-14	2.378146E-16
4.024840E+03	1.150509E-14	2.303886E-16
4.026310E+03	1.153044E-14	2.240726E-16
4.027780E+03	1.155745E-14	2.283441E-16
4.029250E+03	1.158627E-14	2.336691E-16
4.030720E+03	1.161785E-14	2.446965E-16
4.032190E+03	1.165013E-14	2.537700E-16
4.033660E+03	1.168032E-14	2.669801E-16
4.035130E+03	1.170995E-14	2.826510E-16
4.036600E+03	1.174041E-14	2.907022E-16
4.038070E+03	1.177031E-14	3.016890E-16
4.039540E+03	1.179839E-14	3.161384E-16
4.041010E+03	1.182259E-14	3.289325E-16
4.042480E+03	1.184108E-14	3.418421E-16
4.043950E+03	1.186083E-14	3.564597E-16
4.045420E+03	1.188348E-14	3.644985E-16
4.046890E+03	1.190016E-14	3.651378E-16
4.048360E+03	1.190810E-14	3.609875E-16
4.049830E+03	1.191630E-14	3.531716E-16
4.051300E+03	1.192409E-14	3.480996E-16
4.052770E+03	1.192299E-14	3.466233E-16
4.054240E+03	1.191676E-14	3.433741E-16
4.055710E+03	1.191177E-14	3.379130E-16
4.057180E+03	1.190137E-14	3.348191E-16
4.058650E+03	1.188084E-14	3.367866E-16
4.060120E+03	1.185407E-14	3.461698E-16
4.061590E+03	1.182813E-14	3.539293E-16
4.063060E+03	1.180413E-14	3.657234E-16
4.064530E+03	1.177597E-14	3.776375E-16
4.066000E+03	1.174324E-14	3.885291E-16
4.067470E+03	1.170538E-14	3.973826E-16
4.068940E+03	1.166599E-14	4.001772E-16
4.070410E+03	1.162022E-14	4.059635E-16
4.071880E+03	1.157086E-14	4.103576E-16
4.073350E+03	1.152080E-14	4.113575E-16
4.074820E+03	1.146534E-14	4.118227E-16
4.076290E+03	1.140822E-14	4.163852E-16
4.077760E+03	1.135139E-14	4.242662E-16
4.079230E+03	1.129705E-14	4.300708E-16
4.080700E+03	1.124480E-14	4.273572E-16
4.082170E+03	1.118881E-14	4.239635E-16
4.083640E+03	1.113657E-14	4.181851E-16
4.085110E+03	1.108670E-14	4.094615E-16
4.086580E+03	1.102962E-14	4.024102E-16
4.088050E+03	1.097254E-14	3.933777E-16
4.089520E+03	1.092046E-14	3.806899E-16
4.090990E+03	1.086908E-14	3.667546E-16
4.092460E+03	1.081784E-14	3.514515E-16
4.093930E+03	1.077201E-14	3.297979E-16
4.095400E+03	1.072923E-14	3.182054E-16
4.096870E+03	1.069242E-14	3.262623E-16
4.098340E+03	1.065977E-14	3.213940E-16
4.099810E+03	1.063086E-14	3.084915E-16
4.101280E+03	1.060597E-14	3.006077E-16
4.102750E+03	1.058039E-14	3.094557E-16
4.104220E+03	1.056160E-14	3.172198E-16
4.105690E+03	1.054669E-14	3.222133E-16
4.107160E+03	1.053247E-14	3.309079E-16
