#wls	flux	fluxerr
1.600000E+03	8.581691E-16	1.981449E-16
1.640000E+03	8.585073E-16	1.820984E-16
1.680000E+03	8.581513E-16	1.660953E-16
1.720000E+03	8.571321E-16	1.502537E-16
1.760000E+03	8.553986E-16	1.346884E-16
1.800000E+03	8.528195E-16	1.195210E-16
1.840000E+03	8.494444E-16	1.049237E-16
1.880000E+03	8.452731E-16	9.108532E-17
1.920000E+03	8.402278E-16	7.822339E-17
1.960000E+03	8.345192E-16	6.662964E-17
2.000000E+03	8.284628E-16	5.664660E-17
2.040000E+03	8.226058E-16	4.865191E-17
2.080000E+03	8.178148E-16	4.295439E-17
2.120000E+03	8.150553E-16	3.953937E-17
2.160000E+03	8.156563E-16	3.796717E-17
2.200000E+03	8.210530E-16	3.772293E-17
2.240000E+03	8.328878E-16	3.854944E-17
2.280000E+03	8.527076E-16	4.037181E-17
2.320000E+03	8.815698E-16	4.299071E-17
2.360000E+03	9.194267E-16	4.597311E-17
2.400000E+03	9.662668E-16	4.884137E-17
2.440000E+03	1.021652E-15	5.116849E-17
2.480000E+03	1.085354E-15	5.273037E-17
2.520000E+03	1.156718E-15	5.366018E-17
2.560000E+03	1.235043E-15	5.474166E-17
2.600000E+03	1.319223E-15	5.758106E-17
2.640000E+03	1.407998E-15	6.410363E-17
2.680000E+03	1.500610E-15	7.515391E-17
2.720000E+03	1.596645E-15	9.010866E-17
2.760000E+03	1.695800E-15	1.077691E-16
2.800000E+03	1.797908E-15	1.269528E-16
2.840000E+03	1.902911E-15	1.466312E-16
2.880000E+03	2.010702E-15	1.659002E-16
2.920000E+03	2.121455E-15	1.839700E-16
2.960000E+03	2.235181E-15	2.001075E-16
3.000000E+03	2.352142E-15	2.136621E-16
3.010000E+03	2.381848E-15	2.165704E-16
3.020000E+03	2.411720E-15	2.192664E-16
3.030000E+03	2.441833E-15	2.217482E-16
3.040000E+03	2.472090E-15	2.239990E-16
3.050000E+03	2.502568E-15	2.260175E-16
3.060000E+03	2.533173E-15	2.277877E-16
3.070000E+03	2.563979E-15	2.293092E-16
3.080000E+03	2.594978E-15	2.305743E-16
3.090000E+03	2.626079E-15	2.315687E-16
3.100000E+03	2.657275E-15	2.322858E-16
3.110000E+03	2.688643E-15	2.327273E-16
3.120000E+03	2.720176E-15	2.328878E-16
3.130000E+03	2.751789E-15	2.327556E-16
3.140000E+03	2.783559E-15	2.323340E-16
3.150000E+03	2.815404E-15	2.316132E-16
3.160000E+03	2.847323E-15	2.305911E-16
3.170000E+03	2.879398E-15	2.292732E-16
3.180000E+03	2.911552E-15	2.276526E-16
3.190000E+03	2.943789E-15	2.257303E-16
3.200000E+03	2.976118E-15	2.235082E-16
3.210000E+03	3.008546E-15	2.209895E-16
3.220000E+03	3.041088E-15	2.181784E-16
3.230000E+03	3.073757E-15	2.150805E-16
3.240000E+03	3.106494E-15	2.116974E-16
3.250000E+03	3.139399E-15	2.080433E-16
3.260000E+03	3.172340E-15	2.041181E-16
3.270000E+03	3.205582E-15	1.999492E-16
3.280000E+03	3.238925E-15	1.955355E-16
3.290000E+03	3.272408E-15	1.908937E-16
3.300000E+03	3.306228E-15	1.860513E-16
3.310000E+03	3.340280E-15	1.810205E-16
3.320000E+03	3.374694E-15	1.758293E-16
3.330000E+03	3.409378E-15	1.704969E-16
3.340000E+03	3.444548E-15	1.650618E-16
3.350000E+03	3.480126E-15	1.595513E-16
3.360000E+03	3.516265E-15	1.540085E-16
3.370000E+03	3.552971E-15	1.484742E-16
3.380000E+03	3.590410E-15	1.430018E-16
3.390000E+03	3.628601E-15	1.376441E-16
3.400000E+03	3.667642E-15	1.324638E-16
3.410000E+03	3.707561E-15	1.275270E-16
3.420000E+03	3.748609E-15	1.229136E-16
3.430000E+03	3.790668E-15	1.186947E-16
3.440000E+03	3.834057E-15	1.149569E-16
3.450000E+03	3.878647E-15	1.117692E-16
3.460000E+03	3.924661E-15	1.092012E-16
3.470000E+03	3.972009E-15	1.072953E-16
3.480000E+03	4.020864E-15	1.060762E-16
3.490000E+03	4.071149E-15	1.055325E-16
3.500000E+03	4.122752E-15	1.056250E-16
3.510000E+03	4.175676E-15	1.062964E-16
3.520000E+03	4.229898E-15	1.074762E-16
3.530000E+03	4.285156E-15	1.090838E-16
3.540000E+03	4.341316E-15	1.110445E-16
3.550000E+03	4.398382E-15	1.132942E-16
3.560000E+03	4.456067E-15	1.157706E-16
3.570000E+03	4.514237E-15	1.184254E-16
3.580000E+03	4.572855E-15	1.212215E-16
3.590000E+03	4.631774E-15	1.241257E-16
3.600000E+03	4.690968E-15	1.271126E-16
3.610000E+03	4.750463E-15	1.301606E-16
3.620000E+03	4.810183E-15	1.332468E-16
3.630000E+03	4.870370E-15	1.363585E-16
3.640000E+03	4.931047E-15	1.394782E-16
3.650000E+03	4.992143E-15	1.425874E-16
3.660000E+03	5.053840E-15	1.456770E-16
3.670000E+03	5.116046E-15	1.487321E-16
3.680000E+03	5.178608E-15	1.517381E-16
3.690000E+03	5.241459E-15	1.546848E-16
3.700000E+03	5.304256E-15	1.575559E-16
3.710000E+03	5.366838E-15	1.603421E-16
3.720000E+03	5.428879E-15	1.630306E-16
3.730000E+03	5.490132E-15	1.656125E-16
3.740000E+03	5.550462E-15	1.680832E-16
3.750000E+03	5.609500E-15	1.704323E-16
3.760000E+03	5.667336E-15	1.726639E-16
3.770000E+03	5.723951E-15	1.747795E-16
3.780000E+03	5.779520E-15	1.767871E-16
3.790000E+03	5.834272E-15	1.786966E-16
3.800000E+03	5.888626E-15	1.805240E-16
3.810000E+03	5.943180E-15	1.822906E-16
3.820000E+03	5.998381E-15	1.840133E-16
3.830000E+03	6.054942E-15	1.857169E-16
3.840000E+03	6.113431E-15	1.874217E-16
3.850000E+03	6.174455E-15	1.891494E-16
3.860000E+03	6.238615E-15	1.909214E-16
3.870000E+03	6.306182E-15	1.927494E-16
3.880000E+03	6.377426E-15	1.946458E-16
3.890000E+03	6.452524E-15	1.966205E-16
3.900000E+03	6.531315E-15	1.986736E-16
3.910000E+03	6.613588E-15	2.008046E-16
3.920000E+03	6.698630E-15	2.029983E-16
3.930000E+03	6.785988E-15	2.052475E-16
3.940000E+03	6.874653E-15	2.075281E-16
3.950000E+03	6.963610E-15	2.098153E-16
3.960000E+03	7.051721E-15	2.120794E-16
3.970000E+03	7.137837E-15	2.142887E-16
3.980000E+03	7.220529E-15	2.164009E-16
3.990000E+03	7.298595E-15	2.183775E-16
4.000000E+03	7.370715E-15	2.201738E-16
4.010000E+03	7.435731E-15	2.217468E-16
4.020000E+03	7.492684E-15	2.230563E-16
4.030000E+03	7.540612E-15	2.240598E-16
4.040000E+03	7.578820E-15	2.247205E-16
4.050000E+03	7.606819E-15	2.250068E-16
4.060000E+03	7.624268E-15	2.248910E-16
4.070000E+03	7.631214E-15	2.243572E-16
4.080000E+03	7.627863E-15	2.233952E-16
4.090000E+03	7.614579E-15	2.220008E-16
4.100000E+03	7.592023E-15	2.201803E-16
4.110000E+03	7.561145E-15	2.179493E-16
4.120000E+03	7.522930E-15	2.153258E-16
4.130000E+03	7.478602E-15	2.123347E-16
4.140000E+03	7.429523E-15	2.090047E-16
4.150000E+03	7.377150E-15	2.053657E-16
4.160000E+03	7.323074E-15	2.014495E-16
4.170000E+03	7.268686E-15	1.972796E-16
4.180000E+03	7.215563E-15	1.928811E-16
4.190000E+03	7.165132E-15	1.882715E-16
4.200000E+03	7.118760E-15	1.834629E-16
4.210000E+03	7.077442E-15	1.784534E-16
4.220000E+03	7.042235E-15	1.732397E-16
4.230000E+03	7.013686E-15	1.678023E-16
4.240000E+03	6.992344E-15	1.621206E-16
4.250000E+03	6.978284E-15	1.561621E-16
4.260000E+03	6.971370E-15	1.498923E-16
4.270000E+03	6.971265E-15	1.432775E-16
4.280000E+03	6.977195E-15	1.362852E-16
4.290000E+03	6.988500E-15	1.289012E-16
4.300000E+03	7.004036E-15	1.211261E-16
4.310000E+03	7.022743E-15	1.129973E-16
4.320000E+03	7.043388E-15	1.045997E-16
4.330000E+03	7.064890E-15	9.609145E-17
4.340000E+03	7.086143E-15	8.772914E-17
4.350000E+03	7.106333E-15	7.990482E-17
4.360000E+03	7.124822E-15	7.316963E-17
4.370000E+03	7.141131E-15	6.821305E-17
4.380000E+03	7.155346E-15	6.573167E-17
4.390000E+03	7.167741E-15	6.615686E-17
4.400000E+03	7.178758E-15	6.942109E-17
4.410000E+03	7.189340E-15	7.500228E-17
4.420000E+03	7.200432E-15	8.219109E-17
4.430000E+03	7.213224E-15	9.033828E-17
4.440000E+03	7.228871E-15	9.895199E-17
4.450000E+03	7.248456E-15	1.076980E-16
4.460000E+03	7.272833E-15	1.163635E-16
4.470000E+03	7.302733E-15	1.248234E-16
4.480000E+03	7.338504E-15	1.330073E-16
4.490000E+03	7.380066E-15	1.408774E-16
4.500000E+03	7.427011E-15	1.484152E-16
4.510000E+03	7.478479E-15	1.556089E-16
4.520000E+03	7.533376E-15	1.624499E-16
4.530000E+03	7.590166E-15	1.689243E-16
4.540000E+03	7.647071E-15	1.750133E-16
4.550000E+03	7.702162E-15	1.806934E-16
4.560000E+03	7.753593E-15	1.859414E-16
4.570000E+03	7.799455E-15	1.907303E-16
4.580000E+03	7.837951E-15	1.950334E-16
4.590000E+03	7.867700E-15	1.988324E-16
4.600000E+03	7.887700E-15	2.021168E-16
4.610000E+03	7.897331E-15	2.048849E-16
4.620000E+03	7.896405E-15	2.071446E-16
4.630000E+03	7.885308E-15	2.089186E-16
4.640000E+03	7.864990E-15	2.102437E-16
4.650000E+03	7.836790E-15	2.111671E-16
4.660000E+03	7.802361E-15	2.117443E-16
4.670000E+03	7.763718E-15	2.120406E-16
4.680000E+03	7.723132E-15	2.121284E-16
4.690000E+03	7.682757E-15	2.120775E-16
4.700000E+03	7.644908E-15	2.119621E-16
4.710000E+03	7.611699E-15	2.118509E-16
4.720000E+03	7.585065E-15	2.118083E-16
4.730000E+03	7.566618E-15	2.118892E-16
4.740000E+03	7.557574E-15	2.121375E-16
4.750000E+03	7.558884E-15	2.125894E-16
4.760000E+03	7.570823E-15	2.132618E-16
4.770000E+03	7.593346E-15	2.141620E-16
4.780000E+03	7.625709E-15	2.152773E-16
4.790000E+03	7.666874E-15	2.165861E-16
4.800000E+03	7.715167E-15	2.180487E-16
4.810000E+03	7.768725E-15	2.196195E-16
4.820000E+03	7.825132E-15	2.212372E-16
4.830000E+03	7.882042E-15	2.228425E-16
4.840000E+03	7.936905E-15	2.243696E-16
4.850000E+03	7.987081E-15	2.257504E-16
4.860000E+03	8.030371E-15	2.269283E-16
4.870000E+03	8.064655E-15	2.278483E-16
4.880000E+03	8.088253E-15	2.284670E-16
4.890000E+03	8.099924E-15	2.287522E-16
4.900000E+03	8.098828E-15	2.286820E-16
4.910000E+03	8.084676E-15	2.282487E-16
4.920000E+03	8.057563E-15	2.274545E-16
4.930000E+03	8.018060E-15	2.263145E-16
4.940000E+03	7.967082E-15	2.248528E-16
4.950000E+03	7.905680E-15	2.230969E-16
4.960000E+03	7.835378E-15	2.210879E-16
4.970000E+03	7.757491E-15	2.188605E-16
4.980000E+03	7.673608E-15	2.164576E-16
4.990000E+03	7.585344E-15	2.139225E-16
5.000000E+03	7.494290E-15	2.112981E-16
5.010000E+03	7.401790E-15	2.086198E-16
5.020000E+03	7.309443E-15	2.059303E-16
5.030000E+03	7.218491E-15	2.032616E-16
5.040000E+03	7.130133E-15	2.006443E-16
5.050000E+03	7.045569E-15	1.981090E-16
5.060000E+03	6.965609E-15	1.956749E-16
5.070000E+03	6.891172E-15	1.933640E-16
5.080000E+03	6.822894E-15	1.911904E-16
5.090000E+03	6.761192E-15	1.891618E-16
5.100000E+03	6.706568E-15	1.872878E-16
5.110000E+03	6.658996E-15	1.855630E-16
5.120000E+03	6.618665E-15	1.839871E-16
5.130000E+03	6.585377E-15	1.825481E-16
5.140000E+03	6.558863E-15	1.812310E-16
5.150000E+03	6.538801E-15	1.800180E-16
5.160000E+03	6.524712E-15	1.788854E-16
5.170000E+03	6.516037E-15	1.778061E-16
5.180000E+03	6.512161E-15	1.767499E-16
5.190000E+03	6.512489E-15	1.756865E-16
5.200000E+03	6.516346E-15	1.745822E-16
5.210000E+03	6.523053E-15	1.734027E-16
5.220000E+03	6.531938E-15	1.721138E-16
5.230000E+03	6.542416E-15	1.706836E-16
5.240000E+03	6.553813E-15	1.690780E-16
5.250000E+03	6.565619E-15	1.672676E-16
5.260000E+03	6.577373E-15	1.652250E-16
5.270000E+03	6.588478E-15	1.629201E-16
5.280000E+03	6.598649E-15	1.603316E-16
5.290000E+03	6.607465E-15	1.574360E-16
5.300000E+03	6.614697E-15	1.542165E-16
5.310000E+03	6.620108E-15	1.506581E-16
5.320000E+03	6.623523E-15	1.467504E-16
5.330000E+03	6.624819E-15	1.424883E-16
5.340000E+03	6.623929E-15	1.378736E-16
5.350000E+03	6.620831E-15	1.329156E-16
5.360000E+03	6.615614E-15	1.276347E-16
5.370000E+03	6.608269E-15	1.220604E-16
5.380000E+03	6.598880E-15	1.162370E-16
5.390000E+03	6.587616E-15	1.102257E-16
5.400000E+03	6.574527E-15	1.041039E-16
5.410000E+03	6.559736E-15	9.796991E-17
5.420000E+03	6.543373E-15	9.194360E-17
5.430000E+03	6.525572E-15	8.616809E-17
5.440000E+03	6.506547E-15	8.081477E-17
5.450000E+03	6.486391E-15	7.608885E-17
5.460000E+03	6.465265E-15	7.223891E-17
5.470000E+03	6.443327E-15	6.954600E-17
5.480000E+03	6.420653E-15	6.827740E-17
5.490000E+03	6.397368E-15	6.860703E-17
5.500000E+03	6.373511E-15	7.053700E-17
5.510000E+03	6.349170E-15	7.388305E-17
5.520000E+03	6.324418E-15	7.833301E-17
5.530000E+03	6.299311E-15	8.353547E-17
5.540000E+03	6.273833E-15	8.916661E-17
5.550000E+03	6.248019E-15	9.496296E-17
5.560000E+03	6.221963E-15	1.007264E-16
5.570000E+03	6.195567E-15	1.063124E-16
5.580000E+03	6.168857E-15	1.116236E-16
5.590000E+03	6.141860E-15	1.165973E-16
5.600000E+03	6.114545E-15	1.211956E-16
5.610000E+03	6.087013E-15	1.254024E-16
5.620000E+03	6.059250E-15	1.292129E-16
5.630000E+03	6.031263E-15	1.326330E-16
5.640000E+03	6.003201E-15	1.356786E-16
5.650000E+03	5.975058E-15	1.383672E-16
5.660000E+03	5.947040E-15	1.407248E-16
5.670000E+03	5.919265E-15	1.427772E-16
5.680000E+03	5.891939E-15	1.445537E-16
5.690000E+03	5.865300E-15	1.460845E-16
5.700000E+03	5.839486E-15	1.473975E-16
5.710000E+03	5.814886E-15	1.485261E-16
5.720000E+03	5.791655E-15	1.494965E-16
5.730000E+03	5.770059E-15	1.503367E-16
5.740000E+03	5.750340E-15	1.510726E-16
5.750000E+03	5.732652E-15	1.517260E-16
5.760000E+03	5.717161E-15	1.523172E-16
5.770000E+03	5.703986E-15	1.528636E-16
5.780000E+03	5.693132E-15	1.533774E-16
5.790000E+03	5.684605E-15	1.538689E-16
5.800000E+03	5.678359E-15	1.543447E-16
5.810000E+03	5.674297E-15	1.548080E-16
5.820000E+03	5.672168E-15	1.552553E-16
5.830000E+03	5.671867E-15	1.556850E-16
5.840000E+03	5.673154E-15	1.560894E-16
5.850000E+03	5.675900E-15	1.564622E-16
5.860000E+03	5.679806E-15	1.567908E-16
5.870000E+03	5.684764E-15	1.570667E-16
5.880000E+03	5.690568E-15	1.572780E-16
5.890000E+03	5.697095E-15	1.574152E-16
5.900000E+03	5.704247E-15	1.574696E-16
5.910000E+03	5.711894E-15	1.574322E-16
5.920000E+03	5.719981E-15	1.572970E-16
5.930000E+03	5.728531E-15	1.570605E-16
5.940000E+03	5.737399E-15	1.567152E-16
5.950000E+03	5.746562E-15	1.562569E-16
5.960000E+03	5.756058E-15	1.556828E-16
5.970000E+03	5.765800E-15	1.549858E-16
5.980000E+03	5.775750E-15	1.541588E-16
5.990000E+03	5.785800E-15	1.531913E-16
6.000000E+03	5.796011E-15	1.520757E-16
6.010000E+03	5.806186E-15	1.507954E-16
6.020000E+03	5.816296E-15	1.493365E-16
6.030000E+03	5.826238E-15	1.476815E-16
6.040000E+03	5.835764E-15	1.458081E-16
6.050000E+03	5.844928E-15	1.437003E-16
6.060000E+03	5.853449E-15	1.413338E-16
6.070000E+03	5.861219E-15	1.386884E-16
6.080000E+03	5.868045E-15	1.357434E-16
6.090000E+03	5.873709E-15	1.324795E-16
6.100000E+03	5.877966E-15	1.288801E-16
6.110000E+03	5.880607E-15	1.249348E-16
6.120000E+03	5.881260E-15	1.206368E-16
6.130000E+03	5.879647E-15	1.159916E-16
6.140000E+03	5.875459E-15	1.110175E-16
6.150000E+03	5.868287E-15	1.057493E-16
6.160000E+03	5.857701E-15	1.002453E-16
6.170000E+03	5.843317E-15	9.459617E-17
6.180000E+03	5.824684E-15	8.893071E-17
6.190000E+03	5.801369E-15	8.342543E-17
6.200000E+03	5.773043E-15	7.830999E-17
6.210000E+03	5.739318E-15	7.385830E-17
6.220000E+03	5.700047E-15	7.036481E-17
6.230000E+03	5.655231E-15	6.808538E-17
6.240000E+03	5.604999E-15	6.715938E-17
6.250000E+03	5.549756E-15	6.755217E-17
6.260000E+03	5.489998E-15	6.905515E-17
6.270000E+03	5.426596E-15	7.135514E-17
6.280000E+03	5.360374E-15	7.411362E-17
6.290000E+03	5.292382E-15	7.703153E-17
6.300000E+03	5.223672E-15	7.987315E-17
6.310000E+03	5.155337E-15	8.246915E-17
6.320000E+03	5.088616E-15	8.470945E-17
6.330000E+03	5.024505E-15	8.652473E-17
6.340000E+03	4.964239E-15	8.788268E-17
6.350000E+03	4.908965E-15	8.877298E-17
6.360000E+03	4.859604E-15	8.919676E-17
6.370000E+03	4.817253E-15	8.916797E-17
6.380000E+03	4.782857E-15	8.870299E-17
6.390000E+03	4.757061E-15	8.781482E-17
6.400000E+03	4.740609E-15	8.651849E-17
6.410000E+03	4.733896E-15	8.482233E-17
6.420000E+03	4.737249E-15	8.273384E-17
6.430000E+03	4.750733E-15	8.025858E-17
6.440000E+03	4.774140E-15	7.740461E-17
6.450000E+03	4.807229E-15	7.419357E-17
6.460000E+03	4.849361E-15	7.066528E-17
6.470000E+03	4.899805E-15	6.689794E-17
6.480000E+03	4.957689E-15	6.302755E-17
6.490000E+03	5.021671E-15	5.926887E-17
6.500000E+03	5.090536E-15	5.594585E-17
6.510000E+03	5.162557E-15	5.348434E-17
6.520000E+03	5.236148E-15	5.236256E-17
6.530000E+03	5.309475E-15	5.296983E-17
6.540000E+03	5.380893E-15	5.545048E-17
6.550000E+03	5.448788E-15	5.964442E-17
6.560000E+03	5.511581E-15	6.517886E-17
6.570000E+03	5.567945E-15	7.161672E-17
6.580000E+03	5.616592E-15	7.855465E-17
6.590000E+03	5.656382E-15	8.566177E-17
6.600000E+03	5.686380E-15	9.268175E-17
6.610000E+03	5.705822E-15	9.942118E-17
6.620000E+03	5.714393E-15	1.057419E-16
6.630000E+03	5.712007E-15	1.115473E-16
6.640000E+03	5.698881E-15	1.167762E-16
6.650000E+03	5.675432E-15	1.213945E-16
6.660000E+03	5.642482E-15	1.253954E-16
6.670000E+03	5.600886E-15	1.287880E-16
6.680000E+03	5.551727E-15	1.315982E-16
6.690000E+03	5.496258E-15	1.338653E-16
6.700000E+03	5.435525E-15	1.356306E-16
6.710000E+03	5.370895E-15	1.369485E-16
6.720000E+03	5.303445E-15	1.378695E-16
6.730000E+03	5.234181E-15	1.384445E-16
6.740000E+03	5.164248E-15	1.387288E-16
6.750000E+03	5.094370E-15	1.387672E-16
6.760000E+03	5.025312E-15	1.386047E-16
6.770000E+03	4.957801E-15	1.382844E-16
6.780000E+03	4.892296E-15	1.378411E-16
6.790000E+03	4.829233E-15	1.373072E-16
6.800000E+03	4.768949E-15	1.367108E-16
6.810000E+03	4.711696E-15	1.360762E-16
6.820000E+03	4.657653E-15	1.354236E-16
6.830000E+03	4.606858E-15	1.347681E-16
6.840000E+03	4.559439E-15	1.341257E-16
6.850000E+03	4.515329E-15	1.335054E-16
6.860000E+03	4.474563E-15	1.329181E-16
6.870000E+03	4.436997E-15	1.323680E-16
6.880000E+03	4.402455E-15	1.318577E-16
6.890000E+03	4.370944E-15	1.313942E-16
6.900000E+03	4.342170E-15	1.309745E-16
6.910000E+03	4.316027E-15	1.306007E-16
6.920000E+03	4.292258E-15	1.302696E-16
6.930000E+03	4.270731E-15	1.299812E-16
6.940000E+03	4.251171E-15	1.297307E-16
6.950000E+03	4.233368E-15	1.295146E-16
6.960000E+03	4.217113E-15	1.293292E-16
6.970000E+03	4.202206E-15	1.291704E-16
6.980000E+03	4.188382E-15	1.290322E-16
6.990000E+03	4.175529E-15	1.289126E-16
7.000000E+03	4.163480E-15	1.288079E-16
7.010000E+03	4.152084E-15	1.287145E-16
7.020000E+03	4.141071E-15	1.286250E-16
7.030000E+03	4.130464E-15	1.285410E-16
7.040000E+03	4.120100E-15	1.284579E-16
7.050000E+03	4.109902E-15	1.283738E-16
7.060000E+03	4.099811E-15	1.282873E-16
7.070000E+03	4.089785E-15	1.281973E-16
7.080000E+03	4.079727E-15	1.281007E-16
7.090000E+03	4.069689E-15	1.279993E-16
7.100000E+03	4.059670E-15	1.278929E-16
7.110000E+03	4.049606E-15	1.277792E-16
7.120000E+03	4.039510E-15	1.276582E-16
7.130000E+03	4.029473E-15	1.275323E-16
7.140000E+03	4.019450E-15	1.273994E-16
7.150000E+03	4.009468E-15	1.272599E-16
7.160000E+03	3.999628E-15	1.271160E-16
7.170000E+03	3.989821E-15	1.269635E-16
7.180000E+03	3.980214E-15	1.268067E-16
7.190000E+03	3.970695E-15	1.266410E-16
7.200000E+03	3.961356E-15	1.264684E-16
7.210000E+03	3.952285E-15	1.262904E-16
7.220000E+03	3.943356E-15	1.261017E-16
7.230000E+03	3.934574E-15	1.259012E-16
7.240000E+03	3.926077E-15	1.256915E-16
7.250000E+03	3.917721E-15	1.254663E-16
7.260000E+03	3.909560E-15	1.252253E-16
7.270000E+03	3.901577E-15	1.249653E-16
7.280000E+03	3.893746E-15	1.246829E-16
7.290000E+03	3.885969E-15	1.243714E-16
7.300000E+03	3.878286E-15	1.240280E-16
7.310000E+03	3.870664E-15	1.236468E-16
7.320000E+03	3.862999E-15	1.232187E-16
7.330000E+03	3.855328E-15	1.227377E-16
7.340000E+03	3.847691E-15	1.221968E-16
7.350000E+03	3.839919E-15	1.215804E-16
7.360000E+03	3.832058E-15	1.208780E-16
7.370000E+03	3.824086E-15	1.200751E-16
7.380000E+03	3.815988E-15	1.191550E-16
7.390000E+03	3.807751E-15	1.180992E-16
7.400000E+03	3.799440E-15	1.168893E-16
7.410000E+03	3.790981E-15	1.155008E-16
7.420000E+03	3.782378E-15	1.139100E-16
7.430000E+03	3.773705E-15	1.120946E-16
7.440000E+03	3.764973E-15	1.100299E-16
7.450000E+03	3.756121E-15	1.076897E-16
7.460000E+03	3.747307E-15	1.050555E-16
7.470000E+03	3.738399E-15	1.021035E-16
7.480000E+03	3.729556E-15	9.882186E-17
7.490000E+03	3.720646E-15	9.519644E-17
7.500000E+03	3.711679E-15	9.122459E-17
7.510000E+03	3.702806E-15	8.691684E-17
7.520000E+03	3.693883E-15	8.228959E-17
7.530000E+03	3.684908E-15	7.738013E-17
7.540000E+03	3.675940E-15	7.225053E-17
7.550000E+03	3.666888E-15	6.699185E-17
7.560000E+03	3.657797E-15	6.174217E-17
7.570000E+03	3.648557E-15	5.669689E-17
7.580000E+03	3.639126E-15	5.212919E-17
7.590000E+03	3.629533E-15	4.839521E-17
7.600000E+03	3.619591E-15	4.589958E-17
7.610000E+03	3.609493E-15	4.500822E-17
7.620000E+03	3.599021E-15	4.589745E-17
7.630000E+03	3.588349E-15	4.847944E-17
7.640000E+03	3.577458E-15	5.244840E-17
7.650000E+03	3.566489E-15	5.742069E-17
7.660000E+03	3.555515E-15	6.303947E-17
7.670000E+03	3.544531E-15	6.901696E-17
7.680000E+03	3.533599E-15	7.513753E-17
7.690000E+03	3.522844E-15	8.124414E-17
7.700000E+03	3.512307E-15	8.722005E-17
7.710000E+03	3.502021E-15	9.297785E-17
7.720000E+03	3.492010E-15	9.845066E-17
7.730000E+03	3.482290E-15	1.035861E-16
7.740000E+03	3.472799E-15	1.083398E-16
7.750000E+03	3.463689E-15	1.126817E-16
7.760000E+03	3.454886E-15	1.165807E-16
