#wls	flux	fluxerr
1.600000E+03	1.699881E-16	6.852960E-17
1.640000E+03	1.714513E-16	6.702098E-17
1.680000E+03	1.729993E-16	6.555923E-17
1.720000E+03	1.747903E-16	6.420799E-17
1.760000E+03	1.768458E-16	6.297543E-17
1.800000E+03	1.791186E-16	6.184583E-17
1.840000E+03	1.816361E-16	6.083107E-17
1.880000E+03	1.845758E-16	5.999101E-17
1.920000E+03	1.878286E-16	5.928867E-17
1.960000E+03	1.915819E-16	5.878237E-17
2.000000E+03	1.958067E-16	5.845956E-17
2.040000E+03	2.006258E-16	5.835281E-17
2.080000E+03	2.060911E-16	5.847050E-17
2.120000E+03	2.121786E-16	5.879781E-17
2.160000E+03	2.190962E-16	5.938228E-17
2.200000E+03	2.268196E-16	6.020379E-17
2.240000E+03	2.353980E-16	6.126110E-17
2.280000E+03	2.449575E-16	6.257093E-17
2.320000E+03	2.555375E-16	6.412521E-17
2.360000E+03	2.671673E-16	6.591221E-17
2.400000E+03	2.798639E-16	6.791660E-17
2.440000E+03	2.936300E-16	7.011947E-17
2.480000E+03	3.084528E-16	7.249824E-17
2.520000E+03	3.244926E-16	7.507023E-17
2.560000E+03	3.416187E-16	7.778291E-17
2.600000E+03	3.597740E-16	8.059922E-17
2.640000E+03	3.791893E-16	8.354074E-17
2.680000E+03	3.995876E-16	8.650705E-17
2.720000E+03	4.210827E-16	8.947469E-17
2.760000E+03	4.436831E-16	9.238617E-17
2.800000E+03	4.673906E-16	9.517285E-17
2.840000E+03	4.920890E-16	9.773394E-17
2.880000E+03	5.178720E-16	1.000043E-16
2.920000E+03	5.447151E-16	1.018893E-16
2.960000E+03	5.725796E-16	1.032887E-16
3.000000E+03	6.016397E-16	1.041403E-16
3.010000E+03	6.090340E-16	1.042467E-16
3.020000E+03	6.165887E-16	1.043262E-16
3.030000E+03	6.240701E-16	1.043380E-16
3.040000E+03	6.317053E-16	1.043191E-16
3.050000E+03	6.394908E-16	1.042672E-16
3.060000E+03	6.471920E-16	1.041427E-16
3.070000E+03	6.550358E-16	1.039815E-16
3.080000E+03	6.630184E-16	1.037815E-16
3.090000E+03	6.710200E-16	1.035226E-16
3.100000E+03	6.791517E-16	1.032212E-16
3.110000E+03	6.872935E-16	1.028579E-16
3.120000E+03	6.954407E-16	1.024318E-16
3.130000E+03	7.038193E-16	1.019753E-16
3.140000E+03	7.121932E-16	1.014530E-16
3.150000E+03	7.205572E-16	1.008643E-16
3.160000E+03	7.291364E-16	1.002404E-16
3.170000E+03	7.376945E-16	9.954816E-17
3.180000E+03	7.464555E-16	9.881782E-17
3.190000E+03	7.551834E-16	9.801786E-17
3.200000E+03	7.639865E-16	9.716316E-17
3.210000E+03	7.729725E-16	9.626758E-17
3.220000E+03	7.819056E-16	9.530217E-17
3.230000E+03	7.910070E-16	9.429522E-17
3.240000E+03	8.000415E-16	9.321968E-17
3.250000E+03	8.093422E-16	9.211600E-17
3.260000E+03	8.185607E-16	9.094559E-17
3.270000E+03	8.279154E-16	8.973537E-17
3.280000E+03	8.372851E-16	8.847431E-17
3.290000E+03	8.467734E-16	8.717622E-17
3.300000E+03	8.563713E-16	8.584281E-17
3.310000E+03	8.659581E-16	8.446544E-17
3.320000E+03	8.756365E-16	8.305832E-17
3.330000E+03	8.853969E-16	8.162464E-17
3.340000E+03	8.952302E-16	8.016817E-17
3.350000E+03	9.051271E-16	7.869321E-17
3.360000E+03	9.150788E-16	7.720463E-17
3.370000E+03	9.250768E-16	7.570785E-17
3.380000E+03	9.352209E-16	7.421738E-17
3.390000E+03	9.453949E-16	7.273050E-17
3.400000E+03	9.555922E-16	7.125413E-17
3.410000E+03	9.659136E-16	6.980323E-17
3.420000E+03	9.763531E-16	6.838455E-17
3.430000E+03	9.869064E-16	6.700501E-17
3.440000E+03	9.974664E-16	6.566481E-17
3.450000E+03	1.008242E-15	6.438490E-17
3.460000E+03	1.019129E-15	6.316494E-17
3.470000E+03	1.030132E-15	6.201135E-17
3.480000E+03	1.041259E-15	6.093007E-17
3.490000E+03	1.052619E-15	5.993223E-17
3.500000E+03	1.064224E-15	5.902196E-17
3.510000E+03	1.075989E-15	5.819741E-17
3.520000E+03	1.088129E-15	5.747249E-17
3.530000E+03	1.100466E-15	5.683894E-17
3.540000E+03	1.113221E-15	5.630895E-17
3.550000E+03	1.126319E-15	5.587872E-17
3.560000E+03	1.139885E-15	5.555396E-17
3.570000E+03	1.153946E-15	5.533491E-17
3.580000E+03	1.168436E-15	5.521686E-17
3.590000E+03	1.183483E-15	5.520365E-17
3.600000E+03	1.199212E-15	5.529802E-17
3.610000E+03	1.215468E-15	5.548872E-17
3.620000E+03	1.232562E-15	5.578530E-17
3.630000E+03	1.250244E-15	5.617095E-17
3.640000E+03	1.268823E-15	5.665368E-17
3.650000E+03	1.288231E-15	5.722436E-17
3.660000E+03	1.308397E-15	5.787379E-17
3.670000E+03	1.329526E-15	5.860487E-17
3.680000E+03	1.351538E-15	5.940821E-17
3.690000E+03	1.374536E-15	6.028249E-17
3.700000E+03	1.398525E-15	6.122243E-17
3.710000E+03	1.423418E-15	6.221891E-17
3.720000E+03	1.449306E-15	6.327099E-17
3.730000E+03	1.476280E-15	6.437793E-17
3.740000E+03	1.504252E-15	6.553158E-17
3.750000E+03	1.533229E-15	6.672821E-17
3.760000E+03	1.563312E-15	6.796862E-17
3.770000E+03	1.594527E-15	6.925041E-17
3.780000E+03	1.626906E-15	7.057196E-17
3.790000E+03	1.660502E-15	7.193249E-17
3.800000E+03	1.695466E-15	7.333595E-17
3.810000E+03	1.731791E-15	7.477935E-17
3.820000E+03	1.769572E-15	7.626429E-17
3.830000E+03	1.809005E-15	7.779676E-17
3.840000E+03	1.850201E-15	7.937920E-17
3.850000E+03	1.893365E-15	8.101793E-17
3.860000E+03	1.938423E-15	8.270748E-17
3.870000E+03	1.985644E-15	8.445702E-17
3.880000E+03	2.035001E-15	8.626312E-17
3.890000E+03	2.086612E-15	8.812855E-17
3.900000E+03	2.140455E-15	9.005035E-17
3.910000E+03	2.196363E-15	9.201954E-17
3.920000E+03	2.254377E-15	9.403609E-17
3.930000E+03	2.314102E-15	9.608193E-17
3.940000E+03	2.375440E-15	9.815145E-17
3.950000E+03	2.437943E-15	1.002247E-16
3.960000E+03	2.501277E-15	1.022864E-16
3.970000E+03	2.564864E-15	1.043112E-16
3.980000E+03	2.628162E-15	1.062751E-16
3.990000E+03	2.690685E-15	1.081560E-16
4.000000E+03	2.751827E-15	1.099263E-16
4.010000E+03	2.810972E-15	1.115578E-16
4.020000E+03	2.867412E-15	1.130183E-16
4.030000E+03	2.920653E-15	1.142837E-16
4.040000E+03	2.970142E-15	1.153276E-16
4.050000E+03	3.015378E-15	1.161260E-16
4.060000E+03	3.055833E-15	1.166541E-16
4.070000E+03	3.091245E-15	1.168984E-16
4.080000E+03	3.121348E-15	1.168461E-16
4.090000E+03	3.145973E-15	1.164894E-16
4.100000E+03	3.164885E-15	1.158191E-16
4.110000E+03	3.178406E-15	1.148481E-16
4.120000E+03	3.186449E-15	1.135749E-16
4.130000E+03	3.189477E-15	1.120190E-16
4.140000E+03	3.187733E-15	1.101919E-16
4.150000E+03	3.181820E-15	1.081179E-16
4.160000E+03	3.172356E-15	1.058208E-16
4.170000E+03	3.159969E-15	1.033235E-16
4.180000E+03	3.145437E-15	1.006523E-16
4.190000E+03	3.129588E-15	9.783256E-17
4.200000E+03	3.113203E-15	9.488584E-17
4.210000E+03	3.097212E-15	9.183521E-17
4.220000E+03	3.082308E-15	8.869365E-17
4.230000E+03	3.069283E-15	8.547420E-17
4.240000E+03	3.058917E-15	8.218677E-17
4.250000E+03	3.051638E-15	7.882940E-17
4.260000E+03	3.048088E-15	7.540464E-17
4.270000E+03	3.048588E-15	7.190646E-17
4.280000E+03	3.053268E-15	6.832628E-17
4.290000E+03	3.062302E-15	6.466104E-17
4.300000E+03	3.075541E-15	6.090881E-17
4.310000E+03	3.092885E-15	5.708222E-17
4.320000E+03	3.113929E-15	5.320908E-17
4.330000E+03	3.138282E-15	4.934919E-17
4.340000E+03	3.165461E-15	4.560623E-17
4.350000E+03	3.194759E-15	4.214251E-17
4.360000E+03	3.225673E-15	3.919798E-17
4.370000E+03	3.257554E-15	3.707760E-17
4.380000E+03	3.290008E-15	3.610195E-17
4.390000E+03	3.322560E-15	3.649469E-17
4.400000E+03	3.355097E-15	3.828392E-17
4.410000E+03	3.387653E-15	4.129456E-17
4.420000E+03	3.420379E-15	4.524284E-17
4.430000E+03	3.453657E-15	4.984302E-17
4.440000E+03	3.487884E-15	5.486114E-17
4.450000E+03	3.523428E-15	6.012605E-17
4.460000E+03	3.560747E-15	6.552306E-17
4.470000E+03	3.600144E-15	7.097670E-17
4.480000E+03	3.641890E-15	7.644087E-17
4.490000E+03	3.686204E-15	8.188931E-17
4.500000E+03	3.733168E-15	8.730712E-17
4.510000E+03	3.782613E-15	9.268254E-17
4.520000E+03	3.834367E-15	9.800915E-17
4.530000E+03	3.887998E-15	1.032767E-16
4.540000E+03	3.942976E-15	1.084734E-16
4.550000E+03	3.998589E-15	1.135817E-16
4.560000E+03	4.054187E-15	1.185849E-16
4.570000E+03	4.108786E-15	1.234551E-16
4.580000E+03	4.161654E-15	1.281697E-16
4.590000E+03	4.211923E-15	1.327007E-16
4.600000E+03	4.258803E-15	1.370208E-16
4.610000E+03	4.301784E-15	1.411107E-16
4.620000E+03	4.340298E-15	1.449485E-16
4.630000E+03	4.374129E-15	1.485237E-16
4.640000E+03	4.403210E-15	1.518312E-16
4.650000E+03	4.427633E-15	1.548717E-16
4.660000E+03	4.447860E-15	1.576595E-16
4.670000E+03	4.464322E-15	1.602089E-16
4.680000E+03	4.477829E-15	1.625483E-16
4.690000E+03	4.489147E-15	1.647061E-16
4.700000E+03	4.499289E-15	1.667200E-16
4.710000E+03	4.509139E-15	1.686238E-16
4.720000E+03	4.519624E-15	1.704531E-16
4.730000E+03	4.531721E-15	1.722457E-16
4.740000E+03	4.546254E-15	1.740335E-16
4.750000E+03	4.563802E-15	1.758390E-16
4.760000E+03	4.584937E-15	1.776838E-16
4.770000E+03	4.609928E-15	1.795781E-16
4.780000E+03	4.638938E-15	1.815274E-16
4.790000E+03	4.671852E-15	1.835268E-16
4.800000E+03	4.708223E-15	1.855587E-16
4.810000E+03	4.747489E-15	1.876016E-16
4.820000E+03	4.788774E-15	1.896229E-16
4.830000E+03	4.831128E-15	1.915880E-16
4.840000E+03	4.873347E-15	1.934543E-16
4.850000E+03	4.914121E-15	1.951762E-16
4.860000E+03	4.952195E-15	1.967122E-16
4.870000E+03	4.986210E-15	1.980175E-16
4.880000E+03	5.014925E-15	1.990530E-16
4.890000E+03	5.037220E-15	1.997846E-16
4.900000E+03	5.052096E-15	2.001824E-16
4.910000E+03	5.058827E-15	2.002264E-16
4.920000E+03	5.056937E-15	1.999046E-16
4.930000E+03	5.046266E-15	1.992158E-16
4.940000E+03	5.026757E-15	1.981605E-16
4.950000E+03	4.998822E-15	1.967555E-16
4.960000E+03	4.962880E-15	1.950163E-16
4.970000E+03	4.919760E-15	1.929727E-16
4.980000E+03	4.870233E-15	1.906517E-16
4.990000E+03	4.815396E-15	1.880926E-16
5.000000E+03	4.756272E-15	1.853318E-16
5.010000E+03	4.693983E-15	1.824101E-16
5.020000E+03	4.629719E-15	1.793716E-16
5.030000E+03	4.564609E-15	1.762588E-16
5.040000E+03	4.499707E-15	1.731119E-16
5.050000E+03	4.436111E-15	1.699734E-16
5.060000E+03	4.374851E-15	1.668833E-16
5.070000E+03	4.316775E-15	1.638748E-16
5.080000E+03	4.262727E-15	1.609805E-16
5.090000E+03	4.213434E-15	1.582281E-16
5.100000E+03	4.169370E-15	1.556349E-16
5.110000E+03	4.131052E-15	1.532189E-16
5.120000E+03	4.098770E-15	1.509887E-16
5.130000E+03	4.072675E-15	1.489461E-16
5.140000E+03	4.052824E-15	1.470887E-16
5.150000E+03	4.039057E-15	1.454046E-16
5.160000E+03	4.031172E-15	1.438797E-16
5.170000E+03	4.028862E-15	1.424945E-16
5.180000E+03	4.031681E-15	1.412244E-16
5.190000E+03	4.039111E-15	1.400412E-16
5.200000E+03	4.050582E-15	1.389147E-16
5.210000E+03	4.065533E-15	1.378152E-16
5.220000E+03	4.083312E-15	1.367099E-16
5.230000E+03	4.103445E-15	1.355727E-16
5.240000E+03	4.125281E-15	1.343725E-16
5.250000E+03	4.148339E-15	1.330851E-16
5.260000E+03	4.172152E-15	1.316881E-16
5.270000E+03	4.196362E-15	1.301643E-16
5.280000E+03	4.220592E-15	1.284980E-16
5.290000E+03	4.244703E-15	1.266827E-16
5.300000E+03	4.268363E-15	1.247083E-16
5.310000E+03	4.291556E-15	1.225768E-16
5.320000E+03	4.314096E-15	1.202878E-16
5.330000E+03	4.336015E-15	1.178504E-16
5.340000E+03	4.357287E-15	1.152757E-16
5.350000E+03	4.377911E-15	1.125799E-16
5.360000E+03	4.397859E-15	1.097839E-16
5.370000E+03	4.417289E-15	1.069196E-16
5.380000E+03	4.436146E-15	1.040212E-16
5.390000E+03	4.454506E-15	1.011344E-16
5.400000E+03	4.472400E-15	9.831314E-17
5.410000E+03	4.489845E-15	9.562015E-17
5.420000E+03	4.506883E-15	9.312655E-17
5.430000E+03	4.523428E-15	9.090588E-17
5.440000E+03	4.539483E-15	8.903457E-17
5.450000E+03	4.554815E-15	8.758103E-17
5.460000E+03	4.569328E-15	8.660874E-17
5.470000E+03	4.582717E-15	8.616485E-17
5.480000E+03	4.594756E-15	8.628029E-17
5.490000E+03	4.605272E-15	8.696322E-17
5.500000E+03	4.614061E-15	8.819358E-17
5.510000E+03	4.620992E-15	8.992532E-17
5.520000E+03	4.625931E-15	9.209019E-17
5.530000E+03	4.628798E-15	9.460727E-17
5.540000E+03	4.629622E-15	9.739274E-17
5.550000E+03	4.628361E-15	1.003632E-16
5.560000E+03	4.625218E-15	1.034470E-16
5.570000E+03	4.620267E-15	1.065794E-16
5.580000E+03	4.613761E-15	1.097095E-16
5.590000E+03	4.605933E-15	1.127966E-16
5.600000E+03	4.596982E-15	1.158089E-16
5.610000E+03	4.587150E-15	1.187234E-16
5.620000E+03	4.576666E-15	1.215244E-16
5.630000E+03	4.565734E-15	1.242011E-16
5.640000E+03	4.554493E-15	1.267457E-16
5.650000E+03	4.543142E-15	1.291556E-16
5.660000E+03	4.531728E-15	1.314268E-16
5.670000E+03	4.520418E-15	1.335608E-16
5.680000E+03	4.509281E-15	1.355580E-16
5.690000E+03	4.498434E-15	1.374211E-16
5.700000E+03	4.488002E-15	1.391543E-16
5.710000E+03	4.478079E-15	1.407613E-16
5.720000E+03	4.468819E-15	1.422482E-16
5.730000E+03	4.460389E-15	1.436221E-16
5.740000E+03	4.452925E-15	1.448891E-16
5.750000E+03	4.446611E-15	1.460572E-16
5.760000E+03	4.441585E-15	1.471332E-16
5.770000E+03	4.438060E-15	1.481262E-16
5.780000E+03	4.436099E-15	1.490406E-16
5.790000E+03	4.435864E-15	1.498839E-16
5.800000E+03	4.437396E-15	1.506595E-16
5.810000E+03	4.440689E-15	1.513691E-16
5.820000E+03	4.445735E-15	1.520140E-16
5.830000E+03	4.452477E-15	1.525937E-16
5.840000E+03	4.460805E-15	1.531053E-16
5.850000E+03	4.470478E-15	1.535414E-16
5.860000E+03	4.481343E-15	1.538970E-16
5.870000E+03	4.493079E-15	1.541614E-16
5.880000E+03	4.505472E-15	1.543270E-16
5.890000E+03	4.518247E-15	1.543843E-16
5.900000E+03	4.531037E-15	1.543201E-16
5.910000E+03	4.543614E-15	1.541261E-16
5.920000E+03	4.555635E-15	1.537898E-16
5.930000E+03	4.566915E-15	1.533041E-16
5.940000E+03	4.577261E-15	1.526613E-16
5.950000E+03	4.586429E-15	1.518521E-16
5.960000E+03	4.594307E-15	1.508714E-16
5.970000E+03	4.600870E-15	1.497171E-16
5.980000E+03	4.605998E-15	1.483842E-16
5.990000E+03	4.609743E-15	1.468736E-16
6.000000E+03	4.612098E-15	1.451848E-16
6.010000E+03	4.613129E-15	1.433200E-16
6.020000E+03	4.612874E-15	1.412814E-16
6.030000E+03	4.611478E-15	1.390753E-16
6.040000E+03	4.609003E-15	1.367062E-16
6.050000E+03	4.605514E-15	1.341798E-16
6.060000E+03	4.601211E-15	1.315068E-16
6.070000E+03	4.596107E-15	1.286938E-16
6.080000E+03	4.590337E-15	1.257527E-16
6.090000E+03	4.583933E-15	1.226942E-16
6.100000E+03	4.576952E-15	1.195329E-16
6.110000E+03	4.569470E-15	1.162866E-16
6.120000E+03	4.561446E-15	1.129745E-16
6.130000E+03	4.552893E-15	1.096221E-16
6.140000E+03	4.543696E-15	1.062575E-16
6.150000E+03	4.533787E-15	1.029170E-16
6.160000E+03	4.523003E-15	9.964189E-17
6.170000E+03	4.511131E-15	9.648014E-17
6.180000E+03	4.497864E-15	9.348472E-17
6.190000E+03	4.482981E-15	9.071560E-17
6.200000E+03	4.466133E-15	8.823164E-17
6.210000E+03	4.446949E-15	8.608740E-17
6.220000E+03	4.425049E-15	8.432629E-17
6.230000E+03	4.400121E-15	8.297372E-17
6.240000E+03	4.371903E-15	8.202935E-17
6.250000E+03	4.340163E-15	8.146274E-17
6.260000E+03	4.304817E-15	8.121658E-17
6.270000E+03	4.265846E-15	8.121166E-17
6.280000E+03	4.223442E-15	8.135889E-17
6.290000E+03	4.177833E-15	8.156568E-17
6.300000E+03	4.129376E-15	8.174540E-17
6.310000E+03	4.078640E-15	8.182451E-17
6.320000E+03	4.026230E-15	8.174198E-17
6.330000E+03	3.972950E-15	8.145355E-17
6.340000E+03	3.919620E-15	8.092758E-17
6.350000E+03	3.867148E-15	8.014504E-17
6.360000E+03	3.816588E-15	7.909898E-17
6.370000E+03	3.768994E-15	7.778943E-17
6.380000E+03	3.725357E-15	7.622012E-17
6.390000E+03	3.686820E-15	7.440121E-17
6.400000E+03	3.654296E-15	7.234005E-17
6.410000E+03	3.628838E-15	7.004805E-17
6.420000E+03	3.611310E-15	6.753380E-17
6.430000E+03	3.602482E-15	6.480619E-17
6.440000E+03	3.603026E-15	6.187651E-17
6.450000E+03	3.613584E-15	5.876404E-17
6.460000E+03	3.634565E-15	5.549964E-17
6.470000E+03	3.666306E-15	5.213991E-17
6.480000E+03	3.709112E-15	4.878437E-17
6.490000E+03	3.763085E-15	4.559599E-17
6.500000E+03	3.828136E-15	4.282732E-17
6.510000E+03	3.904052E-15	4.083433E-17
6.520000E+03	3.990256E-15	4.003955E-17
6.530000E+03	4.085724E-15	4.081833E-17
6.540000E+03	4.188654E-15	4.334261E-17
6.550000E+03	4.296750E-15	4.751542E-17
6.560000E+03	4.407063E-15	5.304248E-17
6.570000E+03	4.516193E-15	5.955908E-17
6.580000E+03	4.620790E-15	6.671796E-17
6.590000E+03	4.717633E-15	7.421815E-17
6.600000E+03	4.803647E-15	8.180430E-17
6.610000E+03	4.876391E-15	8.926638E-17
6.620000E+03	4.933951E-15	9.643149E-17
6.630000E+03	4.975068E-15	1.031618E-16
6.640000E+03	4.999096E-15	1.093516E-16
6.650000E+03	5.006106E-15	1.149281E-16
6.660000E+03	4.996823E-15	1.198501E-16
6.670000E+03	4.972291E-15	1.240997E-16
6.680000E+03	4.934193E-15	1.276885E-16
6.690000E+03	4.884239E-15	1.306421E-16
6.700000E+03	4.824539E-15	1.330075E-16
6.710000E+03	4.757015E-15	1.348366E-16
6.720000E+03	4.683671E-15	1.361914E-16
6.730000E+03	4.606458E-15	1.371386E-16
6.740000E+03	4.527046E-15	1.377418E-16
6.750000E+03	4.446970E-15	1.380642E-16
6.760000E+03	4.367605E-15	1.381661E-16
6.770000E+03	4.289938E-15	1.380976E-16
6.780000E+03	4.214913E-15	1.379076E-16
6.790000E+03	4.143275E-15	1.376387E-16
6.800000E+03	4.075374E-15	1.373199E-16
6.810000E+03	4.011676E-15	1.369828E-16
6.820000E+03	3.952404E-15	1.366502E-16
6.830000E+03	3.897620E-15	1.363376E-16
6.840000E+03	3.847402E-15	1.360599E-16
6.850000E+03	3.801605E-15	1.358229E-16
6.860000E+03	3.760227E-15	1.356362E-16
6.870000E+03	3.723028E-15	1.354998E-16
6.880000E+03	3.689927E-15	1.354184E-16
6.890000E+03	3.660621E-15	1.353881E-16
6.900000E+03	3.634930E-15	1.354084E-16
6.910000E+03	3.612604E-15	1.354761E-16
6.920000E+03	3.593328E-15	1.355846E-16
6.930000E+03	3.576866E-15	1.357301E-16
6.940000E+03	3.562873E-15	1.359045E-16
6.950000E+03	3.551042E-15	1.361006E-16
6.960000E+03	3.541107E-15	1.363125E-16
6.970000E+03	3.532661E-15	1.365285E-16
6.980000E+03	3.525494E-15	1.367445E-16
6.990000E+03	3.519217E-15	1.369487E-16
7.000000E+03	3.513656E-15	1.371376E-16
7.010000E+03	3.508472E-15	1.373005E-16
7.020000E+03	3.503456E-15	1.374317E-16
7.030000E+03	3.498531E-15	1.375298E-16
7.040000E+03	3.493471E-15	1.375876E-16
7.050000E+03	3.488188E-15	1.376022E-16
7.060000E+03	3.482681E-15	1.375745E-16
7.070000E+03	3.476892E-15	1.375021E-16
7.080000E+03	3.470844E-15	1.373859E-16
7.090000E+03	3.464588E-15	1.372276E-16
7.100000E+03	3.458244E-15	1.370315E-16
7.110000E+03	3.451805E-15	1.367967E-16
7.120000E+03	3.445414E-15	1.365283E-16
7.130000E+03	3.439170E-15	1.362294E-16
7.140000E+03	3.433167E-15	1.359035E-16
7.150000E+03	3.427492E-15	1.355533E-16
7.160000E+03	3.422172E-15	1.351797E-16
7.170000E+03	3.417268E-15	1.347847E-16
7.180000E+03	3.412875E-15	1.343719E-16
7.190000E+03	3.409024E-15	1.339422E-16
7.200000E+03	3.405681E-15	1.334941E-16
7.210000E+03	3.402848E-15	1.330275E-16
7.220000E+03	3.400515E-15	1.325416E-16
7.230000E+03	3.398707E-15	1.320369E-16
7.240000E+03	3.397291E-15	1.315078E-16
7.250000E+03	3.396322E-15	1.309557E-16
7.260000E+03	3.395695E-15	1.303761E-16
7.270000E+03	3.395298E-15	1.297639E-16
7.280000E+03	3.395108E-15	1.291175E-16
7.290000E+03	3.395093E-15	1.284351E-16
7.300000E+03	3.395016E-15	1.277071E-16
7.310000E+03	3.394933E-15	1.269350E-16
7.320000E+03	3.394644E-15	1.261108E-16
7.330000E+03	3.394052E-15	1.252299E-16
7.340000E+03	3.393105E-15	1.242895E-16
7.350000E+03	3.391658E-15	1.232827E-16
7.360000E+03	3.389671E-15	1.222058E-16
7.370000E+03	3.386959E-15	1.210493E-16
7.380000E+03	3.383549E-15	1.198103E-16
7.390000E+03	3.379330E-15	1.184800E-16
7.400000E+03	3.374198E-15	1.170490E-16
7.410000E+03	3.368218E-15	1.155128E-16
7.420000E+03	3.361260E-15	1.138602E-16
7.430000E+03	3.353363E-15	1.120853E-16
7.440000E+03	3.344471E-15	1.101802E-16
7.450000E+03	3.334643E-15	1.081421E-16
7.460000E+03	3.323948E-15	1.059712E-16
7.470000E+03	3.312309E-15	1.036668E-16
7.480000E+03	3.299812E-15	1.012380E-16
7.490000E+03	3.286446E-15	9.869752E-17
7.500000E+03	3.272358E-15	9.607024E-17
7.510000E+03	3.257549E-15	9.338539E-17
7.520000E+03	3.242025E-15	9.068247E-17
7.530000E+03	3.225945E-15	8.801631E-17
7.540000E+03	3.209270E-15	8.544750E-17
7.550000E+03	3.192164E-15	8.305309E-17
7.560000E+03	3.174643E-15	8.091518E-17
7.570000E+03	3.156824E-15	7.912386E-17
7.580000E+03	3.138769E-15	7.776718E-17
7.590000E+03	3.120495E-15	7.692292E-17
7.600000E+03	3.102157E-15	7.665349E-17
7.610000E+03	3.083708E-15	7.698783E-17
7.620000E+03	3.065289E-15	7.792490E-17
7.630000E+03	3.046878E-15	7.942447E-17
7.640000E+03	3.028544E-15	8.141909E-17
7.650000E+03	3.010249E-15	8.381877E-17
7.660000E+03	2.992050E-15	8.652669E-17
7.670000E+03	2.973949E-15	8.944383E-17
7.680000E+03	2.955949E-15	9.247623E-17
7.690000E+03	2.938054E-15	9.553830E-17
7.700000E+03	2.920263E-15	9.855423E-17
7.710000E+03	2.902626E-15	1.014598E-16
7.720000E+03	2.885048E-15	1.041954E-16
7.730000E+03	2.867672E-15	1.067179E-16
7.740000E+03	2.850355E-15	1.089817E-16
7.750000E+03	2.833239E-15	1.109580E-16
7.760000E+03	2.816227E-15	1.126145E-16
