#wls	flux	fluxerr
1.600000E+03	1.522943E-16	6.823885E-17
1.640000E+03	1.541918E-16	6.738353E-17
1.680000E+03	1.561975E-16	6.657134E-17
1.720000E+03	1.583937E-16	6.583908E-17
1.760000E+03	1.607974E-16	6.519395E-17
1.800000E+03	1.634277E-16	6.464369E-17
1.840000E+03	1.663763E-16	6.422361E-17
1.880000E+03	1.696683E-16	6.394084E-17
1.920000E+03	1.733314E-16	6.380276E-17
1.960000E+03	1.773227E-16	6.379078E-17
2.000000E+03	1.817443E-16	6.393867E-17
2.040000E+03	1.867028E-16	6.427840E-17
2.080000E+03	1.922340E-16	6.481480E-17
2.120000E+03	1.982984E-16	6.552654E-17
2.160000E+03	2.049286E-16	6.641613E-17
2.200000E+03	2.123117E-16	6.753373E-17
2.240000E+03	2.204028E-16	6.885197E-17
2.280000E+03	2.293101E-16	7.039074E-17
2.320000E+03	2.389766E-16	7.211712E-17
2.360000E+03	2.494166E-16	7.401964E-17
2.400000E+03	2.607213E-16	7.610810E-17
2.440000E+03	2.728914E-16	7.836350E-17
2.480000E+03	2.858276E-16	8.073732E-17
2.520000E+03	2.995934E-16	8.322648E-17
2.560000E+03	3.142472E-16	8.582298E-17
2.600000E+03	3.296522E-16	8.846242E-17
2.640000E+03	3.458439E-16	9.112454E-17
2.680000E+03	3.629494E-16	9.380745E-17
2.720000E+03	3.806978E-16	9.640067E-17
2.760000E+03	3.991958E-16	9.888804E-17
2.800000E+03	4.184470E-16	1.012214E-16
2.840000E+03	4.383428E-16	1.033223E-16
2.880000E+03	4.587612E-16	1.051094E-16
2.920000E+03	4.797773E-16	1.065477E-16
2.960000E+03	5.013527E-16	1.075770E-16
3.000000E+03	5.233299E-16	1.081173E-16
3.010000E+03	5.289335E-16	1.081810E-16
3.020000E+03	5.345753E-16	1.082138E-16
3.030000E+03	5.401461E-16	1.081931E-16
3.040000E+03	5.457493E-16	1.081398E-16
3.050000E+03	5.514882E-16	1.080737E-16
3.060000E+03	5.571470E-16	1.079520E-16
3.070000E+03	5.628291E-16	1.077948E-16
3.080000E+03	5.686375E-16	1.076216E-16
3.090000E+03	5.743564E-16	1.073911E-16
3.100000E+03	5.801950E-16	1.071428E-16
3.110000E+03	5.859376E-16	1.068366E-16
3.120000E+03	5.917931E-16	1.065112E-16
3.130000E+03	5.976519E-16	1.061466E-16
3.140000E+03	6.035105E-16	1.057426E-16
3.150000E+03	6.093655E-16	1.052993E-16
3.160000E+03	6.153188E-16	1.048345E-16
3.170000E+03	6.212611E-16	1.043300E-16
3.180000E+03	6.271891E-16	1.037862E-16
3.190000E+03	6.332040E-16	1.032206E-16
3.200000E+03	6.391971E-16	1.026162E-16
3.210000E+03	6.452693E-16	1.019902E-16
3.220000E+03	6.513126E-16	1.013266E-16
3.230000E+03	6.574272E-16	1.006424E-16
3.240000E+03	6.636093E-16	9.993788E-17
3.250000E+03	6.697516E-16	9.919847E-17
3.260000E+03	6.759541E-16	9.844075E-17
3.270000E+03	6.822128E-16	9.766566E-17
3.280000E+03	6.885242E-16	9.687432E-17
3.290000E+03	6.947832E-16	9.605400E-17
3.300000E+03	7.011900E-16	9.523462E-17
3.310000E+03	7.076396E-16	9.440351E-17
3.320000E+03	7.141293E-16	9.356256E-17
3.330000E+03	7.207566E-16	9.272672E-17
3.340000E+03	7.273189E-16	9.187221E-17
3.350000E+03	7.340140E-16	9.102693E-17
3.360000E+03	7.408395E-16	9.019265E-17
3.370000E+03	7.476947E-16	8.935956E-17
3.380000E+03	7.546774E-16	8.854207E-17
3.390000E+03	7.617862E-16	8.774245E-17
3.400000E+03	7.690207E-16	8.696315E-17
3.410000E+03	7.762847E-16	8.619604E-17
3.420000E+03	7.837722E-16	8.546547E-17
3.430000E+03	7.913880E-16	8.476332E-17
3.440000E+03	7.991343E-16	8.409251E-17
3.450000E+03	8.070144E-16	8.345607E-17
3.460000E+03	8.151261E-16	8.286663E-17
3.470000E+03	8.234729E-16	8.232671E-17
3.480000E+03	8.320590E-16	8.183891E-17
3.490000E+03	8.407975E-16	8.139701E-17
3.500000E+03	8.498794E-16	8.102181E-17
3.510000E+03	8.591279E-16	8.069842E-17
3.520000E+03	8.687339E-16	8.044699E-17
3.530000E+03	8.787048E-16	8.026989E-17
3.540000E+03	8.889590E-16	8.016142E-17
3.550000E+03	8.995963E-16	8.013234E-17
3.560000E+03	9.106264E-16	8.018496E-17
3.570000E+03	9.220597E-16	8.032142E-17
3.580000E+03	9.339952E-16	8.055116E-17
3.590000E+03	9.462675E-16	8.086022E-17
3.600000E+03	9.591508E-16	8.127174E-17
3.610000E+03	9.724806E-16	8.177039E-17
3.620000E+03	9.863547E-16	8.236242E-17
3.630000E+03	1.000783E-15	8.304594E-17
3.640000E+03	1.015776E-15	8.381856E-17
3.650000E+03	1.031344E-15	8.467756E-17
3.660000E+03	1.047582E-15	8.562690E-17
3.670000E+03	1.064414E-15	8.665638E-17
3.680000E+03	1.082019E-15	8.777643E-17
3.690000E+03	1.100237E-15	8.896982E-17
3.700000E+03	1.119162E-15	9.023995E-17
3.710000E+03	1.138801E-15	9.158329E-17
3.720000E+03	1.159248E-15	9.300300E-17
3.730000E+03	1.180509E-15	9.449545E-17
3.740000E+03	1.202508E-15	9.605035E-17
3.750000E+03	1.225336E-15	9.767075E-17
3.760000E+03	1.248998E-15	9.935297E-17
3.770000E+03	1.273500E-15	1.010933E-16
3.780000E+03	1.298928E-15	1.028943E-16
3.790000E+03	1.325200E-15	1.047456E-16
3.800000E+03	1.352400E-15	1.066495E-16
3.810000E+03	1.380441E-15	1.085950E-16
3.820000E+03	1.409482E-15	1.105903E-16
3.830000E+03	1.439430E-15	1.126238E-16
3.840000E+03	1.470267E-15	1.146898E-16
3.850000E+03	1.502056E-15	1.167885E-16
3.860000E+03	1.534683E-15	1.189068E-16
3.870000E+03	1.568278E-15	1.210497E-16
3.880000E+03	1.602630E-15	1.231962E-16
3.890000E+03	1.637764E-15	1.253435E-16
3.900000E+03	1.673699E-15	1.274877E-16
3.910000E+03	1.710275E-15	1.296114E-16
3.920000E+03	1.747486E-15	1.317088E-16
3.930000E+03	1.785150E-15	1.337608E-16
3.940000E+03	1.823322E-15	1.357658E-16
3.950000E+03	1.861716E-15	1.376968E-16
3.960000E+03	1.900284E-15	1.395445E-16
3.970000E+03	1.938970E-15	1.412989E-16
3.980000E+03	1.977546E-15	1.429374E-16
3.990000E+03	2.015945E-15	1.444493E-16
4.000000E+03	2.053933E-15	1.458119E-16
4.010000E+03	2.091360E-15	1.470088E-16
4.020000E+03	2.128241E-15	1.480353E-16
4.030000E+03	2.164272E-15	1.488645E-16
4.040000E+03	2.199403E-15	1.494877E-16
4.050000E+03	2.233515E-15	1.498914E-16
4.060000E+03	2.266424E-15	1.500584E-16
4.070000E+03	2.298204E-15	1.499885E-16
4.080000E+03	2.328709E-15	1.496678E-16
4.090000E+03	2.357895E-15	1.490888E-16
4.100000E+03	2.385668E-15	1.482415E-16
4.110000E+03	2.412186E-15	1.471316E-16
4.120000E+03	2.437326E-15	1.457479E-16
4.130000E+03	2.461218E-15	1.440943E-16
4.140000E+03	2.483942E-15	1.421717E-16
4.150000E+03	2.505525E-15	1.399777E-16
4.160000E+03	2.526159E-15	1.375194E-16
4.170000E+03	2.545914E-15	1.347962E-16
4.180000E+03	2.564941E-15	1.318121E-16
4.190000E+03	2.583408E-15	1.285712E-16
4.200000E+03	2.601487E-15	1.250771E-16
4.210000E+03	2.619354E-15	1.213335E-16
4.220000E+03	2.637056E-15	1.173373E-16
4.230000E+03	2.654901E-15	1.130978E-16
4.240000E+03	2.672929E-15	1.086119E-16
4.250000E+03	2.691303E-15	1.038828E-16
4.260000E+03	2.710174E-15	9.891439E-17
4.270000E+03	2.729679E-15	9.371205E-17
4.280000E+03	2.749819E-15	8.828024E-17
4.290000E+03	2.770826E-15	8.263694E-17
4.300000E+03	2.792611E-15	7.679912E-17
4.310000E+03	2.815314E-15	7.080494E-17
4.320000E+03	2.839000E-15	6.471200E-17
4.330000E+03	2.863604E-15	5.860954E-17
4.340000E+03	2.889167E-15	5.264411E-17
4.350000E+03	2.915666E-15	4.704589E-17
4.360000E+03	2.943123E-15	4.216986E-17
4.370000E+03	2.971556E-15	3.851936E-17
4.380000E+03	3.000864E-15	3.668518E-17
4.390000E+03	3.031058E-15	3.712554E-17
4.400000E+03	3.062143E-15	3.989316E-17
4.410000E+03	3.094016E-15	4.462447E-17
4.420000E+03	3.126681E-15	5.079775E-17
4.430000E+03	3.160138E-15	5.795057E-17
4.440000E+03	3.194333E-15	6.574441E-17
4.450000E+03	3.229205E-15	7.394908E-17
4.460000E+03	3.264745E-15	8.241145E-17
4.470000E+03	3.300883E-15	9.102677E-17
4.480000E+03	3.337594E-15	9.972344E-17
4.490000E+03	3.374792E-15	1.084489E-16
4.500000E+03	3.412487E-15	1.171674E-16
4.510000E+03	3.450467E-15	1.258450E-16
4.520000E+03	3.488773E-15	1.344626E-16
4.530000E+03	3.527226E-15	1.429975E-16
4.540000E+03	3.565688E-15	1.514313E-16
4.550000E+03	3.604122E-15	1.597515E-16
4.560000E+03	3.642377E-15	1.679429E-16
4.570000E+03	3.680304E-15	1.759906E-16
4.580000E+03	3.717752E-15	1.838805E-16
4.590000E+03	3.754680E-15	1.916042E-16
4.600000E+03	3.791001E-15	1.991518E-16
4.610000E+03	3.826536E-15	2.065088E-16
4.620000E+03	3.861222E-15	2.136671E-16
4.630000E+03	3.895066E-15	2.206226E-16
4.640000E+03	3.927932E-15	2.273640E-16
4.650000E+03	3.959860E-15	2.338899E-16
4.660000E+03	3.990852E-15	2.401978E-16
4.670000E+03	4.020826E-15	2.462798E-16
4.680000E+03	4.049914E-15	2.521420E-16
4.690000E+03	4.078056E-15	2.577789E-16
4.700000E+03	4.105249E-15	2.631885E-16
4.710000E+03	4.131644E-15	2.683794E-16
4.720000E+03	4.157184E-15	2.733471E-16
4.730000E+03	4.181909E-15	2.780934E-16
4.740000E+03	4.205746E-15	2.826129E-16
4.750000E+03	4.228757E-15	2.869093E-16
4.760000E+03	4.250834E-15	2.909749E-16
4.770000E+03	4.271847E-15	2.948006E-16
4.780000E+03	4.291795E-15	2.983859E-16
4.790000E+03	4.310452E-15	3.017148E-16
4.800000E+03	4.327620E-15	3.047735E-16
4.810000E+03	4.343230E-15	3.075565E-16
4.820000E+03	4.357093E-15	3.100508E-16
4.830000E+03	4.369156E-15	3.122525E-16
4.840000E+03	4.379304E-15	3.141539E-16
4.850000E+03	4.387470E-15	3.157508E-16
4.860000E+03	4.393439E-15	3.170286E-16
4.870000E+03	4.397203E-15	3.179876E-16
4.880000E+03	4.398573E-15	3.186156E-16
4.890000E+03	4.397478E-15	3.189088E-16
4.900000E+03	4.393922E-15	3.188694E-16
4.910000E+03	4.387750E-15	3.184877E-16
4.920000E+03	4.379031E-15	3.177712E-16
4.930000E+03	4.367732E-15	3.167197E-16
4.940000E+03	4.353999E-15	3.153462E-16
4.950000E+03	4.337876E-15	3.136568E-16
4.960000E+03	4.319539E-15	3.116668E-16
4.970000E+03	4.299107E-15	3.093877E-16
4.980000E+03	4.276869E-15	3.068432E-16
4.990000E+03	4.252958E-15	3.040458E-16
5.000000E+03	4.227712E-15	3.010224E-16
5.010000E+03	4.201351E-15	2.977915E-16
5.020000E+03	4.174238E-15	2.943811E-16
5.030000E+03	4.146567E-15	2.908071E-16
5.040000E+03	4.118661E-15	2.870941E-16
5.050000E+03	4.090839E-15	2.832658E-16
5.060000E+03	4.063362E-15	2.793412E-16
5.070000E+03	4.036479E-15	2.753379E-16
5.080000E+03	4.010417E-15	2.712712E-16
5.090000E+03	3.985424E-15	2.671570E-16
5.100000E+03	3.961638E-15	2.630033E-16
5.110000E+03	3.939293E-15	2.588234E-16
5.120000E+03	3.918473E-15	2.546200E-16
5.130000E+03	3.899351E-15	2.504010E-16
5.140000E+03	3.881916E-15	2.461612E-16
5.150000E+03	3.866283E-15	2.419034E-16
5.160000E+03	3.852465E-15	2.376230E-16
5.170000E+03	3.840487E-15	2.333156E-16
5.180000E+03	3.830275E-15	2.289703E-16
5.190000E+03	3.821849E-15	2.245818E-16
5.200000E+03	3.815097E-15	2.201365E-16
5.210000E+03	3.809970E-15	2.156245E-16
5.220000E+03	3.806368E-15	2.110331E-16
5.230000E+03	3.804221E-15	2.063514E-16
5.240000E+03	3.803416E-15	2.015665E-16
5.250000E+03	3.803834E-15	1.966658E-16
5.260000E+03	3.805396E-15	1.916395E-16
5.270000E+03	3.808024E-15	1.864785E-16
5.280000E+03	3.811603E-15	1.811731E-16
5.290000E+03	3.815985E-15	1.757134E-16
5.300000E+03	3.821144E-15	1.700970E-16
5.310000E+03	3.826983E-15	1.643201E-16
5.320000E+03	3.833411E-15	1.583815E-16
5.330000E+03	3.840382E-15	1.522851E-16
5.340000E+03	3.847821E-15	1.460371E-16
5.350000E+03	3.855656E-15	1.396488E-16
5.360000E+03	3.863861E-15	1.331386E-16
5.370000E+03	3.872377E-15	1.265312E-16
5.380000E+03	3.881186E-15	1.198619E-16
5.390000E+03	3.890194E-15	1.131757E-16
5.400000E+03	3.899429E-15	1.065364E-16
5.410000E+03	3.908799E-15	1.000236E-16
5.420000E+03	3.918287E-15	9.374311E-17
5.430000E+03	3.927835E-15	8.782904E-17
5.440000E+03	3.937378E-15	8.244902E-17
5.450000E+03	3.946884E-15	7.780686E-17
5.460000E+03	3.956277E-15	7.413472E-17
5.470000E+03	3.965483E-15	7.167267E-17
5.480000E+03	3.974468E-15	7.062844E-17
5.490000E+03	3.983089E-15	7.112215E-17
5.500000E+03	3.991330E-15	7.315130E-17
5.510000E+03	3.999191E-15	7.658782E-17
5.520000E+03	4.006603E-15	8.121489E-17
5.530000E+03	4.013593E-15	8.678277E-17
5.540000E+03	4.020118E-15	9.304781E-17
5.550000E+03	4.026268E-15	9.979951E-17
5.560000E+03	4.031983E-15	1.068611E-16
5.570000E+03	4.037292E-15	1.140930E-16
5.580000E+03	4.042273E-15	1.213874E-16
5.590000E+03	4.046894E-15	1.286579E-16
5.600000E+03	4.051285E-15	1.358422E-16
5.610000E+03	4.055426E-15	1.428882E-16
5.620000E+03	4.059381E-15	1.497586E-16
5.630000E+03	4.063255E-15	1.564267E-16
5.640000E+03	4.067080E-15	1.628703E-16
5.650000E+03	4.070928E-15	1.690746E-16
5.660000E+03	4.074832E-15	1.750276E-16
5.670000E+03	4.078866E-15	1.807224E-16
5.680000E+03	4.083106E-15	1.861554E-16
5.690000E+03	4.087583E-15	1.913229E-16
5.700000E+03	4.092409E-15	1.962270E-16
5.710000E+03	4.097574E-15	2.008652E-16
5.720000E+03	4.103184E-15	2.052417E-16
5.730000E+03	4.109263E-15	2.093575E-16
5.740000E+03	4.115868E-15	2.132159E-16
5.750000E+03	4.123052E-15	2.168203E-16
5.760000E+03	4.130783E-15	2.201698E-16
5.770000E+03	4.139142E-15	2.232695E-16
5.780000E+03	4.148162E-15	2.261221E-16
5.790000E+03	4.157789E-15	2.287254E-16
5.800000E+03	4.168040E-15	2.310808E-16
5.810000E+03	4.178964E-15	2.331913E-16
5.820000E+03	4.190481E-15	2.350523E-16
5.830000E+03	4.202623E-15	2.366653E-16
5.840000E+03	4.215290E-15	2.380242E-16
5.850000E+03	4.228500E-15	2.391287E-16
5.860000E+03	4.242137E-15	2.399711E-16
5.870000E+03	4.256201E-15	2.405497E-16
5.880000E+03	4.270608E-15	2.408579E-16
5.890000E+03	4.285305E-15	2.408907E-16
5.900000E+03	4.300156E-15	2.406381E-16
5.910000E+03	4.315184E-15	2.400990E-16
5.920000E+03	4.330206E-15	2.392608E-16
5.930000E+03	4.345244E-15	2.381224E-16
5.940000E+03	4.360113E-15	2.366712E-16
5.950000E+03	4.374834E-15	2.349064E-16
5.960000E+03	4.389265E-15	2.328185E-16
5.970000E+03	4.403349E-15	2.304030E-16
5.980000E+03	4.417029E-15	2.276562E-16
5.990000E+03	4.430208E-15	2.245727E-16
6.000000E+03	4.442833E-15	2.211505E-16
6.010000E+03	4.454810E-15	2.173866E-16
6.020000E+03	4.466087E-15	2.132811E-16
6.030000E+03	4.476567E-15	2.088340E-16
6.040000E+03	4.486239E-15	2.040506E-16
6.050000E+03	4.495005E-15	1.989345E-16
6.060000E+03	4.502718E-15	1.934902E-16
6.070000E+03	4.509400E-15	1.877323E-16
6.080000E+03	4.514937E-15	1.816736E-16
6.090000E+03	4.519212E-15	1.753311E-16
6.100000E+03	4.522098E-15	1.687274E-16
6.110000E+03	4.523593E-15	1.618961E-16
6.120000E+03	4.523512E-15	1.548722E-16
6.130000E+03	4.521797E-15	1.477048E-16
6.140000E+03	4.518294E-15	1.404515E-16
6.150000E+03	4.512844E-15	1.331838E-16
6.160000E+03	4.505416E-15	1.259934E-16
6.170000E+03	4.495846E-15	1.189868E-16
6.180000E+03	4.484060E-15	1.122934E-16
6.190000E+03	4.469901E-15	1.060608E-16
6.200000E+03	4.453267E-15	1.004543E-16
6.210000E+03	4.434162E-15	9.564688E-17
6.220000E+03	4.412486E-15	9.179538E-17
6.230000E+03	4.388273E-15	8.901649E-17
6.240000E+03	4.361573E-15	8.735292E-17
6.250000E+03	4.332552E-15	8.675440E-17
6.260000E+03	4.301455E-15	8.707969E-17
6.270000E+03	4.268546E-15	8.812242E-17
6.280000E+03	4.234180E-15	8.964998E-17
6.290000E+03	4.198741E-15	9.143494E-17
6.300000E+03	4.162593E-15	9.327442E-17
6.310000E+03	4.126232E-15	9.500260E-17
6.320000E+03	4.089994E-15	9.648513E-17
6.330000E+03	4.054338E-15	9.762257E-17
6.340000E+03	4.019633E-15	9.834077E-17
6.350000E+03	3.986322E-15	9.858967E-17
6.360000E+03	3.954748E-15	9.833469E-17
6.370000E+03	3.925318E-15	9.755678E-17
6.380000E+03	3.898331E-15	9.624511E-17
6.390000E+03	3.874097E-15	9.439770E-17
6.400000E+03	3.852889E-15	9.201864E-17
6.410000E+03	3.834941E-15	8.911720E-17
6.420000E+03	3.820399E-15	8.570683E-17
6.430000E+03	3.809437E-15	8.180898E-17
6.440000E+03	3.802047E-15	7.745114E-17
6.450000E+03	3.798279E-15	7.267675E-17
6.460000E+03	3.797986E-15	6.754800E-17
6.470000E+03	3.801024E-15	6.216274E-17
6.480000E+03	3.807127E-15	5.667255E-17
6.490000E+03	3.815981E-15	5.131530E-17
6.500000E+03	3.827154E-15	4.645502E-17
6.510000E+03	3.840151E-15	4.261592E-17
6.520000E+03	3.854399E-15	4.044540E-17
6.530000E+03	3.869465E-15	4.051867E-17
6.540000E+03	3.884837E-15	4.303462E-17
6.550000E+03	3.900156E-15	4.771764E-17
6.560000E+03	3.915028E-15	5.403411E-17
6.570000E+03	3.929129E-15	6.145481E-17
6.580000E+03	3.942144E-15	6.956597E-17
6.590000E+03	3.953805E-15	7.807244E-17
6.600000E+03	3.963756E-15	8.676508E-17
6.610000E+03	3.971701E-15	9.549449E-17
6.620000E+03	3.977371E-15	1.041503E-16
6.630000E+03	3.980578E-15	1.126496E-16
6.640000E+03	3.981090E-15	1.209258E-16
6.650000E+03	3.978773E-15	1.289272E-16
6.660000E+03	3.973555E-15	1.366130E-16
6.670000E+03	3.965470E-15	1.439536E-16
6.680000E+03	3.954472E-15	1.509224E-16
6.690000E+03	3.940712E-15	1.575052E-16
6.700000E+03	3.924346E-15	1.636929E-16
6.710000E+03	3.905576E-15	1.694825E-16
6.720000E+03	3.884638E-15	1.748766E-16
6.730000E+03	3.861798E-15	1.798824E-16
6.740000E+03	3.837294E-15	1.845092E-16
6.750000E+03	3.811513E-15	1.887764E-16
6.760000E+03	3.784616E-15	1.926949E-16
6.770000E+03	3.757035E-15	1.962912E-16
6.780000E+03	3.728915E-15	1.995794E-16
6.790000E+03	3.700617E-15	2.025861E-16
6.800000E+03	3.672389E-15	2.053335E-16
6.810000E+03	3.644368E-15	2.078383E-16
6.820000E+03	3.616846E-15	2.101270E-16
6.830000E+03	3.589956E-15	2.122172E-16
6.840000E+03	3.563849E-15	2.141279E-16
6.850000E+03	3.538651E-15	2.158767E-16
6.860000E+03	3.514463E-15	2.174797E-16
6.870000E+03	3.491320E-15	2.189485E-16
6.880000E+03	3.469366E-15	2.203014E-16
6.890000E+03	3.448504E-15	2.215412E-16
6.900000E+03	3.428884E-15	2.226857E-16
6.910000E+03	3.410377E-15	2.237344E-16
6.920000E+03	3.393055E-15	2.246995E-16
6.930000E+03	3.376851E-15	2.255831E-16
6.940000E+03	3.361728E-15	2.263892E-16
6.950000E+03	3.347686E-15	2.271236E-16
6.960000E+03	3.334588E-15	2.277822E-16
6.970000E+03	3.322421E-15	2.283690E-16
6.980000E+03	3.311085E-15	2.288813E-16
6.990000E+03	3.300605E-15	2.293248E-16
7.000000E+03	3.290794E-15	2.296898E-16
7.010000E+03	3.281679E-15	2.299815E-16
7.020000E+03	3.273205E-15	2.301984E-16
7.030000E+03	3.265232E-15	2.303333E-16
7.040000E+03	3.257799E-15	2.303908E-16
7.050000E+03	3.250776E-15	2.303633E-16
7.060000E+03	3.244209E-15	2.302557E-16
7.070000E+03	3.237978E-15	2.300605E-16
7.080000E+03	3.232098E-15	2.297795E-16
7.090000E+03	3.226501E-15	2.294086E-16
7.100000E+03	3.221208E-15	2.289499E-16
7.110000E+03	3.216161E-15	2.283993E-16
7.120000E+03	3.211346E-15	2.277557E-16
7.130000E+03	3.206795E-15	2.270214E-16
7.140000E+03	3.202413E-15	2.261890E-16
7.150000E+03	3.198235E-15	2.252607E-16
7.160000E+03	3.194254E-15	2.242349E-16
7.170000E+03	3.190462E-15	2.231103E-16
7.180000E+03	3.186808E-15	2.218822E-16
7.190000E+03	3.183284E-15	2.205485E-16
7.200000E+03	3.179922E-15	2.191101E-16
7.210000E+03	3.176666E-15	2.175614E-16
7.220000E+03	3.173503E-15	2.158996E-16
7.230000E+03	3.170459E-15	2.141246E-16
7.240000E+03	3.167428E-15	2.122269E-16
7.250000E+03	3.164434E-15	2.102058E-16
7.260000E+03	3.161408E-15	2.080544E-16
7.270000E+03	3.158371E-15	2.057713E-16
7.280000E+03	3.155251E-15	2.033494E-16
7.290000E+03	3.152065E-15	2.007868E-16
7.300000E+03	3.148739E-15	1.980760E-16
7.310000E+03	3.145242E-15	1.952123E-16
7.320000E+03	3.141589E-15	1.921937E-16
7.330000E+03	3.137661E-15	1.890100E-16
7.340000E+03	3.133472E-15	1.856595E-16
7.350000E+03	3.128948E-15	1.821353E-16
7.360000E+03	3.124152E-15	1.784387E-16
7.370000E+03	3.118968E-15	1.745612E-16
7.380000E+03	3.113372E-15	1.704999E-16
7.390000E+03	3.107386E-15	1.662551E-16
7.400000E+03	3.100993E-15	1.618256E-16
7.410000E+03	3.094132E-15	1.572088E-16
7.420000E+03	3.086788E-15	1.524059E-16
7.430000E+03	3.078996E-15	1.474219E-16
7.440000E+03	3.070751E-15	1.422611E-16
7.450000E+03	3.062001E-15	1.369284E-16
7.460000E+03	3.052837E-15	1.314373E-16
7.470000E+03	3.043214E-15	1.257987E-16
7.480000E+03	3.033136E-15	1.200297E-16
7.490000E+03	3.022610E-15	1.141526E-16
7.500000E+03	3.011690E-15	1.081976E-16
7.510000E+03	3.000295E-15	1.021984E-16
7.520000E+03	2.988526E-15	9.620526E-17
7.530000E+03	2.976308E-15	9.027558E-17
7.540000E+03	2.963698E-15	8.448753E-17
7.550000E+03	2.950711E-15	7.893801E-17
7.560000E+03	2.937363E-15	7.374770E-17
7.570000E+03	2.923713E-15	6.906398E-17
7.580000E+03	2.909690E-15	6.505370E-17
7.590000E+03	2.895443E-15	6.189933E-17
7.600000E+03	2.880902E-15	5.976330E-17
7.610000E+03	2.866087E-15	5.875815E-17
7.620000E+03	2.851106E-15	5.891082E-17
7.630000E+03	2.835893E-15	6.014363E-17
7.640000E+03	2.820559E-15	6.229965E-17
7.650000E+03	2.805127E-15	6.517588E-17
7.660000E+03	2.789533E-15	6.856097E-17
7.670000E+03	2.773930E-15	7.226743E-17
7.680000E+03	2.758254E-15	7.613181E-17
7.690000E+03	2.742613E-15	8.002573E-17
7.700000E+03	2.726940E-15	8.384320E-17
7.710000E+03	2.711340E-15	8.750573E-17
7.720000E+03	2.695789E-15	9.094879E-17
7.730000E+03	2.680301E-15	9.412305E-17
7.740000E+03	2.664978E-15	9.699306E-17
7.750000E+03	2.649749E-15	9.952580E-17
7.760000E+03	2.634627E-15	1.016977E-16
