#wls	flux	fluxerr
1.600000E+03	3.673795E-18	3.180986E-18
1.640000E+03	3.783380E-18	3.257244E-18
1.680000E+03	3.896999E-18	3.335487E-18
1.720000E+03	4.013516E-18	3.414640E-18
1.760000E+03	4.136761E-18	3.497846E-18
1.800000E+03	4.263113E-18	3.581902E-18
1.840000E+03	4.395220E-18	3.668909E-18
1.880000E+03	4.531923E-18	3.757748E-18
1.920000E+03	4.673321E-18	3.848355E-18
1.960000E+03	4.819513E-18	3.940657E-18
2.000000E+03	4.973372E-18	4.036823E-18
2.040000E+03	5.130885E-18	4.133400E-18
2.080000E+03	5.294945E-18	4.232539E-18
2.120000E+03	5.465702E-18	4.334142E-18
2.160000E+03	5.643305E-18	4.438093E-18
2.200000E+03	5.826393E-18	4.543083E-18
2.240000E+03	6.016564E-18	4.650118E-18
2.280000E+03	6.212397E-18	4.757836E-18
2.320000E+03	6.417106E-18	4.868420E-18
2.360000E+03	6.629282E-18	4.980473E-18
2.400000E+03	6.849042E-18	5.093762E-18
2.440000E+03	7.074838E-18	5.206807E-18
2.480000E+03	7.311738E-18	5.322984E-18
2.520000E+03	7.554868E-18	5.438330E-18
2.560000E+03	7.807702E-18	5.554964E-18
2.600000E+03	8.070396E-18	5.672538E-18
2.640000E+03	8.341310E-18	5.789436E-18
2.680000E+03	8.622319E-18	5.906483E-18
2.720000E+03	8.913552E-18	6.023239E-18
2.760000E+03	9.215134E-18	6.139233E-18
2.800000E+03	9.527181E-18	6.253959E-18
2.840000E+03	9.849802E-18	6.366878E-18
2.880000E+03	1.018504E-17	6.478652E-18
2.920000E+03	1.053110E-17	6.587431E-18
2.960000E+03	1.089006E-17	6.693795E-18
3.000000E+03	1.126209E-17	6.797044E-18
3.010000E+03	1.135640E-17	6.821827E-18
3.020000E+03	1.145305E-17	6.847270E-18
3.030000E+03	1.155003E-17	6.872143E-18
3.040000E+03	1.164734E-17	6.896436E-18
3.050000E+03	1.174497E-17	6.920138E-18
3.060000E+03	1.184497E-17	6.944442E-18
3.070000E+03	1.194530E-17	6.968129E-18
3.080000E+03	1.204596E-17	6.991187E-18
3.090000E+03	1.214694E-17	7.013605E-18
3.100000E+03	1.225033E-17	7.036566E-18
3.110000E+03	1.235404E-17	7.058858E-18
3.120000E+03	1.245809E-17	7.080470E-18
3.130000E+03	1.256457E-17	7.102577E-18
3.140000E+03	1.267138E-17	7.123975E-18
3.150000E+03	1.277853E-17	7.144650E-18
3.160000E+03	1.288600E-17	7.164592E-18
3.170000E+03	1.299594E-17	7.184963E-18
3.180000E+03	1.310621E-17	7.204568E-18
3.190000E+03	1.321682E-17	7.223396E-18
3.200000E+03	1.332776E-17	7.241434E-18
3.210000E+03	1.344118E-17	7.259831E-18
3.220000E+03	1.355710E-17	7.278562E-18
3.230000E+03	1.367121E-17	7.295297E-18
3.240000E+03	1.378783E-17	7.312333E-18
3.250000E+03	1.390479E-17	7.328500E-18
3.260000E+03	1.402209E-17	7.343784E-18
3.270000E+03	1.414192E-17	7.359309E-18
3.280000E+03	1.426210E-17	7.373917E-18
3.290000E+03	1.438262E-17	7.387593E-18
3.300000E+03	1.450570E-17	7.401448E-18
3.310000E+03	1.462913E-17	7.414336E-18
3.320000E+03	1.475512E-17	7.427356E-18
3.330000E+03	1.487925E-17	7.438260E-18
3.340000E+03	1.500596E-17	7.449259E-18
3.350000E+03	1.513526E-17	7.460325E-18
3.360000E+03	1.526267E-17	7.469236E-18
3.370000E+03	1.539269E-17	7.478173E-18
3.380000E+03	1.552531E-17	7.487108E-18
3.390000E+03	1.565604E-17	7.493848E-18
3.400000E+03	1.579165E-17	7.501620E-18
3.410000E+03	1.592536E-17	7.507166E-18
3.420000E+03	1.606170E-17	7.512617E-18
3.430000E+03	1.619840E-17	7.516880E-18
3.440000E+03	1.633547E-17	7.519941E-18
3.450000E+03	1.647519E-17	7.522831E-18
3.460000E+03	1.661757E-17	7.525515E-18
3.470000E+03	1.675802E-17	7.525891E-18
3.480000E+03	1.690113E-17	7.526017E-18
3.490000E+03	1.704461E-17	7.524837E-18
3.500000E+03	1.719078E-17	7.523349E-18
3.510000E+03	1.733731E-17	7.520508E-18
3.520000E+03	1.748654E-17	7.517300E-18
3.530000E+03	1.763613E-17	7.512693E-18
3.540000E+03	1.778609E-17	7.506669E-18
3.550000E+03	1.793641E-17	7.499211E-18
3.560000E+03	1.808944E-17	7.491277E-18
3.570000E+03	1.824519E-17	7.482829E-18
3.580000E+03	1.840130E-17	7.472866E-18
3.590000E+03	1.855777E-17	7.461371E-18
3.600000E+03	1.871459E-17	7.448327E-18
3.610000E+03	1.887414E-17	7.434653E-18
3.620000E+03	1.903642E-17	7.420310E-18
3.630000E+03	1.919666E-17	7.403410E-18
3.640000E+03	1.935963E-17	7.385788E-18
3.650000E+03	1.952534E-17	7.367403E-18
3.660000E+03	1.969138E-17	7.347313E-18
3.670000E+03	1.985775E-17	7.325500E-18
3.680000E+03	2.002685E-17	7.302829E-18
3.690000E+03	2.019626E-17	7.278381E-18
3.700000E+03	2.036841E-17	7.253004E-18
3.710000E+03	2.054086E-17	7.225796E-18
3.720000E+03	2.071360E-17	7.196741E-18
3.730000E+03	2.088906E-17	7.166657E-18
3.740000E+03	2.106478E-17	7.134672E-18
3.750000E+03	2.124322E-17	7.101586E-18
3.760000E+03	2.142190E-17	7.066543E-18
3.770000E+03	2.160328E-17	7.030328E-18
3.780000E+03	2.178242E-17	6.991309E-18
3.790000E+03	2.196669E-17	6.951847E-18
3.800000E+03	2.214868E-17	6.909547E-18
3.810000E+03	2.233580E-17	6.866713E-18
3.820000E+03	2.252058E-17	6.821006E-18
3.830000E+03	2.270798E-17	6.773930E-18
3.840000E+03	2.289798E-17	6.725438E-18
3.850000E+03	2.308557E-17	6.674038E-18
3.860000E+03	2.327823E-17	6.621886E-18
3.870000E+03	2.346841E-17	6.566798E-18
3.880000E+03	2.366110E-17	6.510178E-18
3.890000E+03	2.385629E-17	6.451981E-18
3.900000E+03	2.405142E-17	6.391494E-18
3.910000E+03	2.424646E-17	6.328706E-18
3.920000E+03	2.444390E-17	6.264260E-18
3.930000E+03	2.464117E-17	6.197475E-18
3.940000E+03	2.484077E-17	6.128975E-18
3.950000E+03	2.504013E-17	6.058106E-18
3.960000E+03	2.523918E-17	5.984866E-18
3.970000E+03	2.544044E-17	5.909847E-18
3.980000E+03	2.564387E-17	5.833020E-18
3.990000E+03	2.584429E-17	5.753214E-18
4.000000E+03	2.604676E-17	5.671589E-18
4.010000E+03	2.625124E-17	5.588122E-18
4.020000E+03	2.645510E-17	5.502257E-18
4.030000E+03	2.665827E-17	5.414013E-18
4.040000E+03	2.686326E-17	5.323927E-18
4.050000E+03	2.706742E-17	5.231491E-18
4.060000E+03	2.727326E-17	5.137226E-18
4.070000E+03	2.747813E-17	5.040663E-18
4.080000E+03	2.768194E-17	4.941849E-18
4.090000E+03	2.788720E-17	4.841290E-18
4.100000E+03	2.809123E-17	4.738577E-18
4.110000E+03	2.829394E-17	4.633785E-18
4.120000E+03	2.849784E-17	4.527412E-18
4.130000E+03	2.870283E-17	4.419521E-18
4.140000E+03	2.890362E-17	4.309412E-18
4.150000E+03	2.910791E-17	4.198382E-18
4.160000E+03	2.930778E-17	4.085415E-18
4.170000E+03	2.950834E-17	3.971422E-18
4.180000E+03	2.970688E-17	3.856226E-18
4.190000E+03	2.990588E-17	3.740379E-18
4.200000E+03	3.010263E-17	3.623791E-18
4.210000E+03	3.029701E-17	3.506760E-18
4.220000E+03	3.049152E-17	3.389921E-18
4.230000E+03	3.068343E-17	3.273356E-18
4.240000E+03	3.087261E-17	3.157521E-18
4.250000E+03	3.106157E-17	3.043197E-18
4.260000E+03	3.124758E-17	2.930710E-18
4.270000E+03	3.143312E-17	2.820989E-18
4.280000E+03	3.161288E-17	2.714350E-18
4.290000E+03	3.179455E-17	2.612368E-18
4.300000E+03	3.197021E-17	2.515393E-18
4.310000E+03	3.214496E-17	2.424981E-18
4.320000E+03	3.231611E-17	2.342164E-18
4.330000E+03	3.248356E-17	2.268273E-18
4.340000E+03	3.264981E-17	2.204860E-18
4.350000E+03	3.281218E-17	2.153103E-18
4.360000E+03	3.297061E-17	2.114271E-18
4.370000E+03	3.312760E-17	2.089600E-18
4.380000E+03	3.328052E-17	2.079705E-18
4.390000E+03	3.342932E-17	2.084992E-18
4.400000E+03	3.357654E-17	2.105600E-18
4.410000E+03	3.371701E-17	2.140765E-18
4.420000E+03	3.385585E-17	2.190005E-18
4.430000E+03	3.399304E-17	2.252243E-18
4.440000E+03	3.412349E-17	2.325884E-18
4.450000E+03	3.425230E-17	2.409930E-18
4.460000E+03	3.437696E-17	2.502864E-18
4.470000E+03	3.449750E-17	2.603387E-18
4.480000E+03	3.461649E-17	2.710483E-18
4.490000E+03	3.473143E-17	2.822860E-18
4.500000E+03	3.484239E-17	2.939518E-18
4.510000E+03	3.494943E-17	3.059569E-18
4.520000E+03	3.505262E-17	3.182225E-18
4.530000E+03	3.515452E-17	3.307027E-18
4.540000E+03	3.525024E-17	3.432907E-18
4.550000E+03	3.534482E-17	3.559804E-18
4.560000E+03	3.543587E-17	3.687015E-18
4.570000E+03	3.552592E-17	3.814391E-18
4.580000E+03	3.561016E-17	3.941049E-18
4.590000E+03	3.569359E-17	4.067202E-18
4.600000E+03	3.577384E-17	4.192304E-18
4.610000E+03	3.584859E-17	4.315812E-18
4.620000E+03	3.592280E-17	4.438082E-18
4.630000E+03	3.599655E-17	4.558937E-18
4.640000E+03	3.606510E-17	4.677599E-18
4.650000E+03	3.613099E-17	4.794210E-18
4.660000E+03	3.619669E-17	4.908958E-18
4.670000E+03	3.625754E-17	5.021078E-18
4.680000E+03	3.631839E-17	5.131115E-18
4.690000E+03	3.637695E-17	5.238648E-18
4.700000E+03	3.643333E-17	5.343592E-18
4.710000E+03	3.648762E-17	5.445873E-18
4.720000E+03	3.653993E-17	5.545425E-18
4.730000E+03	3.659035E-17	5.642191E-18
4.740000E+03	3.663897E-17	5.736121E-18
4.750000E+03	3.668589E-17	5.827172E-18
4.760000E+03	3.673120E-17	5.915309E-18
4.770000E+03	3.677499E-17	6.000501E-18
4.780000E+03	3.681735E-17	6.082725E-18
4.790000E+03	3.685836E-17	6.161962E-18
4.800000E+03	3.689812E-17	6.238196E-18
4.810000E+03	3.693894E-17	6.311802E-18
4.820000E+03	3.697642E-17	6.382011E-18
4.830000E+03	3.701289E-17	6.449201E-18
4.840000E+03	3.704843E-17	6.513375E-18
4.850000E+03	3.708311E-17	6.574540E-18
4.860000E+03	3.711702E-17	6.632704E-18
4.870000E+03	3.715022E-17	6.687880E-18
4.880000E+03	3.718061E-17	6.739690E-18
4.890000E+03	3.721262E-17	6.788941E-18
4.900000E+03	3.724414E-17	6.835261E-18
4.910000E+03	3.727308E-17	6.878277E-18
4.920000E+03	3.730383E-17	6.918811E-18
4.930000E+03	3.733214E-17	6.956099E-18
4.940000E+03	3.736025E-17	6.990570E-18
4.950000E+03	3.738820E-17	7.022260E-18
4.960000E+03	3.741606E-17	7.051206E-18
4.970000E+03	3.744388E-17	7.077451E-18
4.980000E+03	3.747173E-17	7.101035E-18
4.990000E+03	3.749758E-17	7.121610E-18
5.000000E+03	3.752358E-17	7.139621E-18
5.010000E+03	3.754979E-17	7.155117E-18
5.020000E+03	3.757626E-17	7.168153E-18
5.030000E+03	3.760304E-17	7.178783E-18
5.040000E+03	3.763018E-17	7.187066E-18
5.050000E+03	3.765569E-17	7.192674E-18
5.060000E+03	3.768168E-17	7.196062E-18
5.070000E+03	3.770820E-17	7.197296E-18
5.080000E+03	3.773327E-17	7.196061E-18
5.090000E+03	3.776097E-17	7.193198E-18
5.100000E+03	3.778734E-17	7.188016E-18
5.110000E+03	3.781442E-17	7.180977E-18
5.120000E+03	3.784227E-17	7.172159E-18
5.130000E+03	3.786894E-17	7.161274E-18
5.140000E+03	3.789647E-17	7.148785E-18
5.150000E+03	3.792490E-17	7.134783E-18
5.160000E+03	3.795231E-17	7.118993E-18
5.170000E+03	3.798072E-17	7.101882E-18
5.180000E+03	3.801015E-17	7.083551E-18
5.190000E+03	3.804066E-17	7.064102E-18
5.200000E+03	3.807033E-17	7.043284E-18
5.210000E+03	3.810117E-17	7.021568E-18
5.220000E+03	3.813127E-17	6.998715E-18
5.230000E+03	3.816261E-17	6.975198E-18
5.240000E+03	3.819523E-17	6.951138E-18
5.250000E+03	3.822915E-17	6.926657E-18
5.260000E+03	3.826252E-17	6.901539E-18
5.270000E+03	3.829539E-17	6.875920E-18
5.280000E+03	3.833157E-17	6.850615E-18
5.290000E+03	3.836733E-17	6.825081E-18
5.300000E+03	3.840270E-17	6.799463E-18
5.310000E+03	3.843961E-17	6.774236E-18
5.320000E+03	3.847808E-17	6.749543E-18
5.330000E+03	3.851630E-17	6.725199E-18
5.340000E+03	3.855615E-17	6.701679E-18
5.350000E+03	3.859581E-17	6.678805E-18
5.360000E+03	3.863719E-17	6.657046E-18
5.370000E+03	3.868029E-17	6.636543E-18
5.380000E+03	3.872331E-17	6.617124E-18
5.390000E+03	3.876814E-17	6.599244E-18
5.400000E+03	3.881295E-17	6.582728E-18
5.410000E+03	3.885780E-17	6.567710E-18
5.420000E+03	3.890637E-17	6.554935E-18
5.430000E+03	3.895320E-17	6.543599E-18
5.440000E+03	3.900198E-17	6.534427E-18
5.450000E+03	3.905274E-17	6.527518E-18
5.460000E+03	3.910368E-17	6.522658E-18
5.470000E+03	3.915665E-17	6.520224E-18
5.480000E+03	3.920986E-17	6.519974E-18
5.490000E+03	3.926515E-17	6.522245E-18
5.500000E+03	3.932074E-17	6.526755E-18
5.510000E+03	3.937845E-17	6.533793E-18
5.520000E+03	3.943651E-17	6.543034E-18
5.530000E+03	3.949495E-17	6.554428E-18
5.540000E+03	3.955558E-17	6.568206E-18
5.550000E+03	3.961842E-17	6.584286E-18
5.560000E+03	3.967991E-17	6.601983E-18
5.570000E+03	3.974544E-17	6.622083E-18
5.580000E+03	3.980968E-17	6.643581E-18
5.590000E+03	3.987798E-17	6.667249E-18
5.600000E+03	3.994503E-17	6.692066E-18
5.610000E+03	4.001440E-17	6.718494E-18
5.620000E+03	4.008610E-17	6.746395E-18
5.630000E+03	4.015662E-17	6.775032E-18
5.640000E+03	4.023127E-17	6.805154E-18
5.650000E+03	4.030477E-17	6.835720E-18
5.660000E+03	4.038067E-17	6.867179E-18
5.670000E+03	4.045898E-17	6.899386E-18
5.680000E+03	4.053619E-17	6.931587E-18
5.690000E+03	4.061761E-17	6.964542E-18
5.700000E+03	4.069795E-17	6.997196E-18
5.710000E+03	4.078077E-17	7.030008E-18
5.720000E+03	4.086430E-17	7.062530E-18
5.730000E+03	4.095033E-17	7.094927E-18
5.740000E+03	4.103710E-17	7.126751E-18
5.750000E+03	4.112463E-17	7.157865E-18
5.760000E+03	4.121469E-17	7.188440E-18
5.770000E+03	4.130554E-17	7.218036E-18
5.780000E+03	4.139893E-17	7.246832E-18
5.790000E+03	4.149137E-17	7.274081E-18
5.800000E+03	4.158638E-17	7.300277E-18
5.810000E+03	4.168398E-17	7.325299E-18
5.820000E+03	4.178240E-17	7.348718E-18
5.830000E+03	4.188167E-17	7.370417E-18
5.840000E+03	4.198178E-17	7.390280E-18
5.850000E+03	4.208451E-17	7.408510E-18
5.860000E+03	4.218810E-17	7.424684E-18
5.870000E+03	4.229255E-17	7.438698E-18
5.880000E+03	4.239964E-17	7.450758E-18
5.890000E+03	4.250761E-17	7.460452E-18
5.900000E+03	4.261823E-17	7.467992E-18
5.910000E+03	4.272795E-17	7.472659E-18
5.920000E+03	4.284032E-17	7.474979E-18
5.930000E+03	4.295536E-17	7.474859E-18
5.940000E+03	4.306948E-17	7.471588E-18
5.950000E+03	4.318626E-17	7.465697E-18
5.960000E+03	4.330391E-17	7.456789E-18
5.970000E+03	4.342421E-17	7.445086E-18
5.980000E+03	4.354536E-17	7.430196E-18
5.990000E+03	4.366735E-17	7.412037E-18
6.000000E+03	4.379017E-17	7.390530E-18
6.010000E+03	4.391560E-17	7.365898E-18
6.020000E+03	4.404183E-17	7.337759E-18
6.030000E+03	4.416883E-17	7.306038E-18
6.040000E+03	4.429840E-17	7.270959E-18
6.050000E+03	4.442869E-17	7.232147E-18
6.060000E+03	4.455969E-17	7.189532E-18
6.070000E+03	4.469317E-17	7.143334E-18
6.080000E+03	4.482547E-17	7.092902E-18
6.090000E+03	4.496200E-17	7.039033E-18
6.100000E+03	4.509727E-17	6.980796E-18
6.110000E+03	4.523486E-17	6.918697E-18
6.120000E+03	4.537291E-17	6.852386E-18
6.130000E+03	4.551135E-17	6.781802E-18
6.140000E+03	4.565012E-17	6.706887E-18
6.150000E+03	4.579101E-17	6.627850E-18
6.160000E+03	4.593208E-17	6.544360E-18
6.170000E+03	4.607513E-17	6.456626E-18
6.180000E+03	4.621822E-17	6.364328E-18
6.190000E+03	4.636125E-17	6.267417E-18
6.200000E+03	4.650414E-17	6.165847E-18
6.210000E+03	4.664864E-17	6.059820E-18
6.220000E+03	4.679280E-17	5.949043E-18
6.230000E+03	4.693648E-17	5.833481E-18
6.240000E+03	4.707957E-17	5.713103E-18
6.250000E+03	4.722384E-17	5.588108E-18
6.260000E+03	4.736726E-17	5.458240E-18
6.270000E+03	4.751160E-17	5.323700E-18
6.280000E+03	4.765483E-17	5.184255E-18
6.290000E+03	4.779679E-17	5.039907E-18
6.300000E+03	4.793733E-17	4.890668E-18
6.310000E+03	4.807822E-17	4.736749E-18
6.320000E+03	4.821738E-17	4.577982E-18
6.330000E+03	4.835465E-17	4.414420E-18
6.340000E+03	4.849181E-17	4.246301E-18
6.350000E+03	4.862676E-17	4.073532E-18
6.360000E+03	4.875935E-17	3.896232E-18
6.370000E+03	4.888942E-17	3.714553E-18
6.380000E+03	4.901876E-17	3.528828E-18
6.390000E+03	4.914724E-17	3.339283E-18
6.400000E+03	4.927082E-17	3.145962E-18
6.410000E+03	4.939329E-17	2.949535E-18
6.420000E+03	4.951454E-17	2.750515E-18
6.430000E+03	4.963053E-17	2.549391E-18
6.440000E+03	4.974512E-17	2.347341E-18
6.450000E+03	4.985627E-17	2.145587E-18
6.460000E+03	4.996593E-17	1.946086E-18
6.470000E+03	5.007208E-17	1.751450E-18
6.480000E+03	5.017671E-17	1.565709E-18
6.490000E+03	5.027584E-17	1.394596E-18
6.500000E+03	5.037349E-17	1.246749E-18
6.510000E+03	5.046969E-17	1.133742E-18
6.520000E+03	5.056247E-17	1.068884E-18
6.530000E+03	5.065181E-17	1.062825E-18
6.540000E+03	5.073969E-17	1.117720E-18
6.550000E+03	5.082400E-17	1.225912E-18
6.560000E+03	5.090462E-17	1.374938E-18
6.570000E+03	5.098345E-17	1.552893E-18
6.580000E+03	5.105832E-17	1.750501E-18
6.590000E+03	5.112913E-17	1.961278E-18
6.600000E+03	5.119779E-17	2.180881E-18
6.610000E+03	5.126422E-17	2.406302E-18
6.620000E+03	5.132633E-17	2.635345E-18
6.630000E+03	5.138407E-17	2.866494E-18
6.640000E+03	5.143740E-17	3.098634E-18
6.650000E+03	5.148838E-17	3.331060E-18
6.660000E+03	5.153703E-17	3.563148E-18
6.670000E+03	5.158130E-17	3.794260E-18
6.680000E+03	5.162124E-17	4.023980E-18
6.690000E+03	5.165897E-17	4.252133E-18
6.700000E+03	5.169246E-17	4.478280E-18
6.710000E+03	5.172387E-17	4.702361E-18
6.720000E+03	5.175120E-17	4.923993E-18
6.730000E+03	5.177451E-17	5.142990E-18
6.740000E+03	5.179598E-17	5.359401E-18
6.750000E+03	5.181567E-17	5.573104E-18
6.760000E+03	5.183160E-17	5.783759E-18
6.770000E+03	5.184386E-17	5.991247E-18
6.780000E+03	5.185460E-17	6.195703E-18
6.790000E+03	5.186181E-17	6.396795E-18
6.800000E+03	5.186768E-17	6.594694E-18
6.810000E+03	5.187226E-17	6.789335E-18
6.820000E+03	5.187146E-17	6.980098E-18
6.830000E+03	5.187161E-17	7.167749E-18
6.840000E+03	5.186860E-17	7.351669E-18
6.850000E+03	5.186247E-17	7.531787E-18
6.860000E+03	5.185538E-17	7.708351E-18
6.870000E+03	5.184528E-17	7.881001E-18
6.880000E+03	5.183430E-17	8.050004E-18
6.890000E+03	5.182040E-17	8.214990E-18
6.900000E+03	5.180571E-17	8.376245E-18
6.910000E+03	5.179025E-17	8.533735E-18
6.920000E+03	5.177194E-17	8.687076E-18
6.930000E+03	5.175081E-17	8.836218E-18
6.940000E+03	5.173109E-17	8.981846E-18
6.950000E+03	5.170646E-17	9.122832E-18
6.960000E+03	5.168113E-17	9.259870E-18
6.970000E+03	5.165513E-17	9.392932E-18
6.980000E+03	5.162845E-17	9.521995E-18
6.990000E+03	5.159897E-17	9.646636E-18
7.000000E+03	5.156667E-17	9.766813E-18
7.010000E+03	5.153367E-17	9.882895E-18
7.020000E+03	5.149995E-17	9.994855E-18
7.030000E+03	5.146337E-17	1.010226E-17
7.040000E+03	5.142604E-17	1.020548E-17
7.050000E+03	5.138580E-17	1.030408E-17
7.060000E+03	5.134475E-17	1.039846E-17
7.070000E+03	5.130286E-17	1.048858E-17
7.080000E+03	5.125798E-17	1.057399E-17
7.090000E+03	5.121220E-17	1.065510E-17
7.100000E+03	5.116336E-17	1.073145E-17
7.110000E+03	5.111354E-17	1.080345E-17
7.120000E+03	5.106272E-17	1.087109E-17
7.130000E+03	5.101084E-17	1.093434E-17
7.140000E+03	5.095361E-17	1.099228E-17
7.150000E+03	5.089737E-17	1.104625E-17
7.160000E+03	5.083782E-17	1.109531E-17
7.170000E+03	5.077703E-17	1.113991E-17
7.180000E+03	5.071496E-17	1.118004E-17
7.190000E+03	5.064944E-17	1.121520E-17
7.200000E+03	5.058253E-17	1.124585E-17
7.210000E+03	5.051206E-17	1.127151E-17
7.220000E+03	5.044010E-17	1.129263E-17
7.230000E+03	5.036660E-17	1.130921E-17
7.240000E+03	5.029150E-17	1.132123E-17
7.250000E+03	5.021261E-17	1.132820E-17
7.260000E+03	5.013201E-17	1.133060E-17
7.270000E+03	5.004750E-17	1.132794E-17
7.280000E+03	4.996116E-17	1.132068E-17
7.290000E+03	4.987291E-17	1.130883E-17
7.300000E+03	4.978271E-17	1.129238E-17
7.310000E+03	4.968834E-17	1.127085E-17
7.320000E+03	4.959188E-17	1.124472E-17
7.330000E+03	4.949325E-17	1.121399E-17
7.340000E+03	4.939026E-17	1.117817E-17
7.350000E+03	4.928497E-17	1.113776E-17
7.360000E+03	4.917730E-17	1.109276E-17
7.370000E+03	4.906506E-17	1.104270E-17
7.380000E+03	4.895242E-17	1.098854E-17
7.390000E+03	4.883505E-17	1.092934E-17
7.400000E+03	4.871287E-17	1.086510E-17
7.410000E+03	4.859006E-17	1.079680E-17
7.420000E+03	4.846229E-17	1.072351E-17
7.430000E+03	4.833159E-17	1.064570E-17
7.440000E+03	4.819577E-17	1.056294E-17
7.450000E+03	4.805897E-17	1.047618E-17
7.460000E+03	4.791687E-17	1.038451E-17
7.470000E+03	4.777151E-17	1.028843E-17
7.480000E+03	4.762068E-17	1.018750E-17
7.490000E+03	4.746641E-17	1.008222E-17
7.500000E+03	4.731069E-17	9.973066E-18
7.510000E+03	4.714715E-17	9.858738E-18
7.520000E+03	4.698198E-17	9.740604E-18
7.530000E+03	4.681090E-17	9.617833E-18
7.540000E+03	4.663591E-17	9.490906E-18
7.550000E+03	4.645692E-17	9.359871E-18
7.560000E+03	4.627384E-17	9.224779E-18
7.570000E+03	4.608449E-17	9.085274E-18
7.580000E+03	4.589294E-17	8.942236E-18
7.590000E+03	4.569496E-17	8.794916E-18
7.600000E+03	4.549047E-17	8.643397E-18
7.610000E+03	4.528351E-17	8.488538E-18
7.620000E+03	4.506990E-17	8.329636E-18
7.630000E+03	4.485161E-17	8.167163E-18
7.640000E+03	4.462857E-17	8.001202E-18
7.650000E+03	4.440073E-17	7.831841E-18
7.660000E+03	4.416600E-17	7.658825E-18
7.670000E+03	4.392839E-17	7.482961E-18
7.680000E+03	4.368382E-17	7.303658E-18
7.690000E+03	4.343430E-17	7.121379E-18
7.700000E+03	4.317780E-17	6.935919E-18
7.710000E+03	4.291833E-17	6.748049E-18
7.720000E+03	4.265192E-17	6.557263E-18
7.730000E+03	4.238060E-17	6.364016E-18
7.740000E+03	4.210444E-17	6.168448E-18
7.750000E+03	4.182349E-17	5.970706E-18
7.760000E+03	4.153787E-17	5.770940E-18
