#wls	flux	fluxerr
1.600000E+03	1.518637E-18	1.435982E-18
1.640000E+03	1.561572E-18	1.469783E-18
1.680000E+03	1.606184E-18	1.504559E-18
1.720000E+03	1.653311E-18	1.541043E-18
1.760000E+03	1.701529E-18	1.577852E-18
1.800000E+03	1.752463E-18	1.616440E-18
1.840000E+03	1.805442E-18	1.656120E-18
1.880000E+03	1.860562E-18	1.696913E-18
1.920000E+03	1.917920E-18	1.738838E-18
1.960000E+03	1.977620E-18	1.781914E-18
2.000000E+03	2.040675E-18	1.826964E-18
2.040000E+03	2.105412E-18	1.872402E-18
2.080000E+03	2.173784E-18	1.919873E-18
2.120000E+03	2.245013E-18	1.968577E-18
2.160000E+03	2.319232E-18	2.018521E-18
2.200000E+03	2.397609E-18	2.070599E-18
2.240000E+03	2.478253E-18	2.123043E-18
2.280000E+03	2.563410E-18	2.177647E-18
2.320000E+03	2.652205E-18	2.233508E-18
2.360000E+03	2.744806E-18	2.290608E-18
2.400000E+03	2.841383E-18	2.348921E-18
2.440000E+03	2.943340E-18	2.409415E-18
2.480000E+03	3.048450E-18	2.470063E-18
2.520000E+03	3.159392E-18	2.532836E-18
2.560000E+03	3.275144E-18	2.596669E-18
2.600000E+03	3.395915E-18	2.661484E-18
2.640000E+03	3.523340E-18	2.728292E-18
2.680000E+03	3.654842E-18	2.794808E-18
2.720000E+03	3.793535E-18	2.863129E-18
2.760000E+03	3.938236E-18	2.932014E-18
2.800000E+03	4.089182E-18	3.001302E-18
2.840000E+03	4.246619E-18	3.070809E-18
2.880000E+03	4.410791E-18	3.140327E-18
2.920000E+03	4.583712E-18	3.210860E-18
2.960000E+03	4.763977E-18	3.280946E-18
3.000000E+03	4.951837E-18	3.350290E-18
3.010000E+03	4.999543E-18	3.367152E-18
3.020000E+03	5.047735E-18	3.383940E-18
3.030000E+03	5.096417E-18	3.400649E-18
3.040000E+03	5.147540E-18	3.418564E-18
3.050000E+03	5.197229E-18	3.435100E-18
3.060000E+03	5.247419E-18	3.451539E-18
3.070000E+03	5.298114E-18	3.467874E-18
3.080000E+03	5.351328E-18	3.485409E-18
3.090000E+03	5.403059E-18	3.501522E-18
3.100000E+03	5.455306E-18	3.517512E-18
3.110000E+03	5.510132E-18	3.534695E-18
3.120000E+03	5.563436E-18	3.550424E-18
3.130000E+03	5.617266E-18	3.566009E-18
3.140000E+03	5.673736E-18	3.582776E-18
3.150000E+03	5.728644E-18	3.598056E-18
3.160000E+03	5.786234E-18	3.614512E-18
3.170000E+03	5.842234E-18	3.629457E-18
3.180000E+03	5.898775E-18	3.644220E-18
3.190000E+03	5.958060E-18	3.660146E-18
3.200000E+03	6.015712E-18	3.674527E-18
3.210000E+03	6.076149E-18	3.690060E-18
3.220000E+03	6.134923E-18	3.704024E-18
3.230000E+03	6.196525E-18	3.719129E-18
3.240000E+03	6.256432E-18	3.732641E-18
3.250000E+03	6.316900E-18	3.745913E-18
3.260000E+03	6.380260E-18	3.760307E-18
3.270000E+03	6.441877E-18	3.773071E-18
3.280000E+03	6.506429E-18	3.786945E-18
3.290000E+03	6.569203E-18	3.799164E-18
3.300000E+03	6.634956E-18	3.812477E-18
3.310000E+03	6.698896E-18	3.824111E-18
3.320000E+03	6.765859E-18	3.836823E-18
3.330000E+03	6.833438E-18	3.849219E-18
3.340000E+03	6.899152E-18	3.859898E-18
3.350000E+03	6.967953E-18	3.871628E-18
3.360000E+03	7.034850E-18	3.881616E-18
3.370000E+03	7.104877E-18	3.892635E-18
3.380000E+03	7.172962E-18	3.901887E-18
3.390000E+03	7.244220E-18	3.912150E-18
3.400000E+03	7.313496E-18	3.920618E-18
3.410000E+03	7.385989E-18	3.930077E-18
3.420000E+03	7.459111E-18	3.939116E-18
3.430000E+03	7.530189E-18	3.946321E-18
3.440000E+03	7.604549E-18	3.954481E-18
3.450000E+03	7.679538E-18	3.962184E-18
3.460000E+03	7.752418E-18	3.968014E-18
3.470000E+03	7.828644E-18	3.974761E-18
3.480000E+03	7.905499E-18	3.981011E-18
3.490000E+03	7.980177E-18	3.985349E-18
3.500000E+03	8.058264E-18	3.990564E-18
3.510000E+03	8.136978E-18	3.995241E-18
3.520000E+03	8.213442E-18	3.997967E-18
3.530000E+03	8.293380E-18	4.001527E-18
3.540000E+03	8.373938E-18	4.004507E-18
3.550000E+03	8.452172E-18	4.005497E-18
3.560000E+03	8.533942E-18	4.007276E-18
3.570000E+03	8.616324E-18	4.008430E-18
3.580000E+03	8.696305E-18	4.007559E-18
3.590000E+03	8.779882E-18	4.007427E-18
3.600000E+03	8.864061E-18	4.006627E-18
3.610000E+03	8.948841E-18	4.005145E-18
3.620000E+03	9.031107E-18	4.001590E-18
3.630000E+03	9.117049E-18	3.998703E-18
3.640000E+03	9.203576E-18	3.995091E-18
3.650000E+03	9.290684E-18	3.990737E-18
3.660000E+03	9.375162E-18	3.984265E-18
3.670000E+03	9.463390E-18	3.978389E-18
3.680000E+03	9.552181E-18	3.971727E-18
3.690000E+03	9.641528E-18	3.964264E-18
3.700000E+03	9.728121E-18	3.954643E-18
3.710000E+03	9.818535E-18	3.945541E-18
3.720000E+03	9.909484E-18	3.935595E-18
3.730000E+03	1.000096E-17	3.924790E-18
3.740000E+03	1.009295E-17	3.913112E-18
3.750000E+03	1.018202E-17	3.899234E-18
3.760000E+03	1.027500E-17	3.885776E-18
3.770000E+03	1.036846E-17	3.871404E-18
3.780000E+03	1.046240E-17	3.856105E-18
3.790000E+03	1.055681E-17	3.839865E-18
3.800000E+03	1.065168E-17	3.822673E-18
3.810000E+03	1.074341E-17	3.803246E-18
3.820000E+03	1.083913E-17	3.784120E-18
3.830000E+03	1.093527E-17	3.764006E-18
3.840000E+03	1.103182E-17	3.742893E-18
3.850000E+03	1.112876E-17	3.720772E-18
3.860000E+03	1.122608E-17	3.697631E-18
3.870000E+03	1.132002E-17	3.672250E-18
3.880000E+03	1.141802E-17	3.647056E-18
3.890000E+03	1.151636E-17	3.620821E-18
3.900000E+03	1.161501E-17	3.593536E-18
3.910000E+03	1.171397E-17	3.565196E-18
3.920000E+03	1.181320E-17	3.535798E-18
3.930000E+03	1.191269E-17	3.505338E-18
3.940000E+03	1.201243E-17	3.473814E-18
3.950000E+03	1.210845E-17	3.440104E-18
3.960000E+03	1.220859E-17	3.406466E-18
3.970000E+03	1.230891E-17	3.371769E-18
3.980000E+03	1.240939E-17	3.336016E-18
3.990000E+03	1.251001E-17	3.299214E-18
4.000000E+03	1.261075E-17	3.261374E-18
4.010000E+03	1.271158E-17	3.222504E-18
4.020000E+03	1.281248E-17	3.182621E-18
4.030000E+03	1.290926E-17	3.140728E-18
4.040000E+03	1.301019E-17	3.098884E-18
4.050000E+03	1.311110E-17	3.056086E-18
4.060000E+03	1.321199E-17	3.012362E-18
4.070000E+03	1.331280E-17	2.967743E-18
4.080000E+03	1.341352E-17	2.922265E-18
4.090000E+03	1.351412E-17	2.875969E-18
4.100000E+03	1.361456E-17	2.828902E-18
4.110000E+03	1.371482E-17	2.781117E-18
4.120000E+03	1.381047E-17	2.731806E-18
4.130000E+03	1.391023E-17	2.682790E-18
4.140000E+03	1.400971E-17	2.633258E-18
4.150000E+03	1.410886E-17	2.583298E-18
4.160000E+03	1.420767E-17	2.533003E-18
4.170000E+03	1.430608E-17	2.482480E-18
4.180000E+03	1.440406E-17	2.431848E-18
4.190000E+03	1.450158E-17	2.381240E-18
4.200000E+03	1.459402E-17	2.330071E-18
4.210000E+03	1.469046E-17	2.279984E-18
4.220000E+03	1.478633E-17	2.230413E-18
4.230000E+03	1.488157E-17	2.181558E-18
4.240000E+03	1.497615E-17	2.133638E-18
4.250000E+03	1.507002E-17	2.086896E-18
4.260000E+03	1.516314E-17	2.041595E-18
4.270000E+03	1.525547E-17	1.998021E-18
4.280000E+03	1.534220E-17	1.955876E-18
4.290000E+03	1.543279E-17	1.916714E-18
4.300000E+03	1.552245E-17	1.880264E-18
4.310000E+03	1.561115E-17	1.846885E-18
4.320000E+03	1.569882E-17	1.816952E-18
4.330000E+03	1.578544E-17	1.790837E-18
4.340000E+03	1.587095E-17	1.768911E-18
4.350000E+03	1.595041E-17	1.750987E-18
4.360000E+03	1.603356E-17	1.738472E-18
4.370000E+03	1.611546E-17	1.731110E-18
4.380000E+03	1.619608E-17	1.729140E-18
4.390000E+03	1.627537E-17	1.732739E-18
4.400000E+03	1.634833E-17	1.741429E-18
4.410000E+03	1.642492E-17	1.756189E-18
4.420000E+03	1.650018E-17	1.776349E-18
4.430000E+03	1.657410E-17	1.801709E-18
4.440000E+03	1.664672E-17	1.832021E-18
4.450000E+03	1.671298E-17	1.866437E-18
4.460000E+03	1.678299E-17	1.905760E-18
4.470000E+03	1.685172E-17	1.949110E-18
4.480000E+03	1.691919E-17	1.996150E-18
4.490000E+03	1.698541E-17	2.046546E-18
4.500000E+03	1.704529E-17	2.099338E-18
4.510000E+03	1.710906E-17	2.155455E-18
4.520000E+03	1.717164E-17	2.213978E-18
4.530000E+03	1.722790E-17	2.273944E-18
4.540000E+03	1.728814E-17	2.336425E-18
4.550000E+03	1.734724E-17	2.400511E-18
4.560000E+03	1.740524E-17	2.465970E-18
4.570000E+03	1.745695E-17	2.531838E-18
4.580000E+03	1.751276E-17	2.599403E-18
4.590000E+03	1.756753E-17	2.667753E-18
4.600000E+03	1.761605E-17	2.735912E-18
4.610000E+03	1.766877E-17	2.805330E-18
4.620000E+03	1.772051E-17	2.875076E-18
4.630000E+03	1.776605E-17	2.944158E-18
4.640000E+03	1.781588E-17	3.014174E-18
4.650000E+03	1.786479E-17	3.084171E-18
4.660000E+03	1.790755E-17	3.153127E-18
4.670000E+03	1.795470E-17	3.222784E-18
4.680000E+03	1.800099E-17	3.292156E-18
4.690000E+03	1.804119E-17	3.360185E-18
4.700000E+03	1.808585E-17	3.428749E-18
4.710000E+03	1.812445E-17	3.495805E-18
4.720000E+03	1.816758E-17	3.563314E-18
4.730000E+03	1.820469E-17	3.629170E-18
4.740000E+03	1.824637E-17	3.695418E-18
4.750000E+03	1.828737E-17	3.760976E-18
4.760000E+03	1.832241E-17	3.824699E-18
4.770000E+03	1.836211E-17	3.888747E-18
4.780000E+03	1.839588E-17	3.950858E-18
4.790000E+03	1.843437E-17	4.013267E-18
4.800000E+03	1.846697E-17	4.073649E-18
4.810000E+03	1.849903E-17	4.133123E-18
4.820000E+03	1.853588E-17	4.192872E-18
4.830000E+03	1.856690E-17	4.250484E-18
4.840000E+03	1.860277E-17	4.308366E-18
4.850000E+03	1.863286E-17	4.364048E-18
4.860000E+03	1.866785E-17	4.420003E-18
4.870000E+03	1.869709E-17	4.473705E-18
4.880000E+03	1.872594E-17	4.526396E-18
4.890000E+03	1.875977E-17	4.579373E-18
4.900000E+03	1.878791E-17	4.630033E-18
4.910000E+03	1.881573E-17	4.679664E-18
4.920000E+03	1.884860E-17	4.729604E-18
4.930000E+03	1.887584E-17	4.777180E-18
4.940000E+03	1.890282E-17	4.823720E-18
4.950000E+03	1.893493E-17	4.870602E-18
4.960000E+03	1.896147E-17	4.915084E-18
4.970000E+03	1.898781E-17	4.958535E-18
4.980000E+03	1.901399E-17	5.000958E-18
4.990000E+03	1.904537E-17	5.043777E-18
5.000000E+03	1.907127E-17	5.084168E-18
5.010000E+03	1.909706E-17	5.123546E-18
5.020000E+03	1.912276E-17	5.161918E-18
5.030000E+03	1.914839E-17	5.199292E-18
5.040000E+03	1.917934E-17	5.237141E-18
5.050000E+03	1.920490E-17	5.272552E-18
5.060000E+03	1.923045E-17	5.306991E-18
5.070000E+03	1.925601E-17	5.340467E-18
5.080000E+03	1.928161E-17	5.372993E-18
5.090000E+03	1.930725E-17	5.404578E-18
5.100000E+03	1.933296E-17	5.435234E-18
5.110000E+03	1.935876E-17	5.464974E-18
5.120000E+03	1.938466E-17	5.493809E-18
5.130000E+03	1.941069E-17	5.521752E-18
5.140000E+03	1.943686E-17	5.548818E-18
5.150000E+03	1.946319E-17	5.575018E-18
5.160000E+03	1.948969E-17	5.600367E-18
5.170000E+03	1.951639E-17	5.624878E-18
5.180000E+03	1.954330E-17	5.648567E-18
5.190000E+03	1.957044E-17	5.671447E-18
5.200000E+03	1.959783E-17	5.693533E-18
5.210000E+03	1.962548E-17	5.714840E-18
5.220000E+03	1.964801E-17	5.733810E-18
5.230000E+03	1.967623E-17	5.753600E-18
5.240000E+03	1.970476E-17	5.772655E-18
5.250000E+03	1.973361E-17	5.790990E-18
5.260000E+03	1.976280E-17	5.808622E-18
5.270000E+03	1.978694E-17	5.823974E-18
5.280000E+03	1.981685E-17	5.840239E-18
5.290000E+03	1.984715E-17	5.855843E-18
5.300000E+03	1.987243E-17	5.869206E-18
5.310000E+03	1.990353E-17	5.883532E-18
5.320000E+03	1.993505E-17	5.897242E-18
5.330000E+03	1.996160E-17	5.908746E-18
5.340000E+03	1.999401E-17	5.921261E-18
5.350000E+03	2.002146E-17	5.931595E-18
5.360000E+03	2.005481E-17	5.942970E-18
5.370000E+03	2.008864E-17	5.953793E-18
5.380000E+03	2.011754E-17	5.962469E-18
5.390000E+03	2.015238E-17	5.972224E-18
5.400000E+03	2.018230E-17	5.979851E-18
5.410000E+03	2.021818E-17	5.988582E-18
5.420000E+03	2.024917E-17	5.995202E-18
5.430000E+03	2.028069E-17	6.001332E-18
5.440000E+03	2.031823E-17	6.008592E-18
5.450000E+03	2.035087E-17	6.013763E-18
5.460000E+03	2.038409E-17	6.018465E-18
5.470000E+03	2.042335E-17	6.024315E-18
5.480000E+03	2.045774E-17	6.028090E-18
5.490000E+03	2.049272E-17	6.031407E-18
5.500000E+03	2.053378E-17	6.035877E-18
5.510000E+03	2.056997E-17	6.038270E-18
5.520000E+03	2.060677E-17	6.040192E-18
5.530000E+03	2.064419E-17	6.041634E-18
5.540000E+03	2.068223E-17	6.042586E-18
5.550000E+03	2.072640E-17	6.044644E-18
5.560000E+03	2.076570E-17	6.044580E-18
5.570000E+03	2.080563E-17	6.043990E-18
5.580000E+03	2.084620E-17	6.042860E-18
5.590000E+03	2.088740E-17	6.041173E-18
5.600000E+03	2.092925E-17	6.038914E-18
5.610000E+03	2.097173E-17	6.036066E-18
5.620000E+03	2.101486E-17	6.032610E-18
5.630000E+03	2.105863E-17	6.028528E-18
5.640000E+03	2.110304E-17	6.023801E-18
5.650000E+03	2.114810E-17	6.018408E-18
5.660000E+03	2.119380E-17	6.012328E-18
5.670000E+03	2.123454E-17	6.003959E-18
5.680000E+03	2.128152E-17	5.996443E-18
5.690000E+03	2.132913E-17	5.988175E-18
5.700000E+03	2.137737E-17	5.979129E-18
5.710000E+03	2.142625E-17	5.969284E-18
5.720000E+03	2.147013E-17	5.957050E-18
5.730000E+03	2.152025E-17	5.945535E-18
5.740000E+03	2.157100E-17	5.933144E-18
5.750000E+03	2.161671E-17	5.918304E-18
5.760000E+03	2.166868E-17	5.904092E-18
5.770000E+03	2.171557E-17	5.887388E-18
5.780000E+03	2.176874E-17	5.871251E-18
5.790000E+03	2.182251E-17	5.854107E-18
5.800000E+03	2.187115E-17	5.834408E-18
5.810000E+03	2.192607E-17	5.815177E-18
5.820000E+03	2.197584E-17	5.793349E-18
5.830000E+03	2.203188E-17	5.771921E-18
5.840000E+03	2.208274E-17	5.747854E-18
5.850000E+03	2.213412E-17	5.722630E-18
5.860000E+03	2.219178E-17	5.697702E-18
5.870000E+03	2.224419E-17	5.670074E-18
5.880000E+03	2.229709E-17	5.641206E-18
5.890000E+03	2.235627E-17	5.612527E-18
5.900000E+03	2.241013E-17	5.581088E-18
5.910000E+03	2.246445E-17	5.548327E-18
5.920000E+03	2.251921E-17	5.514217E-18
5.930000E+03	2.258024E-17	5.480148E-18
5.940000E+03	2.263585E-17	5.443246E-18
5.950000E+03	2.269186E-17	5.404912E-18
5.960000E+03	2.274825E-17	5.365121E-18
5.970000E+03	2.280501E-17	5.323844E-18
5.980000E+03	2.286211E-17	5.281057E-18
5.990000E+03	2.291955E-17	5.236733E-18
6.000000E+03	2.297730E-17	5.190846E-18
6.010000E+03	2.303534E-17	5.143372E-18
6.020000E+03	2.309366E-17	5.094285E-18
6.030000E+03	2.315223E-17	5.043561E-18
6.040000E+03	2.321104E-17	4.991176E-18
6.050000E+03	2.326407E-17	4.935836E-18
6.060000E+03	2.332326E-17	4.880075E-18
6.070000E+03	2.338262E-17	4.822586E-18
6.080000E+03	2.344213E-17	4.763346E-18
6.090000E+03	2.350176E-17	4.702336E-18
6.100000E+03	2.355543E-17	4.638345E-18
6.110000E+03	2.361521E-17	4.573753E-18
6.120000E+03	2.367503E-17	4.507334E-18
6.130000E+03	2.372878E-17	4.437934E-18
6.140000E+03	2.378860E-17	4.367832E-18
6.150000E+03	2.384226E-17	4.294757E-18
6.160000E+03	2.390196E-17	4.220916E-18
6.170000E+03	2.395542E-17	4.144117E-18
6.180000E+03	2.401489E-17	4.066493E-18
6.190000E+03	2.406803E-17	3.985934E-18
6.200000E+03	2.412713E-17	3.904497E-18
6.210000E+03	2.417984E-17	3.820159E-18
6.220000E+03	2.423846E-17	3.734894E-18
6.230000E+03	2.429059E-17	3.646773E-18
6.240000E+03	2.434238E-17	3.556779E-18
6.250000E+03	2.440002E-17	3.465803E-18
6.260000E+03	2.445104E-17	3.372065E-18
6.270000E+03	2.450161E-17	3.276490E-18
6.280000E+03	2.455171E-17	3.179098E-18
6.290000E+03	2.460130E-17	3.079915E-18
6.300000E+03	2.465663E-17	2.979734E-18
6.310000E+03	2.470509E-17	2.877049E-18
6.320000E+03	2.475295E-17	2.772693E-18
6.330000E+03	2.480014E-17	2.666726E-18
6.340000E+03	2.484665E-17	2.559218E-18
6.350000E+03	2.489243E-17	2.450255E-18
6.360000E+03	2.493745E-17	2.339941E-18
6.370000E+03	2.498167E-17	2.228403E-18
6.380000E+03	2.502506E-17	2.115798E-18
6.390000E+03	2.506119E-17	2.001809E-18
6.400000E+03	2.510278E-17	1.887727E-18
6.410000E+03	2.514342E-17	1.773318E-18
6.420000E+03	2.518306E-17	1.658973E-18
6.430000E+03	2.522168E-17	1.545198E-18
6.440000E+03	2.525280E-17	1.432293E-18
6.450000E+03	2.528921E-17	1.321896E-18
6.460000E+03	2.532445E-17	1.214805E-18
6.470000E+03	2.535203E-17	1.112347E-18
6.480000E+03	2.538477E-17	1.017296E-18
6.490000E+03	2.541618E-17	9.322673E-19
6.500000E+03	2.543973E-17	8.607989E-19
6.510000E+03	2.546827E-17	8.077979E-19
6.520000E+03	2.548879E-17	7.773612E-19
6.530000E+03	2.551415E-17	7.733006E-19
6.540000E+03	2.553138E-17	7.958443E-19
6.550000E+03	2.555347E-17	8.428018E-19
6.560000E+03	2.556752E-17	9.095330E-19
6.570000E+03	2.558005E-17	9.917155E-19
6.580000E+03	2.559759E-17	1.085631E-18
6.590000E+03	2.560720E-17	1.187574E-18
6.600000E+03	2.561540E-17	1.295386E-18
6.610000E+03	2.562870E-17	1.407636E-18
6.620000E+03	2.563414E-17	1.522320E-18
6.630000E+03	2.563824E-17	1.638781E-18
6.640000E+03	2.564101E-17	1.756278E-18
6.650000E+03	2.564247E-17	1.874246E-18
6.660000E+03	2.564264E-17	1.992244E-18
6.670000E+03	2.564154E-17	2.109926E-18
6.680000E+03	2.563917E-17	2.227012E-18
6.690000E+03	2.563556E-17	2.343277E-18
6.700000E+03	2.563071E-17	2.458535E-18
6.710000E+03	2.562465E-17	2.572630E-18
6.720000E+03	2.561738E-17	2.685429E-18
6.730000E+03	2.560892E-17	2.796820E-18
6.740000E+03	2.559929E-17	2.906706E-18
6.750000E+03	2.558850E-17	3.015002E-18
6.760000E+03	2.557657E-17	3.121633E-18
6.770000E+03	2.556350E-17	3.226534E-18
6.780000E+03	2.554285E-17	3.328801E-18
6.790000E+03	2.552758E-17	3.430044E-18
6.800000E+03	2.551122E-17	3.529398E-18
6.810000E+03	2.548734E-17	3.625900E-18
6.820000E+03	2.546887E-17	3.721326E-18
6.830000E+03	2.544937E-17	3.814746E-18
6.840000E+03	2.542240E-17	3.905136E-18
6.850000E+03	2.540087E-17	3.994426E-18
6.860000E+03	2.537192E-17	4.080585E-18
6.870000E+03	2.534844E-17	4.165638E-18
6.880000E+03	2.531758E-17	4.247470E-18
6.890000E+03	2.529220E-17	4.328196E-18
6.900000E+03	2.525949E-17	4.405621E-18
6.910000E+03	2.523227E-17	4.481945E-18
6.920000E+03	2.519776E-17	4.554896E-18
6.930000E+03	2.516238E-17	4.625580E-18
6.940000E+03	2.513252E-17	4.695177E-18
6.950000E+03	2.509543E-17	4.761310E-18
6.960000E+03	2.505750E-17	4.825142E-18
6.970000E+03	2.502512E-17	4.887908E-18
6.980000E+03	2.498557E-17	4.947131E-18
6.990000E+03	2.494522E-17	5.004032E-18
7.000000E+03	2.490409E-17	5.058605E-18
7.010000E+03	2.486220E-17	5.110845E-18
7.020000E+03	2.481955E-17	5.160748E-18
7.030000E+03	2.477615E-17	5.208313E-18
7.040000E+03	2.473202E-17	5.253536E-18
7.050000E+03	2.468716E-17	5.296417E-18
7.060000E+03	2.464158E-17	5.336954E-18
7.070000E+03	2.459530E-17	5.375148E-18
7.080000E+03	2.454833E-17	5.411000E-18
7.090000E+03	2.450066E-17	5.444510E-18
7.100000E+03	2.445232E-17	5.475682E-18
7.110000E+03	2.440331E-17	5.504518E-18
7.120000E+03	2.435363E-17	5.531020E-18
7.130000E+03	2.430329E-17	5.555194E-18
7.140000E+03	2.425231E-17	5.577043E-18
7.150000E+03	2.419450E-17	5.595143E-18
7.160000E+03	2.414224E-17	5.612354E-18
7.170000E+03	2.408936E-17	5.627257E-18
7.180000E+03	2.402970E-17	5.638417E-18
7.190000E+03	2.397558E-17	5.648722E-18
7.200000E+03	2.392084E-17	5.656741E-18
7.210000E+03	2.385939E-17	5.661034E-18
7.220000E+03	2.380344E-17	5.664504E-18
7.230000E+03	2.374081E-17	5.664265E-18
7.240000E+03	2.368368E-17	5.663226E-18
7.250000E+03	2.361989E-17	5.658496E-18
7.260000E+03	2.356157E-17	5.652989E-18
7.270000E+03	2.349663E-17	5.643815E-18
7.280000E+03	2.343714E-17	5.633885E-18
7.290000E+03	2.337106E-17	5.620317E-18
7.300000E+03	2.331040E-17	5.606013E-18
7.310000E+03	2.324318E-17	5.588103E-18
7.320000E+03	2.317541E-17	5.568046E-18
7.330000E+03	2.311301E-17	5.547281E-18
7.340000E+03	2.304411E-17	5.522968E-18
7.350000E+03	2.297464E-17	5.496553E-18
7.360000E+03	2.290462E-17	5.468052E-18
7.370000E+03	2.283991E-17	5.438883E-18
7.380000E+03	2.276875E-17	5.406254E-18
7.390000E+03	2.269703E-17	5.371589E-18
7.400000E+03	2.262474E-17	5.334908E-18
7.410000E+03	2.255189E-17	5.296227E-18
7.420000E+03	2.247846E-17	5.255567E-18
7.430000E+03	2.240447E-17	5.212946E-18
7.440000E+03	2.232990E-17	5.168385E-18
7.450000E+03	2.225476E-17	5.121902E-18
7.460000E+03	2.217903E-17	5.073519E-18
7.470000E+03	2.210273E-17	5.023257E-18
7.480000E+03	2.202583E-17	4.971137E-18
7.490000E+03	2.194834E-17	4.917181E-18
7.500000E+03	2.187026E-17	4.861412E-18
7.510000E+03	2.179157E-17	4.803852E-18
7.520000E+03	2.171228E-17	4.744525E-18
7.530000E+03	2.163238E-17	4.683456E-18
7.540000E+03	2.155187E-17	4.620667E-18
7.550000E+03	2.146515E-17	4.555001E-18
7.560000E+03	2.138340E-17	4.488868E-18
7.570000E+03	2.130102E-17	4.421093E-18
7.580000E+03	2.121801E-17	4.351704E-18
7.590000E+03	2.112884E-17	4.279612E-18
7.600000E+03	2.104454E-17	4.207094E-18
7.610000E+03	2.095959E-17	4.133046E-18
7.620000E+03	2.086853E-17	4.056438E-18
7.630000E+03	2.078227E-17	3.979438E-18
7.640000E+03	2.068992E-17	3.899978E-18
7.650000E+03	2.060232E-17	3.820150E-18
7.660000E+03	2.051403E-17	3.738946E-18
7.670000E+03	2.041970E-17	3.655442E-18
7.680000E+03	2.033004E-17	3.571609E-18
7.690000E+03	2.023436E-17	3.485587E-18
7.700000E+03	2.014330E-17	3.399265E-18
7.710000E+03	2.004626E-17	3.310873E-18
7.720000E+03	1.994853E-17	3.221365E-18
7.730000E+03	1.985534E-17	3.131604E-18
7.740000E+03	1.975621E-17	3.039961E-18
7.750000E+03	1.966156E-17	2.948103E-18
7.760000E+03	1.956102E-17	2.854496E-18
