#wls	flux	fluxerr
1.600000E+03	6.287097E-17	2.985681E-17
1.640000E+03	6.345445E-17	2.988963E-17
1.680000E+03	6.401583E-17	2.989464E-17
1.720000E+03	6.456351E-17	2.987566E-17
1.760000E+03	6.508585E-17	2.982737E-17
1.800000E+03	6.558614E-17	2.975155E-17
1.840000E+03	6.605771E-17	2.964571E-17
1.880000E+03	6.650863E-17	2.951420E-17
1.920000E+03	6.692246E-17	2.935077E-17
1.960000E+03	6.730725E-17	2.916035E-17
2.000000E+03	6.765166E-17	2.893971E-17
2.040000E+03	6.796371E-17	2.869435E-17
2.080000E+03	6.823235E-17	2.842194E-17
2.120000E+03	6.846100E-17	2.812662E-17
2.160000E+03	6.864845E-17	2.781083E-17
2.200000E+03	6.879368E-17	2.747731E-17
2.240000E+03	6.889589E-17	2.712901E-17
2.280000E+03	6.895004E-17	2.676728E-17
2.320000E+03	6.896500E-17	2.639879E-17
2.360000E+03	6.894515E-17	2.602808E-17
2.400000E+03	6.888632E-17	2.565598E-17
2.440000E+03	6.880218E-17	2.528942E-17
2.480000E+03	6.868910E-17	2.492807E-17
2.520000E+03	6.855673E-17	2.457560E-17
2.560000E+03	6.841058E-17	2.423311E-17
2.600000E+03	6.825639E-17	2.390077E-17
2.640000E+03	6.810018E-17	2.357784E-17
2.680000E+03	6.795225E-17	2.326416E-17
2.720000E+03	6.781522E-17	2.295614E-17
2.760000E+03	6.770011E-17	2.265254E-17
2.800000E+03	6.761822E-17	2.235180E-17
2.840000E+03	6.757752E-17	2.205107E-17
2.880000E+03	6.759040E-17	2.174906E-17
2.920000E+03	6.766626E-17	2.144368E-17
2.960000E+03	6.781553E-17	2.113354E-17
3.000000E+03	6.806043E-17	2.082128E-17
3.010000E+03	6.813463E-17	2.074183E-17
3.020000E+03	6.822104E-17	2.066384E-17
3.030000E+03	6.830925E-17	2.058410E-17
3.040000E+03	6.840995E-17	2.050579E-17
3.050000E+03	6.851631E-17	2.042679E-17
3.060000E+03	6.862853E-17	2.034713E-17
3.070000E+03	6.875374E-17	2.026886E-17
3.080000E+03	6.888519E-17	2.018994E-17
3.090000E+03	6.902654E-17	2.011139E-17
3.100000E+03	6.917457E-17	2.003222E-17
3.110000E+03	6.933293E-17	1.995346E-17
3.120000E+03	6.950525E-17	1.987608E-17
3.130000E+03	6.968493E-17	1.979815E-17
3.140000E+03	6.987563E-17	1.972065E-17
3.150000E+03	7.007760E-17	1.964361E-17
3.160000E+03	7.029109E-17	1.956704E-17
3.170000E+03	7.051636E-17	1.949097E-17
3.180000E+03	7.075371E-17	1.941540E-17
3.190000E+03	7.100341E-17	1.934036E-17
3.200000E+03	7.126911E-17	1.926678E-17
3.210000E+03	7.154442E-17	1.919286E-17
3.220000E+03	7.183635E-17	1.912041E-17
3.230000E+03	7.214521E-17	1.904944E-17
3.240000E+03	7.246469E-17	1.897819E-17
3.250000E+03	7.280180E-17	1.890843E-17
3.260000E+03	7.315357E-17	1.883930E-17
3.270000E+03	7.352370E-17	1.877164E-17
3.280000E+03	7.390925E-17	1.870462E-17
3.290000E+03	7.431395E-17	1.863905E-17
3.300000E+03	7.473819E-17	1.857493E-17
3.310000E+03	7.517911E-17	1.851141E-17
3.320000E+03	7.564044E-17	1.844928E-17
3.330000E+03	7.611935E-17	1.838771E-17
3.340000E+03	7.662289E-17	1.832827E-17
3.350000E+03	7.714496E-17	1.826932E-17
3.360000E+03	7.768935E-17	1.821159E-17
3.370000E+03	7.825658E-17	1.815505E-17
3.380000E+03	7.884717E-17	1.809960E-17
3.390000E+03	7.946166E-17	1.804519E-17
3.400000E+03	8.010062E-17	1.799173E-17
3.410000E+03	8.076793E-17	1.793987E-17
3.420000E+03	8.145758E-17	1.788804E-17
3.430000E+03	8.217678E-17	1.783760E-17
3.440000E+03	8.292617E-17	1.778841E-17
3.450000E+03	8.369977E-17	1.773894E-17
3.460000E+03	8.450486E-17	1.769047E-17
3.470000E+03	8.534214E-17	1.764286E-17
3.480000E+03	8.620898E-17	1.759527E-17
3.490000E+03	8.710607E-17	1.754757E-17
3.500000E+03	8.804084E-17	1.750094E-17
3.510000E+03	8.900736E-17	1.745389E-17
3.520000E+03	9.000636E-17	1.740626E-17
3.530000E+03	9.104538E-17	1.735921E-17
3.540000E+03	9.212186E-17	1.731190E-17
3.550000E+03	9.323322E-17	1.726355E-17
3.560000E+03	9.438367E-17	1.721465E-17
3.570000E+03	9.557750E-17	1.716566E-17
3.580000E+03	9.681216E-17	1.711582E-17
3.590000E+03	9.808507E-17	1.706439E-17
3.600000E+03	9.940402E-17	1.701248E-17
3.610000E+03	1.007700E-16	1.695998E-17
3.620000E+03	1.021768E-16	1.690564E-17
3.630000E+03	1.036324E-16	1.685058E-17
3.640000E+03	1.051378E-16	1.679476E-17
3.650000E+03	1.066867E-16	1.673707E-17
3.660000E+03	1.082907E-16	1.667924E-17
3.670000E+03	1.099436E-16	1.662021E-17
3.680000E+03	1.116462E-16	1.656013E-17
3.690000E+03	1.134065E-16	1.650022E-17
3.700000E+03	1.152180E-16	1.643960E-17
3.710000E+03	1.170813E-16	1.637851E-17
3.720000E+03	1.190043E-16	1.631828E-17
3.730000E+03	1.209800E-16	1.625815E-17
3.740000E+03	1.230124E-16	1.619898E-17
3.750000E+03	1.251014E-16	1.614110E-17
3.760000E+03	1.272468E-16	1.608486E-17
3.770000E+03	1.294481E-16	1.603062E-17
3.780000E+03	1.317043E-16	1.597874E-17
3.790000E+03	1.340143E-16	1.592958E-17
3.800000E+03	1.363723E-16	1.588300E-17
3.810000E+03	1.387841E-16	1.584026E-17
3.820000E+03	1.412432E-16	1.580120E-17
3.830000E+03	1.437425E-16	1.576564E-17
3.840000E+03	1.462863E-16	1.573474E-17
3.850000E+03	1.488666E-16	1.570829E-17
3.860000E+03	1.514788E-16	1.568649E-17
3.870000E+03	1.541139E-16	1.566912E-17
3.880000E+03	1.567748E-16	1.565716E-17
3.890000E+03	1.594517E-16	1.565034E-17
3.900000E+03	1.621387E-16	1.564873E-17
3.910000E+03	1.648297E-16	1.565240E-17
3.920000E+03	1.675184E-16	1.566136E-17
3.930000E+03	1.701988E-16	1.567555E-17
3.940000E+03	1.728647E-16	1.569490E-17
3.950000E+03	1.755102E-16	1.571926E-17
3.960000E+03	1.781253E-16	1.574802E-17
3.970000E+03	1.807135E-16	1.578169E-17
3.980000E+03	1.832657E-16	1.581956E-17
3.990000E+03	1.857731E-16	1.586089E-17
4.000000E+03	1.882366E-16	1.590565E-17
4.010000E+03	1.906531E-16	1.595340E-17
4.020000E+03	1.930206E-16	1.600369E-17
4.030000E+03	1.953331E-16	1.605569E-17
4.040000E+03	1.975947E-16	1.610933E-17
4.050000E+03	1.998012E-16	1.616382E-17
4.060000E+03	2.019585E-16	1.621915E-17
4.070000E+03	2.040687E-16	1.627497E-17
4.080000E+03	2.061260E-16	1.633028E-17
4.090000E+03	2.081435E-16	1.638558E-17
4.100000E+03	2.101261E-16	1.644069E-17
4.110000E+03	2.120706E-16	1.649482E-17
4.120000E+03	2.139882E-16	1.654831E-17
4.130000E+03	2.158906E-16	1.660155E-17
4.140000E+03	2.177772E-16	1.665399E-17
4.150000E+03	2.196611E-16	1.670615E-17
4.160000E+03	2.215475E-16	1.675799E-17
4.170000E+03	2.234509E-16	1.681018E-17
4.180000E+03	2.253819E-16	1.686314E-17
4.190000E+03	2.273474E-16	1.691705E-17
4.200000E+03	2.293591E-16	1.697246E-17
4.210000E+03	2.314291E-16	1.703003E-17
4.220000E+03	2.335700E-16	1.709045E-17
4.230000E+03	2.357945E-16	1.715451E-17
4.240000E+03	2.381115E-16	1.722272E-17
4.250000E+03	2.405384E-16	1.729631E-17
4.260000E+03	2.430886E-16	1.737624E-17
4.270000E+03	2.457707E-16	1.746323E-17
4.280000E+03	2.485933E-16	1.755807E-17
4.290000E+03	2.515776E-16	1.766254E-17
4.300000E+03	2.547308E-16	1.777757E-17
4.310000E+03	2.580593E-16	1.790415E-17
4.320000E+03	2.615729E-16	1.804368E-17
4.330000E+03	2.652840E-16	1.819792E-17
4.340000E+03	2.691947E-16	1.836810E-17
4.350000E+03	2.733091E-16	1.855583E-17
4.360000E+03	2.776245E-16	1.876245E-17
4.370000E+03	2.821443E-16	1.898994E-17
4.380000E+03	2.868643E-16	1.923995E-17
4.390000E+03	2.917676E-16	1.951336E-17
4.400000E+03	2.968552E-16	1.981081E-17
4.410000E+03	3.021085E-16	2.013016E-17
4.420000E+03	3.075195E-16	2.046977E-17
4.430000E+03	3.130665E-16	2.082710E-17
4.440000E+03	3.187332E-16	2.119993E-17
4.450000E+03	3.244848E-16	2.158480E-17
4.460000E+03	3.303021E-16	2.197931E-17
4.470000E+03	3.361426E-16	2.237955E-17
4.480000E+03	3.419704E-16	2.278211E-17
4.490000E+03	3.477519E-16	2.318380E-17
4.500000E+03	3.534470E-16	2.358105E-17
4.510000E+03	3.590038E-16	2.396961E-17
4.520000E+03	3.643807E-16	2.434603E-17
4.530000E+03	3.695475E-16	2.470767E-17
4.540000E+03	3.744548E-16	2.505079E-17
4.550000E+03	3.790670E-16	2.537259E-17
4.560000E+03	3.833520E-16	2.567068E-17
4.570000E+03	3.872880E-16	2.594343E-17
4.580000E+03	3.908424E-16	2.618859E-17
4.590000E+03	3.939991E-16	2.640509E-17
4.600000E+03	3.967588E-16	2.659309E-17
4.610000E+03	3.991017E-16	2.675141E-17
4.620000E+03	4.010407E-16	2.688113E-17
4.630000E+03	4.025786E-16	2.698264E-17
4.640000E+03	4.037235E-16	2.705675E-17
4.650000E+03	4.045045E-16	2.710562E-17
4.660000E+03	4.049336E-16	2.713025E-17
4.670000E+03	4.050373E-16	2.713259E-17
4.680000E+03	4.048503E-16	2.711506E-17
4.690000E+03	4.043991E-16	2.707948E-17
4.700000E+03	4.037175E-16	2.702809E-17
4.710000E+03	4.028401E-16	2.696312E-17
4.720000E+03	4.018021E-16	2.688681E-17
4.730000E+03	4.006387E-16	2.680133E-17
4.740000E+03	3.993798E-16	2.670843E-17
4.750000E+03	3.980639E-16	2.661045E-17
4.760000E+03	3.967185E-16	2.650896E-17
4.770000E+03	3.953741E-16	2.640574E-17
4.780000E+03	3.940640E-16	2.630272E-17
4.790000E+03	3.928094E-16	2.620109E-17
4.800000E+03	3.916337E-16	2.610217E-17
4.810000E+03	3.905578E-16	2.600715E-17
4.820000E+03	3.896048E-16	2.591735E-17
4.830000E+03	3.887809E-16	2.583304E-17
4.840000E+03	3.881043E-16	2.575525E-17
4.850000E+03	3.875859E-16	2.568457E-17
4.860000E+03	3.872348E-16	2.562147E-17
4.870000E+03	3.870584E-16	2.556631E-17
4.880000E+03	3.870623E-16	2.551937E-17
4.890000E+03	3.872507E-16	2.548083E-17
4.900000E+03	3.876268E-16	2.545084E-17
4.910000E+03	3.881923E-16	2.542947E-17
4.920000E+03	3.889440E-16	2.541649E-17
4.930000E+03	3.898906E-16	2.541248E-17
4.940000E+03	3.910228E-16	2.541688E-17
4.950000E+03	3.923482E-16	2.543025E-17
4.960000E+03	3.938564E-16	2.545202E-17
4.970000E+03	3.955548E-16	2.548274E-17
4.980000E+03	3.974331E-16	2.552187E-17
4.990000E+03	3.994992E-16	2.556997E-17
5.000000E+03	4.017485E-16	2.562678E-17
5.010000E+03	4.041817E-16	2.569233E-17
5.020000E+03	4.068048E-16	2.576689E-17
5.030000E+03	4.096162E-16	2.585016E-17
5.040000E+03	4.126194E-16	2.594209E-17
5.050000E+03	4.158233E-16	2.604285E-17
5.060000E+03	4.192284E-16	2.615198E-17
5.070000E+03	4.228444E-16	2.626953E-17
5.080000E+03	4.266718E-16	2.639487E-17
5.090000E+03	4.307243E-16	2.652816E-17
5.100000E+03	4.349966E-16	2.666830E-17
5.110000E+03	4.394960E-16	2.681497E-17
5.120000E+03	4.442288E-16	2.696774E-17
5.130000E+03	4.491857E-16	2.712521E-17
5.140000E+03	4.543699E-16	2.728676E-17
5.150000E+03	4.597833E-16	2.745169E-17
5.160000E+03	4.654214E-16	2.761888E-17
5.170000E+03	4.712684E-16	2.778655E-17
5.180000E+03	4.773315E-16	2.795426E-17
5.190000E+03	4.835915E-16	2.812001E-17
5.200000E+03	4.900425E-16	2.828255E-17
5.210000E+03	4.966720E-16	2.844022E-17
5.220000E+03	5.034604E-16	2.859090E-17
5.230000E+03	5.104015E-16	2.873327E-17
5.240000E+03	5.174711E-16	2.886497E-17
5.250000E+03	5.246533E-16	2.898410E-17
5.260000E+03	5.319181E-16	2.908808E-17
5.270000E+03	5.392378E-16	2.917451E-17
5.280000E+03	5.465865E-16	2.924122E-17
5.290000E+03	5.539292E-16	2.928567E-17
5.300000E+03	5.612207E-16	2.930504E-17
5.310000E+03	5.684290E-16	2.929742E-17
5.320000E+03	5.755003E-16	2.926010E-17
5.330000E+03	5.823769E-16	2.919056E-17
5.340000E+03	5.890148E-16	2.908750E-17
5.350000E+03	5.953560E-16	2.894947E-17
5.360000E+03	6.013341E-16	2.877535E-17
5.370000E+03	6.068888E-16	2.856516E-17
5.380000E+03	6.119672E-16	2.832028E-17
5.390000E+03	6.165140E-16	2.804306E-17
5.400000E+03	6.204794E-16	2.773736E-17
5.410000E+03	6.238148E-16	2.740844E-17
5.420000E+03	6.265006E-16	2.706423E-17
5.430000E+03	6.285097E-16	2.671366E-17
5.440000E+03	6.298343E-16	2.636775E-17
5.450000E+03	6.304808E-16	2.603912E-17
5.460000E+03	6.304701E-16	2.574167E-17
5.470000E+03	6.298441E-16	2.549024E-17
5.480000E+03	6.286465E-16	2.529925E-17
5.490000E+03	6.269473E-16	2.518284E-17
5.500000E+03	6.248044E-16	2.514835E-17
5.510000E+03	6.222294E-16	2.518682E-17
5.520000E+03	6.192426E-16	2.528594E-17
5.530000E+03	6.158880E-16	2.543375E-17
5.540000E+03	6.121890E-16	2.561768E-17
5.550000E+03	6.082152E-16	2.582785E-17
5.560000E+03	6.040137E-16	2.605472E-17
5.570000E+03	5.996569E-16	2.629122E-17
5.580000E+03	5.952164E-16	2.653186E-17
5.590000E+03	5.907618E-16	2.677258E-17
5.600000E+03	5.863771E-16	2.701142E-17
5.610000E+03	5.821351E-16	2.724725E-17
5.620000E+03	5.781188E-16	2.748063E-17
5.630000E+03	5.743972E-16	2.771250E-17
5.640000E+03	5.710403E-16	2.794474E-17
5.650000E+03	5.681180E-16	2.818000E-17
5.660000E+03	5.656868E-16	2.842095E-17
5.670000E+03	5.637837E-16	2.866977E-17
5.680000E+03	5.624580E-16	2.892970E-17
5.690000E+03	5.617325E-16	2.920294E-17
5.700000E+03	5.616240E-16	2.949163E-17
5.710000E+03	5.621384E-16	2.979751E-17
5.720000E+03	5.632645E-16	3.012146E-17
5.730000E+03	5.649963E-16	3.046469E-17
5.740000E+03	5.673005E-16	3.082689E-17
5.750000E+03	5.701330E-16	3.120709E-17
5.760000E+03	5.734513E-16	3.160427E-17
5.770000E+03	5.771932E-16	3.201613E-17
5.780000E+03	5.812998E-16	3.244038E-17
5.790000E+03	5.856950E-16	3.287353E-17
5.800000E+03	5.903090E-16	3.331225E-17
5.810000E+03	5.950519E-16	3.375179E-17
5.820000E+03	5.998550E-16	3.418843E-17
5.830000E+03	6.046325E-16	3.461727E-17
5.840000E+03	6.093059E-16	3.503366E-17
5.850000E+03	6.138000E-16	3.543303E-17
5.860000E+03	6.180439E-16	3.581095E-17
5.870000E+03	6.219665E-16	3.616295E-17
5.880000E+03	6.255217E-16	3.648593E-17
5.890000E+03	6.286405E-16	3.677548E-17
5.900000E+03	6.312926E-16	3.702946E-17
5.910000E+03	6.334442E-16	3.724552E-17
5.920000E+03	6.350640E-16	3.742150E-17
5.930000E+03	6.361356E-16	3.755619E-17
5.940000E+03	6.366513E-16	3.764893E-17
5.950000E+03	6.366172E-16	3.770004E-17
5.960000E+03	6.360286E-16	3.770927E-17
5.970000E+03	6.349122E-16	3.767838E-17
5.980000E+03	6.332759E-16	3.760817E-17
5.990000E+03	6.311515E-16	3.750096E-17
6.000000E+03	6.285689E-16	3.735906E-17
6.010000E+03	6.255620E-16	3.718506E-17
6.020000E+03	6.221616E-16	3.698140E-17
6.030000E+03	6.184135E-16	3.675136E-17
6.040000E+03	6.143531E-16	3.649760E-17
6.050000E+03	6.100296E-16	3.622348E-17
6.060000E+03	6.054818E-16	3.593164E-17
6.070000E+03	6.007611E-16	3.562538E-17
6.080000E+03	5.959080E-16	3.530727E-17
6.090000E+03	5.909696E-16	3.498013E-17
6.100000E+03	5.859933E-16	3.464673E-17
6.110000E+03	5.810322E-16	3.431010E-17
6.120000E+03	5.761334E-16	3.397280E-17
6.130000E+03	5.713320E-16	3.363665E-17
6.140000E+03	5.666844E-16	3.330460E-17
6.150000E+03	5.622279E-16	3.297845E-17
6.160000E+03	5.580028E-16	3.266009E-17
6.170000E+03	5.540513E-16	3.235143E-17
6.180000E+03	5.504005E-16	3.205346E-17
6.190000E+03	5.470779E-16	3.176710E-17
6.200000E+03	5.441111E-16	3.149322E-17
6.210000E+03	5.415111E-16	3.123165E-17
6.220000E+03	5.392934E-16	3.098243E-17
6.230000E+03	5.374621E-16	3.074486E-17
6.240000E+03	5.360103E-16	3.051756E-17
6.250000E+03	5.349409E-16	3.029964E-17
6.260000E+03	5.342308E-16	3.008865E-17
6.270000E+03	5.338680E-16	2.988271E-17
6.280000E+03	5.338365E-16	2.967966E-17
6.290000E+03	5.341068E-16	2.947652E-17
6.300000E+03	5.346525E-16	2.927045E-17
6.310000E+03	5.354508E-16	2.905879E-17
6.320000E+03	5.364680E-16	2.883832E-17
6.330000E+03	5.376813E-16	2.860646E-17
6.340000E+03	5.390686E-16	2.836080E-17
6.350000E+03	5.405935E-16	2.809834E-17
6.360000E+03	5.422376E-16	2.781733E-17
6.370000E+03	5.439851E-16	2.751647E-17
6.380000E+03	5.458120E-16	2.719448E-17
6.390000E+03	5.477079E-16	2.685136E-17
6.400000E+03	5.496546E-16	2.648736E-17
6.410000E+03	5.516532E-16	2.610450E-17
6.420000E+03	5.536857E-16	2.570481E-17
6.430000E+03	5.557527E-16	2.529239E-17
6.440000E+03	5.578569E-16	2.487278E-17
6.450000E+03	5.599907E-16	2.445268E-17
6.460000E+03	5.621522E-16	2.404093E-17
6.470000E+03	5.643386E-16	2.364849E-17
6.480000E+03	5.665561E-16	2.328908E-17
6.490000E+03	5.687840E-16	2.297778E-17
6.500000E+03	5.710082E-16	2.273235E-17
6.510000E+03	5.732194E-16	2.257275E-17
6.520000E+03	5.753831E-16	2.251906E-17
6.530000E+03	5.774561E-16	2.259062E-17
6.540000E+03	5.794238E-16	2.279210E-17
6.550000E+03	5.812730E-16	2.310574E-17
6.560000E+03	5.829903E-16	2.351094E-17
6.570000E+03	5.845599E-16	2.398719E-17
6.580000E+03	5.859473E-16	2.451437E-17
6.590000E+03	5.871184E-16	2.507414E-17
6.600000E+03	5.880420E-16	2.565033E-17
6.610000E+03	5.886732E-16	2.622832E-17
6.620000E+03	5.889803E-16	2.679609E-17
6.630000E+03	5.889286E-16	2.734340E-17
6.640000E+03	5.884825E-16	2.786162E-17
6.650000E+03	5.876257E-16	2.834451E-17
6.660000E+03	5.863442E-16	2.878725E-17
6.670000E+03	5.846275E-16	2.918629E-17
6.680000E+03	5.824936E-16	2.954042E-17
6.690000E+03	5.799460E-16	2.984849E-17
6.700000E+03	5.770163E-16	3.011144E-17
6.710000E+03	5.737391E-16	3.033087E-17
6.720000E+03	5.701568E-16	3.050925E-17
6.730000E+03	5.663180E-16	3.064970E-17
6.740000E+03	5.622764E-16	3.075590E-17
6.750000E+03	5.580886E-16	3.083187E-17
6.760000E+03	5.538127E-16	3.088190E-17
6.770000E+03	5.495066E-16	3.091034E-17
6.780000E+03	5.452320E-16	3.092186E-17
6.790000E+03	5.410301E-16	3.092001E-17
6.800000E+03	5.369611E-16	3.090944E-17
6.810000E+03	5.330629E-16	3.089351E-17
6.820000E+03	5.293733E-16	3.087556E-17
6.830000E+03	5.259244E-16	3.085859E-17
6.840000E+03	5.227425E-16	3.084520E-17
6.850000E+03	5.198537E-16	3.083796E-17
6.860000E+03	5.172676E-16	3.083838E-17
6.870000E+03	5.149998E-16	3.084831E-17
6.880000E+03	5.130447E-16	3.086825E-17
6.890000E+03	5.114152E-16	3.089976E-17
6.900000E+03	5.101037E-16	3.094311E-17
6.910000E+03	5.091106E-16	3.099900E-17
6.920000E+03	5.084222E-16	3.106719E-17
6.930000E+03	5.080339E-16	3.114796E-17
6.940000E+03	5.079216E-16	3.124032E-17
6.950000E+03	5.080876E-16	3.134487E-17
6.960000E+03	5.084985E-16	3.145996E-17
6.970000E+03	5.091478E-16	3.158553E-17
6.980000E+03	5.100165E-16	3.172072E-17
6.990000E+03	5.110785E-16	3.186421E-17
7.000000E+03	5.123131E-16	3.201493E-17
7.010000E+03	5.137044E-16	3.217215E-17
7.020000E+03	5.152253E-16	3.233434E-17
7.030000E+03	5.168599E-16	3.250070E-17
7.040000E+03	5.185872E-16	3.267006E-17
7.050000E+03	5.203806E-16	3.284090E-17
7.060000E+03	5.222202E-16	3.301206E-17
7.070000E+03	5.240929E-16	3.318284E-17
7.080000E+03	5.259804E-16	3.335218E-17
7.090000E+03	5.278594E-16	3.351867E-17
7.100000E+03	5.297133E-16	3.368132E-17
7.110000E+03	5.315387E-16	3.383998E-17
7.120000E+03	5.333022E-16	3.399254E-17
7.130000E+03	5.350079E-16	3.413930E-17
7.140000E+03	5.366297E-16	3.427862E-17
7.150000E+03	5.381545E-16	3.440965E-17
7.160000E+03	5.395758E-16	3.453199E-17
7.170000E+03	5.408819E-16	3.464486E-17
7.180000E+03	5.420614E-16	3.474751E-17
7.190000E+03	5.430973E-16	3.483884E-17
7.200000E+03	5.439797E-16	3.491816E-17
7.210000E+03	5.447124E-16	3.498568E-17
7.220000E+03	5.452745E-16	3.504002E-17
7.230000E+03	5.456588E-16	3.508066E-17
7.240000E+03	5.458725E-16	3.510802E-17
7.250000E+03	5.458979E-16	3.512091E-17
7.260000E+03	5.457317E-16	3.511906E-17
7.270000E+03	5.453854E-16	3.510316E-17
7.280000E+03	5.448460E-16	3.507232E-17
7.290000E+03	5.441218E-16	3.502704E-17
7.300000E+03	5.432101E-16	3.496711E-17
7.310000E+03	5.421235E-16	3.489328E-17
7.320000E+03	5.408701E-16	3.480606E-17
7.330000E+03	5.394602E-16	3.470607E-17
7.340000E+03	5.378999E-16	3.459367E-17
7.350000E+03	5.362104E-16	3.447023E-17
7.360000E+03	5.344089E-16	3.433682E-17
7.370000E+03	5.325077E-16	3.419424E-17
7.380000E+03	5.305344E-16	3.404424E-17
7.390000E+03	5.285115E-16	3.388828E-17
7.400000E+03	5.264633E-16	3.372791E-17
7.410000E+03	5.244087E-16	3.356434E-17
7.420000E+03	5.223870E-16	3.340010E-17
7.430000E+03	5.204058E-16	3.323566E-17
7.440000E+03	5.185118E-16	3.307397E-17
7.450000E+03	5.167190E-16	3.291590E-17
7.460000E+03	5.150604E-16	3.276349E-17
7.470000E+03	5.135613E-16	3.261826E-17
7.480000E+03	5.122392E-16	3.248120E-17
7.490000E+03	5.111226E-16	3.235395E-17
7.500000E+03	5.102251E-16	3.223716E-17
7.510000E+03	5.095769E-16	3.213248E-17
7.520000E+03	5.091735E-16	3.203931E-17
7.530000E+03	5.090465E-16	3.195925E-17
7.540000E+03	5.091859E-16	3.189125E-17
7.550000E+03	5.096181E-16	3.183648E-17
7.560000E+03	5.103348E-16	3.179385E-17
7.570000E+03	5.113384E-16	3.176294E-17
7.580000E+03	5.126361E-16	3.174354E-17
7.590000E+03	5.142208E-16	3.173453E-17
7.600000E+03	5.160972E-16	3.173548E-17
7.610000E+03	5.182561E-16	3.174508E-17
7.620000E+03	5.207008E-16	3.176275E-17
7.630000E+03	5.234212E-16	3.178704E-17
7.640000E+03	5.264199E-16	3.181725E-17
7.650000E+03	5.296861E-16	3.185182E-17
7.660000E+03	5.332152E-16	3.188948E-17
7.670000E+03	5.370090E-16	3.192926E-17
7.680000E+03	5.410549E-16	3.196926E-17
7.690000E+03	5.453459E-16	3.200778E-17
7.700000E+03	5.498809E-16	3.204335E-17
7.710000E+03	5.546425E-16	3.207341E-17
7.720000E+03	5.596252E-16	3.209595E-17
7.730000E+03	5.648059E-16	3.210781E-17
7.740000E+03	5.701651E-16	3.210587E-17
7.750000E+03	5.756786E-16	3.208664E-17
7.760000E+03	5.813177E-16	3.204622E-17
