#wls	flux	fluxerr
1.600000E+03	2.476218E-17	1.217745E-17
1.640000E+03	2.500143E-17	1.223592E-17
1.680000E+03	2.524278E-17	1.229173E-17
1.720000E+03	2.548315E-17	1.234337E-17
1.760000E+03	2.572452E-17	1.239183E-17
1.800000E+03	2.596382E-17	1.243565E-17
1.840000E+03	2.620802E-17	1.247825E-17
1.880000E+03	2.644900E-17	1.251584E-17
1.920000E+03	2.669118E-17	1.255068E-17
1.960000E+03	2.693642E-17	1.258378E-17
2.000000E+03	2.717919E-17	1.261275E-17
2.040000E+03	2.742385E-17	1.263983E-17
2.080000E+03	2.767221E-17	1.266607E-17
2.120000E+03	2.791889E-17	1.268925E-17
2.160000E+03	2.816820E-17	1.271158E-17
2.200000E+03	2.841964E-17	1.273307E-17
2.240000E+03	2.867512E-17	1.275478E-17
2.280000E+03	2.893423E-17	1.277668E-17
2.320000E+03	2.919896E-17	1.279976E-17
2.360000E+03	2.946674E-17	1.282296E-17
2.400000E+03	2.974427E-17	1.284913E-17
2.440000E+03	3.002916E-17	1.287710E-17
2.480000E+03	3.032369E-17	1.290757E-17
2.520000E+03	3.063023E-17	1.294117E-17
2.560000E+03	3.094909E-17	1.297750E-17
2.600000E+03	3.128723E-17	1.301881E-17
2.640000E+03	3.164095E-17	1.306272E-17
2.680000E+03	3.201752E-17	1.311133E-17
2.720000E+03	3.241802E-17	1.316396E-17
2.760000E+03	3.284797E-17	1.322165E-17
2.800000E+03	3.331105E-17	1.328457E-17
2.840000E+03	3.381128E-17	1.335288E-17
2.880000E+03	3.435306E-17	1.342679E-17
2.920000E+03	3.494321E-17	1.350735E-17
2.960000E+03	3.558701E-17	1.359491E-17
3.000000E+03	3.629223E-17	1.369063E-17
3.010000E+03	3.647900E-17	1.371594E-17
3.020000E+03	3.667070E-17	1.374202E-17
3.030000E+03	3.686739E-17	1.376887E-17
3.040000E+03	3.706722E-17	1.379575E-17
3.050000E+03	3.727220E-17	1.382339E-17
3.060000E+03	3.748244E-17	1.385179E-17
3.070000E+03	3.769802E-17	1.388095E-17
3.080000E+03	3.791903E-17	1.391087E-17
3.090000E+03	3.814556E-17	1.394154E-17
3.100000E+03	3.837772E-17	1.397297E-17
3.110000E+03	3.861561E-17	1.400517E-17
3.120000E+03	3.885933E-17	1.403812E-17
3.130000E+03	3.910900E-17	1.407183E-17
3.140000E+03	3.936473E-17	1.410631E-17
3.150000E+03	3.962663E-17	1.414156E-17
3.160000E+03	3.989484E-17	1.417759E-17
3.170000E+03	4.017138E-17	1.421508E-17
3.180000E+03	4.045448E-17	1.425335E-17
3.190000E+03	4.074426E-17	1.429240E-17
3.200000E+03	4.104277E-17	1.433292E-17
3.210000E+03	4.134825E-17	1.437424E-17
3.220000E+03	4.166084E-17	1.441636E-17
3.230000E+03	4.198260E-17	1.445996E-17
3.240000E+03	4.231177E-17	1.450438E-17
3.250000E+03	4.265043E-17	1.455028E-17
3.260000E+03	4.299682E-17	1.459703E-17
3.270000E+03	4.335303E-17	1.464526E-17
3.280000E+03	4.371732E-17	1.469436E-17
3.290000E+03	4.409177E-17	1.474497E-17
3.300000E+03	4.447657E-17	1.479710E-17
3.310000E+03	4.487000E-17	1.485012E-17
3.320000E+03	4.527608E-17	1.490532E-17
3.330000E+03	4.569117E-17	1.496143E-17
3.340000E+03	4.611740E-17	1.501910E-17
3.350000E+03	4.655497E-17	1.507834E-17
3.360000E+03	4.700218E-17	1.513856E-17
3.370000E+03	4.746308E-17	1.520099E-17
3.380000E+03	4.793598E-17	1.526504E-17
3.390000E+03	4.842112E-17	1.533072E-17
3.400000E+03	4.891871E-17	1.539805E-17
3.410000E+03	4.942902E-17	1.546706E-17
3.420000E+03	4.995226E-17	1.553776E-17
3.430000E+03	5.049064E-17	1.561078E-17
3.440000E+03	5.104247E-17	1.568554E-17
3.450000E+03	5.160801E-17	1.576207E-17
3.460000E+03	5.218750E-17	1.584040E-17
3.470000E+03	5.278318E-17	1.592114E-17
3.480000E+03	5.339532E-17	1.600433E-17
3.490000E+03	5.402222E-17	1.608942E-17
3.500000E+03	5.466417E-17	1.617643E-17
3.510000E+03	5.532341E-17	1.626600E-17
3.520000E+03	5.600022E-17	1.635816E-17
3.530000E+03	5.669291E-17	1.645238E-17
3.540000E+03	5.740373E-17	1.654927E-17
3.550000E+03	5.813297E-17	1.664889E-17
3.560000E+03	5.887892E-17	1.675072E-17
3.570000E+03	5.964586E-17	1.685594E-17
3.580000E+03	6.043006E-17	1.696348E-17
3.590000E+03	6.123379E-17	1.707396E-17
3.600000E+03	6.205733E-17	1.718745E-17
3.610000E+03	6.290298E-17	1.730455E-17
3.620000E+03	6.376691E-17	1.742422E-17
3.630000E+03	6.465143E-17	1.754709E-17
3.640000E+03	6.555881E-17	1.767377E-17
3.650000E+03	6.648517E-17	1.780323E-17
3.660000E+03	6.743486E-17	1.793663E-17
3.670000E+03	6.840601E-17	1.807351E-17
3.680000E+03	6.940090E-17	1.821448E-17
3.690000E+03	7.041550E-17	1.835851E-17
3.700000E+03	7.145417E-17	1.850677E-17
3.710000E+03	7.251493E-17	1.865878E-17
3.720000E+03	7.360003E-17	1.881515E-17
3.730000E+03	7.470742E-17	1.897541E-17
3.740000E+03	7.583717E-17	1.913961E-17
3.750000E+03	7.699149E-17	1.930837E-17
3.760000E+03	7.816822E-17	1.948119E-17
3.770000E+03	7.936955E-17	1.965868E-17
3.780000E+03	8.059326E-17	1.984032E-17
3.790000E+03	8.184150E-17	2.002672E-17
3.800000E+03	8.311200E-17	2.021737E-17
3.810000E+03	8.440463E-17	2.041230E-17
3.820000E+03	8.572151E-17	2.061208E-17
3.830000E+03	8.706251E-17	2.081673E-17
3.840000E+03	8.842295E-17	2.102520E-17
3.850000E+03	8.980946E-17	2.123910E-17
3.860000E+03	9.121730E-17	2.145736E-17
3.870000E+03	9.264625E-17	2.167999E-17
3.880000E+03	9.409842E-17	2.190752E-17
3.890000E+03	9.557128E-17	2.213940E-17
3.900000E+03	9.706460E-17	2.237561E-17
3.910000E+03	9.858052E-17	2.261667E-17
3.920000E+03	1.001189E-16	2.286258E-17
3.930000E+03	1.016747E-16	2.311221E-17
3.940000E+03	1.032527E-16	2.336663E-17
3.950000E+03	1.048502E-16	2.362528E-17
3.960000E+03	1.064696E-16	2.388867E-17
3.970000E+03	1.081085E-16	2.415625E-17
3.980000E+03	1.097667E-16	2.442799E-17
3.990000E+03	1.114443E-16	2.470389E-17
4.000000E+03	1.131413E-16	2.498393E-17
4.010000E+03	1.148580E-16	2.526813E-17
4.020000E+03	1.165944E-16	2.555648E-17
4.030000E+03	1.183508E-16	2.584900E-17
4.040000E+03	1.201276E-16	2.614573E-17
4.050000E+03	1.219250E-16	2.644671E-17
4.060000E+03	1.237436E-16	2.675198E-17
4.070000E+03	1.255814E-16	2.706106E-17
4.080000E+03	1.274414E-16	2.737458E-17
4.090000E+03	1.293217E-16	2.769208E-17
4.100000E+03	1.312256E-16	2.801422E-17
4.110000E+03	1.331538E-16	2.834111E-17
4.120000E+03	1.351020E-16	2.867179E-17
4.130000E+03	1.370763E-16	2.900750E-17
4.140000E+03	1.390748E-16	2.934785E-17
4.150000E+03	1.410985E-16	2.969300E-17
4.160000E+03	1.431484E-16	3.004315E-17
4.170000E+03	1.452254E-16	3.039847E-17
4.180000E+03	1.473305E-16	3.075916E-17
4.190000E+03	1.494618E-16	3.112485E-17
4.200000E+03	1.516229E-16	3.149632E-17
4.210000E+03	1.538120E-16	3.187319E-17
4.220000E+03	1.560299E-16	3.225567E-17
4.230000E+03	1.582799E-16	3.264450E-17
4.240000E+03	1.605571E-16	3.303874E-17
4.250000E+03	1.628676E-16	3.343967E-17
4.260000E+03	1.652062E-16	3.384632E-17
4.270000E+03	1.675757E-16	3.425936E-17
4.280000E+03	1.699763E-16	3.467890E-17
4.290000E+03	1.724050E-16	3.510443E-17
4.300000E+03	1.748613E-16	3.553596E-17
4.310000E+03	1.773448E-16	3.597348E-17
4.320000E+03	1.798545E-16	3.641694E-17
4.330000E+03	1.823894E-16	3.686622E-17
4.340000E+03	1.849483E-16	3.732115E-17
4.350000E+03	1.875265E-16	3.778093E-17
4.360000E+03	1.901224E-16	3.824527E-17
4.370000E+03	1.927367E-16	3.871441E-17
4.380000E+03	1.953640E-16	3.918735E-17
4.390000E+03	1.979989E-16	3.966301E-17
4.400000E+03	2.006412E-16	4.014144E-17
4.410000E+03	2.032880E-16	4.062203E-17
4.420000E+03	2.059327E-16	4.110349E-17
4.430000E+03	2.085749E-16	4.158570E-17
4.440000E+03	2.112047E-16	4.206663E-17
4.450000E+03	2.138211E-16	4.254604E-17
4.460000E+03	2.164200E-16	4.302303E-17
4.470000E+03	2.189941E-16	4.349606E-17
4.480000E+03	2.215423E-16	4.396475E-17
4.490000E+03	2.240540E-16	4.442689E-17
4.500000E+03	2.265312E-16	4.488269E-17
4.510000E+03	2.289633E-16	4.532990E-17
4.520000E+03	2.313461E-16	4.576751E-17
4.530000E+03	2.336788E-16	4.619514E-17
4.540000E+03	2.359544E-16	4.661122E-17
4.550000E+03	2.381692E-16	4.701480E-17
4.560000E+03	2.403166E-16	4.740438E-17
4.570000E+03	2.423969E-16	4.777977E-17
4.580000E+03	2.444041E-16	4.813957E-17
4.590000E+03	2.463359E-16	4.848309E-17
4.600000E+03	2.481903E-16	4.880974E-17
4.610000E+03	2.499657E-16	4.911898E-17
4.620000E+03	2.516612E-16	4.941040E-17
4.630000E+03	2.532696E-16	4.968240E-17
4.640000E+03	2.547972E-16	4.993600E-17
4.650000E+03	2.562410E-16	5.017043E-17
4.660000E+03	2.576018E-16	5.038563E-17
4.670000E+03	2.588777E-16	5.058103E-17
4.680000E+03	2.600700E-16	5.075678E-17
4.690000E+03	2.611842E-16	5.091371E-17
4.700000E+03	2.622194E-16	5.105151E-17
4.710000E+03	2.631783E-16	5.117057E-17
4.720000E+03	2.640640E-16	5.127133E-17
4.730000E+03	2.648799E-16	5.135429E-17
4.740000E+03	2.656264E-16	5.141942E-17
4.750000E+03	2.663106E-16	5.146793E-17
4.760000E+03	2.669300E-16	5.149925E-17
4.770000E+03	2.674983E-16	5.151588E-17
4.780000E+03	2.680104E-16	5.151669E-17
4.790000E+03	2.684735E-16	5.150299E-17
4.800000E+03	2.688922E-16	5.147550E-17
4.810000E+03	2.692706E-16	5.143492E-17
4.820000E+03	2.696130E-16	5.138194E-17
4.830000E+03	2.699237E-16	5.131724E-17
4.840000E+03	2.702037E-16	5.124089E-17
4.850000E+03	2.704599E-16	5.115410E-17
4.860000E+03	2.706963E-16	5.105746E-17
4.870000E+03	2.709165E-16	5.095153E-17
4.880000E+03	2.711209E-16	5.083625E-17
4.890000E+03	2.713159E-16	5.071265E-17
4.900000E+03	2.715044E-16	5.058115E-17
4.910000E+03	2.716895E-16	5.044214E-17
4.920000E+03	2.718706E-16	5.029537E-17
4.930000E+03	2.720532E-16	5.014168E-17
4.940000E+03	2.722394E-16	4.998128E-17
4.950000E+03	2.724311E-16	4.981435E-17
4.960000E+03	2.726301E-16	4.964099E-17
4.970000E+03	2.728378E-16	4.946128E-17
4.980000E+03	2.730553E-16	4.927524E-17
4.990000E+03	2.732866E-16	4.908335E-17
5.000000E+03	2.735266E-16	4.888449E-17
5.010000E+03	2.737815E-16	4.867960E-17
5.020000E+03	2.740517E-16	4.846848E-17
5.030000E+03	2.743342E-16	4.825043E-17
5.040000E+03	2.746320E-16	4.802571E-17
5.050000E+03	2.749444E-16	4.779405E-17
5.060000E+03	2.752681E-16	4.755462E-17
5.070000E+03	2.756080E-16	4.730810E-17
5.080000E+03	2.759574E-16	4.705314E-17
5.090000E+03	2.763208E-16	4.679035E-17
5.100000E+03	2.766969E-16	4.651934E-17
5.110000E+03	2.770813E-16	4.623922E-17
5.120000E+03	2.774721E-16	4.594962E-17
5.130000E+03	2.778734E-16	4.565109E-17
5.140000E+03	2.782772E-16	4.534232E-17
5.150000E+03	2.786845E-16	4.502344E-17
5.160000E+03	2.790957E-16	4.469459E-17
5.170000E+03	2.795057E-16	4.435503E-17
5.180000E+03	2.799148E-16	4.400501E-17
5.190000E+03	2.803177E-16	4.364389E-17
5.200000E+03	2.807147E-16	4.327206E-17
5.210000E+03	2.811033E-16	4.288951E-17
5.220000E+03	2.814807E-16	4.249634E-17
5.230000E+03	2.818475E-16	4.209322E-17
5.240000E+03	2.821952E-16	4.167960E-17
5.250000E+03	2.825303E-16	4.125727E-17
5.260000E+03	2.828446E-16	4.082600E-17
5.270000E+03	2.831388E-16	4.038703E-17
5.280000E+03	2.834111E-16	3.994133E-17
5.290000E+03	2.836595E-16	3.949010E-17
5.300000E+03	2.838856E-16	3.903512E-17
5.310000E+03	2.840851E-16	3.857758E-17
5.320000E+03	2.842570E-16	3.811931E-17
5.330000E+03	2.844064E-16	3.766315E-17
5.340000E+03	2.845273E-16	3.721058E-17
5.350000E+03	2.846252E-16	3.676488E-17
5.360000E+03	2.846950E-16	3.632800E-17
5.370000E+03	2.847428E-16	3.590361E-17
5.380000E+03	2.847671E-16	3.549442E-17
5.390000E+03	2.847720E-16	3.510405E-17
5.400000E+03	2.847593E-16	3.473585E-17
5.410000E+03	2.847311E-16	3.439322E-17
5.420000E+03	2.846868E-16	3.407925E-17
5.430000E+03	2.846348E-16	3.379800E-17
5.440000E+03	2.845722E-16	3.355203E-17
5.450000E+03	2.845078E-16	3.334503E-17
5.460000E+03	2.844446E-16	3.317972E-17
5.470000E+03	2.843802E-16	3.305778E-17
5.480000E+03	2.843264E-16	3.298202E-17
5.490000E+03	2.842806E-16	3.295303E-17
5.500000E+03	2.842459E-16	3.297136E-17
5.510000E+03	2.842309E-16	3.303753E-17
5.520000E+03	2.842326E-16	3.315010E-17
5.530000E+03	2.842565E-16	3.330804E-17
5.540000E+03	2.843051E-16	3.350952E-17
5.550000E+03	2.843778E-16	3.375204E-17
5.560000E+03	2.844824E-16	3.403382E-17
5.570000E+03	2.846153E-16	3.435156E-17
5.580000E+03	2.847813E-16	3.470286E-17
5.590000E+03	2.849792E-16	3.508458E-17
5.600000E+03	2.852163E-16	3.549465E-17
5.610000E+03	2.854883E-16	3.592964E-17
5.620000E+03	2.857965E-16	3.638692E-17
5.630000E+03	2.861447E-16	3.686431E-17
5.640000E+03	2.865336E-16	3.735943E-17
5.650000E+03	2.869611E-16	3.786965E-17
5.660000E+03	2.874275E-16	3.839285E-17
5.670000E+03	2.879355E-16	3.892744E-17
5.680000E+03	2.884822E-16	3.947120E-17
5.690000E+03	2.890669E-16	4.002239E-17
5.700000E+03	2.896889E-16	4.057942E-17
5.710000E+03	2.903469E-16	4.114077E-17
5.720000E+03	2.910395E-16	4.170504E-17
5.730000E+03	2.917648E-16	4.227088E-17
5.740000E+03	2.925179E-16	4.283662E-17
5.750000E+03	2.933021E-16	4.340188E-17
5.760000E+03	2.941060E-16	4.396422E-17
5.770000E+03	2.949353E-16	4.452379E-17
5.780000E+03	2.957782E-16	4.507821E-17
5.790000E+03	2.966371E-16	4.562728E-17
5.800000E+03	2.975054E-16	4.616952E-17
5.810000E+03	2.983794E-16	4.670391E-17
5.820000E+03	2.992524E-16	4.722900E-17
5.830000E+03	3.001263E-16	4.774475E-17
5.840000E+03	3.009914E-16	4.824928E-17
5.850000E+03	3.018469E-16	4.874216E-17
5.860000E+03	3.026890E-16	4.922253E-17
5.870000E+03	3.035110E-16	4.968908E-17
5.880000E+03	3.043096E-16	5.014102E-17
5.890000E+03	3.050816E-16	5.057763E-17
5.900000E+03	3.058269E-16	5.099873E-17
5.910000E+03	3.065369E-16	5.140273E-17
5.920000E+03	3.072124E-16	5.178958E-17
5.930000E+03	3.078512E-16	5.215884E-17
5.940000E+03	3.084519E-16	5.251012E-17
5.950000E+03	3.090102E-16	5.284260E-17
5.960000E+03	3.095283E-16	5.315660E-17
5.970000E+03	3.099999E-16	5.345094E-17
5.980000E+03	3.104341E-16	5.372714E-17
5.990000E+03	3.108222E-16	5.398368E-17
6.000000E+03	3.111682E-16	5.422121E-17
6.010000E+03	3.114733E-16	5.443993E-17
6.020000E+03	3.117391E-16	5.464013E-17
6.030000E+03	3.119675E-16	5.482218E-17
6.040000E+03	3.121609E-16	5.498649E-17
6.050000E+03	3.123188E-16	5.513303E-17
6.060000E+03	3.124439E-16	5.526233E-17
6.070000E+03	3.125423E-16	5.537554E-17
6.080000E+03	3.126140E-16	5.547273E-17
6.090000E+03	3.126654E-16	5.555513E-17
6.100000E+03	3.126968E-16	5.562288E-17
6.110000E+03	3.127085E-16	5.567615E-17
6.120000E+03	3.127099E-16	5.571674E-17
6.130000E+03	3.127014E-16	5.574485E-17
6.140000E+03	3.126860E-16	5.576119E-17
6.150000E+03	3.126670E-16	5.576648E-17
6.160000E+03	3.126472E-16	5.576141E-17
6.170000E+03	3.126262E-16	5.574611E-17
6.180000E+03	3.126127E-16	5.572233E-17
6.190000E+03	3.126027E-16	5.568961E-17
6.200000E+03	3.126011E-16	5.564909E-17
6.210000E+03	3.126095E-16	5.560134E-17
6.220000E+03	3.126293E-16	5.554689E-17
6.230000E+03	3.126613E-16	5.548625E-17
6.240000E+03	3.127060E-16	5.541991E-17
6.250000E+03	3.127637E-16	5.534830E-17
6.260000E+03	3.128342E-16	5.527186E-17
6.270000E+03	3.129200E-16	5.519153E-17
6.280000E+03	3.130171E-16	5.510717E-17
6.290000E+03	3.131242E-16	5.501915E-17
6.300000E+03	3.132398E-16	5.492783E-17
6.310000E+03	3.133651E-16	5.483414E-17
6.320000E+03	3.134977E-16	5.473843E-17
6.330000E+03	3.136319E-16	5.464054E-17
6.340000E+03	3.137714E-16	5.454193E-17
6.350000E+03	3.139066E-16	5.444191E-17
6.360000E+03	3.140343E-16	5.434088E-17
6.370000E+03	3.141572E-16	5.424035E-17
6.380000E+03	3.142717E-16	5.414074E-17
6.390000E+03	3.143678E-16	5.404140E-17
6.400000E+03	3.144477E-16	5.394388E-17
6.410000E+03	3.145044E-16	5.384806E-17
6.420000E+03	3.145369E-16	5.375494E-17
6.430000E+03	3.145381E-16	5.366438E-17
6.440000E+03	3.145072E-16	5.357735E-17
6.450000E+03	3.144403E-16	5.349421E-17
6.460000E+03	3.143335E-16	5.341528E-17
6.470000E+03	3.141832E-16	5.334084E-17
6.480000E+03	3.139859E-16	5.327110E-17
6.490000E+03	3.137415E-16	5.320674E-17
6.500000E+03	3.134439E-16	5.314727E-17
6.510000E+03	3.130903E-16	5.309266E-17
6.520000E+03	3.126815E-16	5.304332E-17
6.530000E+03	3.122155E-16	5.299906E-17
6.540000E+03	3.116872E-16	5.295900E-17
6.550000E+03	3.110987E-16	5.292331E-17
6.560000E+03	3.104521E-16	5.289205E-17
6.570000E+03	3.097406E-16	5.286358E-17
6.580000E+03	3.089674E-16	5.283784E-17
6.590000E+03	3.081359E-16	5.281472E-17
6.600000E+03	3.072405E-16	5.279241E-17
6.610000E+03	3.062921E-16	5.277188E-17
6.620000E+03	3.052826E-16	5.275075E-17
6.630000E+03	3.042238E-16	5.272999E-17
6.640000E+03	3.031083E-16	5.270725E-17
6.650000E+03	3.019487E-16	5.268359E-17
6.660000E+03	3.007417E-16	5.265732E-17
6.670000E+03	2.994970E-16	5.262907E-17
6.680000E+03	2.982121E-16	5.259728E-17
6.690000E+03	2.968940E-16	5.256218E-17
6.700000E+03	2.955503E-16	5.252409E-17
6.710000E+03	2.941822E-16	5.248228E-17
6.720000E+03	2.927940E-16	5.243666E-17
6.730000E+03	2.913906E-16	5.238727E-17
6.740000E+03	2.899798E-16	5.233477E-17
6.750000E+03	2.885663E-16	5.227934E-17
6.760000E+03	2.871516E-16	5.222067E-17
6.770000E+03	2.857437E-16	5.215966E-17
6.780000E+03	2.843471E-16	5.209667E-17
6.790000E+03	2.829631E-16	5.203156E-17
6.800000E+03	2.816024E-16	5.196596E-17
6.810000E+03	2.802628E-16	5.189919E-17
6.820000E+03	2.789544E-16	5.183294E-17
6.830000E+03	2.776780E-16	5.176715E-17
6.840000E+03	2.764369E-16	5.170237E-17
6.850000E+03	2.752344E-16	5.163910E-17
6.860000E+03	2.740765E-16	5.157846E-17
6.870000E+03	2.729657E-16	5.152094E-17
6.880000E+03	2.718984E-16	5.146585E-17
6.890000E+03	2.708858E-16	5.141539E-17
6.900000E+03	2.699235E-16	5.136879E-17
6.910000E+03	2.690161E-16	5.132703E-17
6.920000E+03	2.681647E-16	5.129044E-17
6.930000E+03	2.673672E-16	5.125873E-17
6.940000E+03	2.666305E-16	5.123334E-17
6.950000E+03	2.659487E-16	5.121329E-17
6.960000E+03	2.653282E-16	5.119996E-17
6.970000E+03	2.647627E-16	5.119227E-17
6.980000E+03	2.642582E-16	5.119152E-17
6.990000E+03	2.638110E-16	5.119716E-17
7.000000E+03	2.634237E-16	5.120981E-17
7.010000E+03	2.630892E-16	5.122826E-17
7.020000E+03	2.628160E-16	5.125427E-17
7.030000E+03	2.625936E-16	5.128595E-17
7.040000E+03	2.624272E-16	5.132442E-17
7.050000E+03	2.623154E-16	5.136955E-17
7.060000E+03	2.622539E-16	5.142059E-17
7.070000E+03	2.622444E-16	5.147800E-17
7.080000E+03	2.622857E-16	5.154162E-17
7.090000E+03	2.623763E-16	5.161126E-17
7.100000E+03	2.625116E-16	5.168612E-17
7.110000E+03	2.626936E-16	5.176663E-17
7.120000E+03	2.629208E-16	5.185261E-17
7.130000E+03	2.631953E-16	5.194450E-17
7.140000E+03	2.635094E-16	5.204086E-17
7.150000E+03	2.638652E-16	5.214215E-17
7.160000E+03	2.642617E-16	5.224820E-17
7.170000E+03	2.646981E-16	5.235886E-17
7.180000E+03	2.651767E-16	5.247466E-17
7.190000E+03	2.656937E-16	5.259484E-17
7.200000E+03	2.662484E-16	5.271928E-17
7.210000E+03	2.668406E-16	5.284792E-17
7.220000E+03	2.674733E-16	5.298137E-17
7.230000E+03	2.681398E-16	5.311827E-17
7.240000E+03	2.688503E-16	5.326061E-17
7.250000E+03	2.695948E-16	5.340641E-17
7.260000E+03	2.703840E-16	5.355774E-17
7.270000E+03	2.712084E-16	5.371266E-17
7.280000E+03	2.720756E-16	5.387260E-17
7.290000E+03	2.729865E-16	5.403771E-17
7.300000E+03	2.739389E-16	5.420746E-17
7.310000E+03	2.749377E-16	5.438272E-17
7.320000E+03	2.759807E-16	5.456299E-17
7.330000E+03	2.770733E-16	5.474920E-17
7.340000E+03	2.782173E-16	5.494160E-17
7.350000E+03	2.794110E-16	5.513974E-17
7.360000E+03	2.806604E-16	5.534462E-17
7.370000E+03	2.819639E-16	5.555581E-17
7.380000E+03	2.833276E-16	5.577434E-17
7.390000E+03	2.847541E-16	5.600051E-17
7.400000E+03	2.862459E-16	5.623464E-17
7.410000E+03	2.878020E-16	5.647630E-17
7.420000E+03	2.894288E-16	5.672654E-17
7.430000E+03	2.911291E-16	5.698565E-17
7.440000E+03	2.929018E-16	5.725315E-17
7.450000E+03	2.947536E-16	5.753006E-17
7.460000E+03	2.966832E-16	5.781585E-17
7.470000E+03	2.986972E-16	5.811147E-17
7.480000E+03	3.007982E-16	5.841709E-17
7.490000E+03	3.029847E-16	5.873206E-17
7.500000E+03	3.052590E-16	5.905644E-17
7.510000E+03	3.076272E-16	5.939103E-17
7.520000E+03	3.100915E-16	5.973579E-17
7.530000E+03	3.126493E-16	6.008981E-17
7.540000E+03	3.153022E-16	6.045292E-17
7.550000E+03	3.180513E-16	6.082484E-17
7.560000E+03	3.209015E-16	6.120605E-17
7.570000E+03	3.238493E-16	6.159531E-17
7.580000E+03	3.268945E-16	6.199209E-17
7.590000E+03	3.300413E-16	6.239660E-17
7.600000E+03	3.332799E-16	6.280646E-17
7.610000E+03	3.366178E-16	6.322253E-17
7.620000E+03	3.400487E-16	6.364303E-17
7.630000E+03	3.435654E-16	6.406606E-17
7.640000E+03	3.471740E-16	6.449220E-17
7.650000E+03	3.508613E-16	6.491846E-17
7.660000E+03	3.546321E-16	6.534522E-17
7.670000E+03	3.584717E-16	6.576925E-17
7.680000E+03	3.623787E-16	6.618988E-17
7.690000E+03	3.663463E-16	6.660545E-17
7.700000E+03	3.703668E-16	6.701421E-17
7.710000E+03	3.744265E-16	6.741343E-17
7.720000E+03	3.785210E-16	6.780215E-17
7.730000E+03	3.826400E-16	6.817844E-17
7.740000E+03	3.867671E-16	6.853943E-17
7.750000E+03	3.908956E-16	6.888410E-17
7.760000E+03	3.950071E-16	6.920955E-17
