#wls	flux	fluxerr
1.600000E+03	1.648156E-17	8.206883E-18
1.640000E+03	1.666886E-17	8.268736E-18
1.680000E+03	1.686060E-17	8.330820E-18
1.720000E+03	1.705452E-17	8.391984E-18
1.760000E+03	1.725407E-17	8.453916E-18
1.800000E+03	1.745698E-17	8.515480E-18
1.840000E+03	1.766288E-17	8.576499E-18
1.880000E+03	1.787514E-17	8.638624E-18
1.920000E+03	1.808961E-17	8.699863E-18
1.960000E+03	1.830965E-17	8.761863E-18
2.000000E+03	1.853668E-17	8.825335E-18
2.040000E+03	1.876660E-17	8.888362E-18
2.080000E+03	1.900273E-17	8.952557E-18
2.120000E+03	1.924647E-17	9.018621E-18
2.160000E+03	1.949564E-17	9.085549E-18
2.200000E+03	1.975170E-17	9.154048E-18
2.240000E+03	2.001610E-17	9.224792E-18
2.280000E+03	2.028854E-17	9.297612E-18
2.320000E+03	2.056879E-17	9.372346E-18
2.360000E+03	2.086186E-17	9.451188E-18
2.400000E+03	2.116413E-17	9.532332E-18
2.440000E+03	2.147895E-17	9.617112E-18
2.480000E+03	2.180802E-17	9.706020E-18
2.520000E+03	2.215141E-17	9.798762E-18
2.560000E+03	2.251099E-17	9.895778E-18
2.600000E+03	2.289038E-17	9.998190E-18
2.640000E+03	2.328838E-17	1.010492E-17
2.680000E+03	2.371049E-17	1.021775E-17
2.720000E+03	2.415748E-17	1.033629E-17
2.760000E+03	2.463195E-17	1.046088E-17
2.800000E+03	2.513673E-17	1.059187E-17
2.840000E+03	2.567802E-17	1.073095E-17
2.880000E+03	2.625757E-17	1.087783E-17
2.920000E+03	2.687906E-17	1.103295E-17
2.960000E+03	2.754807E-17	1.119744E-17
3.000000E+03	2.827207E-17	1.137310E-17
3.010000E+03	2.846099E-17	1.141834E-17
3.020000E+03	2.865533E-17	1.146496E-17
3.030000E+03	2.885210E-17	1.151175E-17
3.040000E+03	2.905287E-17	1.155932E-17
3.050000E+03	2.925925E-17	1.160828E-17
3.060000E+03	2.946824E-17	1.165742E-17
3.070000E+03	2.968144E-17	1.170736E-17
3.080000E+03	2.990043E-17	1.175868E-17
3.090000E+03	3.012377E-17	1.181079E-17
3.100000E+03	3.035002E-17	1.186312E-17
3.110000E+03	3.058229E-17	1.191684E-17
3.120000E+03	3.082065E-17	1.197196E-17
3.130000E+03	3.106217E-17	1.202732E-17
3.140000E+03	3.130994E-17	1.208409E-17
3.150000E+03	3.156255E-17	1.214169E-17
3.160000E+03	3.182008E-17	1.220013E-17
3.170000E+03	3.208414E-17	1.226001E-17
3.180000E+03	3.235332E-17	1.232075E-17
3.190000E+03	3.262772E-17	1.238236E-17
3.200000E+03	3.291044E-17	1.244600E-17
3.210000E+03	3.319708E-17	1.250996E-17
3.220000E+03	3.349075E-17	1.257539E-17
3.230000E+03	3.379156E-17	1.264231E-17
3.240000E+03	3.409813E-17	1.271017E-17
3.250000E+03	3.441208E-17	1.277953E-17
3.260000E+03	3.473201E-17	1.284986E-17
3.270000E+03	3.505957E-17	1.292173E-17
3.280000E+03	3.539487E-17	1.299516E-17
3.290000E+03	3.573804E-17	1.307015E-17
3.300000E+03	3.608923E-17	1.314673E-17
3.310000E+03	3.644705E-17	1.322436E-17
3.320000E+03	3.681315E-17	1.330361E-17
3.330000E+03	3.718768E-17	1.338451E-17
3.340000E+03	3.757079E-17	1.346707E-17
3.350000E+03	3.796414E-17	1.355186E-17
3.360000E+03	3.836484E-17	1.363781E-17
3.370000E+03	3.877458E-17	1.372550E-17
3.380000E+03	3.919351E-17	1.381494E-17
3.390000E+03	3.962179E-17	1.390617E-17
3.400000E+03	4.006111E-17	1.399975E-17
3.410000E+03	4.051013E-17	1.409516E-17
3.420000E+03	4.096899E-17	1.419245E-17
3.430000E+03	4.143789E-17	1.429163E-17
3.440000E+03	4.191853E-17	1.439328E-17
3.450000E+03	4.240955E-17	1.449690E-17
3.460000E+03	4.291113E-17	1.460252E-17
3.470000E+03	4.342501E-17	1.471071E-17
3.480000E+03	4.394981E-17	1.482097E-17
3.490000E+03	4.448728E-17	1.493387E-17
3.500000E+03	4.503605E-17	1.504893E-17
3.510000E+03	4.559788E-17	1.516671E-17
3.520000E+03	4.617137E-17	1.528673E-17
3.530000E+03	4.675830E-17	1.540955E-17
3.540000E+03	4.735887E-17	1.553523E-17
3.550000E+03	4.797167E-17	1.566328E-17
3.560000E+03	4.860008E-17	1.579479E-17
3.570000E+03	4.924112E-17	1.592878E-17
3.580000E+03	4.989495E-17	1.606529E-17
3.590000E+03	5.056498E-17	1.620540E-17
3.600000E+03	5.124979E-17	1.634865E-17
3.610000E+03	5.194795E-17	1.649458E-17
3.620000E+03	5.266126E-17	1.664375E-17
3.630000E+03	5.339151E-17	1.679673E-17
3.640000E+03	5.413565E-17	1.695255E-17
3.650000E+03	5.489709E-17	1.711228E-17
3.660000E+03	5.567273E-17	1.727496E-17
3.670000E+03	5.646603E-17	1.744165E-17
3.680000E+03	5.727383E-17	1.761140E-17
3.690000E+03	5.809959E-17	1.778527E-17
3.700000E+03	5.894182E-17	1.796281E-17
3.710000E+03	5.980063E-17	1.814406E-17
3.720000E+03	6.067617E-17	1.832909E-17
3.730000E+03	6.157024E-17	1.851844E-17
3.740000E+03	6.247959E-17	1.871114E-17
3.750000E+03	6.340770E-17	1.890827E-17
3.760000E+03	6.435300E-17	1.910935E-17
3.770000E+03	6.531728E-17	1.931494E-17
3.780000E+03	6.629720E-17	1.952407E-17
3.790000E+03	6.729628E-17	1.973778E-17
3.800000E+03	6.831288E-17	1.995562E-17
3.810000E+03	6.934881E-17	2.017812E-17
3.820000E+03	7.040062E-17	2.040429E-17
3.830000E+03	7.147189E-17	2.063520E-17
3.840000E+03	7.256090E-17	2.087035E-17
3.850000E+03	7.366949E-17	2.111030E-17
3.860000E+03	7.479592E-17	2.135454E-17
3.870000E+03	7.593842E-17	2.160260E-17
3.880000E+03	7.710245E-17	2.185603E-17
3.890000E+03	7.828262E-17	2.211331E-17
3.900000E+03	7.948261E-17	2.237550E-17
3.910000E+03	8.069879E-17	2.264157E-17
3.920000E+03	8.193489E-17	2.291259E-17
3.930000E+03	8.318910E-17	2.318803E-17
3.940000E+03	8.446149E-17	2.346794E-17
3.950000E+03	8.575211E-17	2.375230E-17
3.960000E+03	8.706292E-17	2.404168E-17
3.970000E+03	8.839021E-17	2.433503E-17
3.980000E+03	8.973595E-17	2.463290E-17
3.990000E+03	9.110023E-17	2.493531E-17
4.000000E+03	9.248316E-17	2.524227E-17
4.010000E+03	9.388484E-17	2.555380E-17
4.020000E+03	9.530542E-17	2.586994E-17
4.030000E+03	9.674306E-17	2.619016E-17
4.040000E+03	9.819987E-17	2.651504E-17
4.050000E+03	9.967600E-17	2.684459E-17
4.060000E+03	1.011696E-16	2.717831E-17
4.070000E+03	1.026829E-16	2.751677E-17
4.080000E+03	1.042161E-16	2.786000E-17
4.090000E+03	1.057652E-16	2.820696E-17
4.100000E+03	1.073346E-16	2.855877E-17
4.110000E+03	1.089243E-16	2.891546E-17
4.120000E+03	1.105306E-16	2.927599E-17
4.130000E+03	1.121556E-16	2.964093E-17
4.140000E+03	1.138016E-16	3.001086E-17
4.150000E+03	1.154645E-16	3.038473E-17
4.160000E+03	1.171487E-16	3.076366E-17
4.170000E+03	1.188480E-16	3.114603E-17
4.180000E+03	1.205688E-16	3.153351E-17
4.190000E+03	1.223069E-16	3.192501E-17
4.200000E+03	1.240623E-16	3.232055E-17
4.210000E+03	1.258372E-16	3.272067E-17
4.220000E+03	1.276293E-16	3.312481E-17
4.230000E+03	1.294385E-16	3.353295E-17
4.240000E+03	1.312646E-16	3.394505E-17
4.250000E+03	1.331074E-16	3.436106E-17
4.260000E+03	1.349643E-16	3.478035E-17
4.270000E+03	1.368372E-16	3.520340E-17
4.280000E+03	1.387257E-16	3.563010E-17
4.290000E+03	1.406269E-16	3.605976E-17
4.300000E+03	1.425401E-16	3.649224E-17
4.310000E+03	1.444648E-16	3.692735E-17
4.320000E+03	1.464000E-16	3.736490E-17
4.330000E+03	1.483427E-16	3.780410E-17
4.340000E+03	1.502939E-16	3.824527E-17
4.350000E+03	1.522527E-16	3.868813E-17
4.360000E+03	1.542156E-16	3.913180E-17
4.370000E+03	1.561812E-16	3.957594E-17
4.380000E+03	1.581482E-16	4.002020E-17
4.390000E+03	1.601151E-16	4.046418E-17
4.400000E+03	1.620780E-16	4.090689E-17
4.410000E+03	1.640377E-16	4.134846E-17
4.420000E+03	1.659877E-16	4.178726E-17
4.430000E+03	1.679310E-16	4.222397E-17
4.440000E+03	1.698633E-16	4.265749E-17
4.450000E+03	1.717829E-16	4.308731E-17
4.460000E+03	1.736855E-16	4.351228E-17
4.470000E+03	1.755692E-16	4.393185E-17
4.480000E+03	1.774320E-16	4.434545E-17
4.490000E+03	1.792720E-16	4.475251E-17
4.500000E+03	1.810873E-16	4.515247E-17
4.510000E+03	1.828736E-16	4.554414E-17
4.520000E+03	1.846317E-16	4.592758E-17
4.530000E+03	1.863547E-16	4.630102E-17
4.540000E+03	1.880436E-16	4.666451E-17
4.550000E+03	1.896942E-16	4.701695E-17
4.560000E+03	1.913075E-16	4.735842E-17
4.570000E+03	1.928797E-16	4.768785E-17
4.580000E+03	1.944095E-16	4.800479E-17
4.590000E+03	1.958935E-16	4.830823E-17
4.600000E+03	1.973329E-16	4.859837E-17
4.610000E+03	1.987247E-16	4.887429E-17
4.620000E+03	2.000682E-16	4.913566E-17
4.630000E+03	2.013628E-16	4.938224E-17
4.640000E+03	2.026058E-16	4.961319E-17
4.650000E+03	2.037970E-16	4.982834E-17
4.660000E+03	2.049390E-16	5.002817E-17
4.670000E+03	2.060270E-16	5.021137E-17
4.680000E+03	2.070663E-16	5.037910E-17
4.690000E+03	2.080501E-16	5.052957E-17
4.700000E+03	2.089840E-16	5.066402E-17
4.710000E+03	2.098663E-16	5.078191E-17
4.720000E+03	2.106982E-16	5.088338E-17
4.730000E+03	2.114806E-16	5.096856E-17
4.740000E+03	2.122149E-16	5.103765E-17
4.750000E+03	2.128975E-16	5.108969E-17
4.760000E+03	2.135373E-16	5.112667E-17
4.770000E+03	2.141284E-16	5.114712E-17
4.780000E+03	2.146749E-16	5.115190E-17
4.790000E+03	2.151810E-16	5.114188E-17
4.800000E+03	2.156436E-16	5.111625E-17
4.810000E+03	2.160668E-16	5.107589E-17
4.820000E+03	2.164525E-16	5.102115E-17
4.830000E+03	2.168000E-16	5.095179E-17
4.840000E+03	2.171136E-16	5.086873E-17
4.850000E+03	2.173952E-16	5.077230E-17
4.860000E+03	2.176439E-16	5.066227E-17
4.870000E+03	2.178641E-16	5.053953E-17
4.880000E+03	2.180551E-16	5.040384E-17
4.890000E+03	2.182207E-16	5.025607E-17
4.900000E+03	2.183627E-16	5.009649E-17
4.910000E+03	2.184826E-16	4.992539E-17
4.920000E+03	2.185793E-16	4.974248E-17
4.930000E+03	2.186568E-16	4.954857E-17
4.940000E+03	2.187138E-16	4.934334E-17
4.950000E+03	2.187563E-16	4.912806E-17
4.960000E+03	2.187831E-16	4.890240E-17
4.970000E+03	2.187927E-16	4.866602E-17
4.980000E+03	2.187908E-16	4.842011E-17
4.990000E+03	2.187759E-16	4.816430E-17
5.000000E+03	2.187510E-16	4.789923E-17
5.010000E+03	2.187144E-16	4.762451E-17
5.020000E+03	2.186667E-16	4.734025E-17
5.030000E+03	2.186128E-16	4.704754E-17
5.040000E+03	2.185486E-16	4.674546E-17
5.050000E+03	2.184766E-16	4.643461E-17
5.060000E+03	2.183969E-16	4.611505E-17
5.070000E+03	2.183098E-16	4.578687E-17
5.080000E+03	2.182173E-16	4.545062E-17
5.090000E+03	2.181174E-16	4.510592E-17
5.100000E+03	2.180120E-16	4.475334E-17
5.110000E+03	2.179011E-16	4.439299E-17
5.120000E+03	2.177843E-16	4.402500E-17
5.130000E+03	2.176615E-16	4.364952E-17
5.140000E+03	2.175323E-16	4.326674E-17
5.150000E+03	2.173986E-16	4.287730E-17
5.160000E+03	2.172601E-16	4.248146E-17
5.170000E+03	2.171163E-16	4.207949E-17
5.180000E+03	2.169647E-16	4.167130E-17
5.190000E+03	2.168093E-16	4.125813E-17
5.200000E+03	2.166475E-16	4.083999E-17
5.210000E+03	2.164811E-16	4.041779E-17
5.220000E+03	2.163099E-16	3.999209E-17
5.230000E+03	2.161312E-16	3.956312E-17
5.240000E+03	2.159493E-16	3.913239E-17
5.250000E+03	2.157616E-16	3.870028E-17
5.260000E+03	2.155703E-16	3.826803E-17
5.270000E+03	2.153729E-16	3.783622E-17
5.280000E+03	2.151718E-16	3.740626E-17
5.290000E+03	2.149668E-16	3.697927E-17
5.300000E+03	2.147602E-16	3.655684E-17
5.310000E+03	2.145480E-16	3.613953E-17
5.320000E+03	2.143369E-16	3.572983E-17
5.330000E+03	2.141228E-16	3.532849E-17
5.340000E+03	2.139084E-16	3.493741E-17
5.350000E+03	2.136964E-16	3.455858E-17
5.360000E+03	2.134852E-16	3.419333E-17
5.370000E+03	2.132755E-16	3.384343E-17
5.380000E+03	2.130702E-16	3.351099E-17
5.390000E+03	2.128680E-16	3.319750E-17
5.400000E+03	2.126740E-16	3.290545E-17
5.410000E+03	2.124849E-16	3.263599E-17
5.420000E+03	2.123061E-16	3.239155E-17
5.430000E+03	2.121384E-16	3.217384E-17
5.440000E+03	2.119809E-16	3.198415E-17
5.450000E+03	2.118346E-16	3.182397E-17
5.460000E+03	2.117028E-16	3.169496E-17
5.470000E+03	2.115885E-16	3.159855E-17
5.480000E+03	2.114887E-16	3.153499E-17
5.490000E+03	2.114064E-16	3.150516E-17
5.500000E+03	2.113446E-16	3.150959E-17
5.510000E+03	2.113021E-16	3.154780E-17
5.520000E+03	2.112797E-16	3.161932E-17
5.530000E+03	2.112801E-16	3.172367E-17
5.540000E+03	2.113018E-16	3.185951E-17
5.550000E+03	2.113453E-16	3.202564E-17
5.560000E+03	2.114134E-16	3.222103E-17
5.570000E+03	2.115041E-16	3.244389E-17
5.580000E+03	2.116200E-16	3.269299E-17
5.590000E+03	2.117592E-16	3.296641E-17
5.600000E+03	2.119219E-16	3.326252E-17
5.610000E+03	2.121102E-16	3.358001E-17
5.620000E+03	2.123222E-16	3.391690E-17
5.630000E+03	2.125576E-16	3.427160E-17
5.640000E+03	2.128186E-16	3.464285E-17
5.650000E+03	2.131005E-16	3.502844E-17
5.660000E+03	2.134074E-16	3.542756E-17
5.670000E+03	2.137368E-16	3.583844E-17
5.680000E+03	2.140880E-16	3.625970E-17
5.690000E+03	2.144606E-16	3.669002E-17
5.700000E+03	2.148539E-16	3.712813E-17
5.710000E+03	2.152650E-16	3.757246E-17
5.720000E+03	2.156973E-16	3.802261E-17
5.730000E+03	2.161458E-16	3.847674E-17
5.740000E+03	2.166094E-16	3.893379E-17
5.750000E+03	2.170892E-16	3.939315E-17
5.760000E+03	2.175841E-16	3.985389E-17
5.770000E+03	2.180909E-16	4.031472E-17
5.780000E+03	2.186084E-16	4.077476E-17
5.790000E+03	2.191374E-16	4.123361E-17
5.800000E+03	2.196724E-16	4.168967E-17
5.810000E+03	2.202163E-16	4.214303E-17
5.820000E+03	2.207637E-16	4.259213E-17
5.830000E+03	2.213175E-16	4.303716E-17
5.840000E+03	2.218721E-16	4.347663E-17
5.850000E+03	2.224262E-16	4.390992E-17
5.860000E+03	2.229807E-16	4.433691E-17
5.870000E+03	2.235344E-16	4.475705E-17
5.880000E+03	2.240841E-16	4.516942E-17
5.890000E+03	2.246285E-16	4.557353E-17
5.900000E+03	2.251690E-16	4.596942E-17
5.910000E+03	2.257001E-16	4.635579E-17
5.920000E+03	2.262231E-16	4.673273E-17
5.930000E+03	2.267373E-16	4.709992E-17
5.940000E+03	2.272421E-16	4.745709E-17
5.950000E+03	2.277369E-16	4.780398E-17
5.960000E+03	2.282189E-16	4.813994E-17
5.970000E+03	2.286900E-16	4.846527E-17
5.980000E+03	2.291456E-16	4.877888E-17
5.990000E+03	2.295898E-16	4.908164E-17
6.000000E+03	2.300228E-16	4.937351E-17
6.010000E+03	2.304401E-16	4.965351E-17
6.020000E+03	2.308440E-16	4.992213E-17
6.030000E+03	2.312348E-16	5.017943E-17
6.040000E+03	2.316128E-16	5.042551E-17
6.050000E+03	2.319762E-16	5.065998E-17
6.060000E+03	2.323277E-16	5.088348E-17
6.070000E+03	2.326679E-16	5.109620E-17
6.080000E+03	2.329949E-16	5.129783E-17
6.090000E+03	2.333096E-16	5.148858E-17
6.100000E+03	2.336124E-16	5.166871E-17
6.110000E+03	2.339063E-16	5.183897E-17
6.120000E+03	2.341898E-16	5.199913E-17
6.130000E+03	2.344633E-16	5.214947E-17
6.140000E+03	2.347254E-16	5.228978E-17
6.150000E+03	2.349811E-16	5.242138E-17
6.160000E+03	2.352287E-16	5.254408E-17
6.170000E+03	2.354664E-16	5.265765E-17
6.180000E+03	2.356994E-16	5.276347E-17
6.190000E+03	2.359232E-16	5.286079E-17
6.200000E+03	2.361405E-16	5.295046E-17
6.210000E+03	2.363493E-16	5.303225E-17
6.220000E+03	2.365519E-16	5.310699E-17
6.230000E+03	2.367483E-16	5.317499E-17
6.240000E+03	2.369386E-16	5.323654E-17
6.250000E+03	2.371201E-16	5.329139E-17
6.260000E+03	2.372948E-16	5.334035E-17
6.270000E+03	2.374625E-16	5.338369E-17
6.280000E+03	2.376226E-16	5.342168E-17
6.290000E+03	2.377721E-16	5.345404E-17
6.300000E+03	2.379127E-16	5.348155E-17
6.310000E+03	2.380412E-16	5.350391E-17
6.320000E+03	2.381614E-16	5.352241E-17
6.330000E+03	2.382677E-16	5.353623E-17
6.340000E+03	2.383613E-16	5.354609E-17
6.350000E+03	2.384411E-16	5.355221E-17
6.360000E+03	2.385059E-16	5.355478E-17
6.370000E+03	2.385546E-16	5.355399E-17
6.380000E+03	2.385857E-16	5.355002E-17
6.390000E+03	2.385981E-16	5.354303E-17
6.400000E+03	2.385903E-16	5.353318E-17
6.410000E+03	2.385636E-16	5.352116E-17
6.420000E+03	2.385116E-16	5.350601E-17
6.430000E+03	2.384381E-16	5.348895E-17
6.440000E+03	2.383416E-16	5.347007E-17
6.450000E+03	2.382162E-16	5.344839E-17
6.460000E+03	2.380681E-16	5.342560E-17
6.470000E+03	2.378887E-16	5.340015E-17
6.480000E+03	2.376845E-16	5.337371E-17
6.490000E+03	2.374497E-16	5.334522E-17
6.500000E+03	2.371859E-16	5.331524E-17
6.510000E+03	2.368925E-16	5.328377E-17
6.520000E+03	2.365664E-16	5.325023E-17
6.530000E+03	2.362121E-16	5.321571E-17
6.540000E+03	2.358270E-16	5.317961E-17
6.550000E+03	2.354108E-16	5.314187E-17
6.560000E+03	2.349661E-16	5.310298E-17
6.570000E+03	2.344881E-16	5.306176E-17
6.580000E+03	2.339846E-16	5.301980E-17
6.590000E+03	2.334510E-16	5.297591E-17
6.600000E+03	2.328880E-16	5.293000E-17
6.610000E+03	2.323014E-16	5.288313E-17
6.620000E+03	2.316871E-16	5.283410E-17
6.630000E+03	2.310487E-16	5.278340E-17
6.640000E+03	2.303897E-16	5.273156E-17
6.650000E+03	2.297068E-16	5.267741E-17
6.660000E+03	2.290061E-16	5.262205E-17
6.670000E+03	2.282869E-16	5.256492E-17
6.680000E+03	2.275532E-16	5.250660E-17
6.690000E+03	2.268043E-16	5.244656E-17
6.700000E+03	2.260446E-16	5.238541E-17
6.710000E+03	2.252759E-16	5.232325E-17
6.720000E+03	2.244977E-16	5.225960E-17
6.730000E+03	2.237168E-16	5.219572E-17
6.740000E+03	2.229306E-16	5.213062E-17
6.750000E+03	2.221457E-16	5.206560E-17
6.760000E+03	2.213619E-16	5.200027E-17
6.770000E+03	2.205812E-16	5.193482E-17
6.780000E+03	2.198079E-16	5.187006E-17
6.790000E+03	2.190417E-16	5.180562E-17
6.800000E+03	2.182870E-16	5.174233E-17
6.810000E+03	2.175455E-16	5.168044E-17
6.820000E+03	2.168168E-16	5.161961E-17
6.830000E+03	2.161074E-16	5.156127E-17
6.840000E+03	2.154141E-16	5.150452E-17
6.850000E+03	2.147411E-16	5.145019E-17
6.860000E+03	2.140922E-16	5.139914E-17
6.870000E+03	2.134641E-16	5.135045E-17
6.880000E+03	2.128653E-16	5.130612E-17
6.890000E+03	2.122898E-16	5.126464E-17
6.900000E+03	2.117438E-16	5.122741E-17
6.910000E+03	2.112281E-16	5.119466E-17
6.920000E+03	2.107414E-16	5.116600E-17
6.930000E+03	2.102869E-16	5.114222E-17
6.940000E+03	2.098631E-16	5.112292E-17
6.950000E+03	2.094754E-16	5.110945E-17
6.960000E+03	2.091196E-16	5.110078E-17
6.970000E+03	2.088011E-16	5.109824E-17
6.980000E+03	2.085178E-16	5.110136E-17
6.990000E+03	2.082678E-16	5.110967E-17
7.000000E+03	2.080562E-16	5.112445E-17
7.010000E+03	2.078832E-16	5.114579E-17
7.020000E+03	2.077465E-16	5.117317E-17
7.030000E+03	2.076464E-16	5.120665E-17
7.040000E+03	2.075827E-16	5.124628E-17
7.050000E+03	2.075606E-16	5.129332E-17
7.060000E+03	2.075726E-16	5.134597E-17
7.070000E+03	2.076261E-16	5.140609E-17
7.080000E+03	2.077161E-16	5.147247E-17
7.090000E+03	2.078450E-16	5.154574E-17
7.100000E+03	2.080128E-16	5.162591E-17
7.110000E+03	2.082194E-16	5.171299E-17
7.120000E+03	2.084647E-16	5.180697E-17
7.130000E+03	2.087461E-16	5.190723E-17
7.140000E+03	2.090686E-16	5.201503E-17
7.150000E+03	2.094297E-16	5.212974E-17
7.160000E+03	2.098294E-16	5.225136E-17
7.170000E+03	2.102677E-16	5.237991E-17
7.180000E+03	2.107473E-16	5.251603E-17
7.190000E+03	2.112629E-16	5.265846E-17
7.200000E+03	2.118201E-16	5.280850E-17
7.210000E+03	2.124189E-16	5.296619E-17
7.220000E+03	2.130570E-16	5.313091E-17
7.230000E+03	2.137347E-16	5.330270E-17
7.240000E+03	2.144549E-16	5.348227E-17
7.250000E+03	2.152153E-16	5.366901E-17
7.260000E+03	2.160163E-16	5.386297E-17
7.270000E+03	2.168639E-16	5.406558E-17
7.280000E+03	2.177532E-16	5.427557E-17
7.290000E+03	2.186847E-16	5.449302E-17
7.300000E+03	2.196618E-16	5.471870E-17
7.310000E+03	2.206853E-16	5.495271E-17
7.320000E+03	2.217530E-16	5.519445E-17
7.330000E+03	2.228686E-16	5.544474E-17
7.340000E+03	2.240329E-16	5.570368E-17
7.350000E+03	2.252439E-16	5.597067E-17
7.360000E+03	2.265082E-16	5.624725E-17
7.370000E+03	2.278210E-16	5.653210E-17
7.380000E+03	2.291831E-16	5.682532E-17
7.390000E+03	2.306015E-16	5.712845E-17
7.400000E+03	2.320711E-16	5.744014E-17
7.410000E+03	2.335958E-16	5.776120E-17
7.420000E+03	2.351767E-16	5.809172E-17
7.430000E+03	2.368114E-16	5.843098E-17
7.440000E+03	2.385041E-16	5.877980E-17
7.450000E+03	2.402554E-16	5.913820E-17
7.460000E+03	2.420663E-16	5.950619E-17
7.470000E+03	2.439342E-16	5.988297E-17
7.480000E+03	2.458597E-16	6.026848E-17
7.490000E+03	2.478497E-16	6.066422E-17
7.500000E+03	2.498950E-16	6.106770E-17
7.510000E+03	2.520056E-16	6.148118E-17
7.520000E+03	2.541718E-16	6.190205E-17
7.530000E+03	2.564001E-16	6.233169E-17
7.540000E+03	2.586904E-16	6.276987E-17
7.550000E+03	2.610356E-16	6.321460E-17
7.560000E+03	2.634418E-16	6.366718E-17
7.570000E+03	2.659083E-16	6.412723E-17
7.580000E+03	2.684270E-16	6.459257E-17
7.590000E+03	2.710038E-16	6.506440E-17
7.600000E+03	2.736297E-16	6.554044E-17
7.610000E+03	2.763104E-16	6.602179E-17
7.620000E+03	2.790399E-16	6.650692E-17
7.630000E+03	2.818120E-16	6.699422E-17
7.640000E+03	2.846316E-16	6.748468E-17
7.650000E+03	2.874878E-16	6.797568E-17
7.660000E+03	2.903811E-16	6.846726E-17
7.670000E+03	2.933076E-16	6.895849E-17
7.680000E+03	2.962593E-16	6.944749E-17
7.690000E+03	2.992397E-16	6.993513E-17
7.700000E+03	3.022317E-16	7.041757E-17
7.710000E+03	3.052425E-16	7.089660E-17
7.720000E+03	3.082541E-16	7.136828E-17
7.730000E+03	3.112689E-16	7.183346E-17
7.740000E+03	3.142808E-16	7.229107E-17
7.750000E+03	3.172792E-16	7.273906E-17
7.760000E+03	3.202573E-16	7.317639E-17
