#wls	flux	fluxerr
1.600000E+03	9.055737E-18	4.586354E-18
1.640000E+03	9.183024E-18	4.639173E-18
1.680000E+03	9.313791E-18	4.692991E-18
1.720000E+03	9.450259E-18	4.748902E-18
1.760000E+03	9.589870E-18	4.805595E-18
1.800000E+03	9.734827E-18	4.864154E-18
1.840000E+03	9.883764E-18	4.923875E-18
1.880000E+03	1.003768E-17	4.985237E-18
1.920000E+03	1.019756E-17	5.048704E-18
1.960000E+03	1.036205E-17	5.113585E-18
2.000000E+03	1.053214E-17	5.180342E-18
2.040000E+03	1.070878E-17	5.249429E-18
2.080000E+03	1.089066E-17	5.320165E-18
2.120000E+03	1.107991E-17	5.393557E-18
2.160000E+03	1.127634E-17	5.469479E-18
2.200000E+03	1.148094E-17	5.548356E-18
2.240000E+03	1.169245E-17	5.629522E-18
2.280000E+03	1.191300E-17	5.713936E-18
2.320000E+03	1.214360E-17	5.801994E-18
2.360000E+03	1.238308E-17	5.893038E-18
2.400000E+03	1.263362E-17	5.987987E-18
2.440000E+03	1.289523E-17	6.086704E-18
2.480000E+03	1.316906E-17	6.189572E-18
2.520000E+03	1.345737E-17	6.297466E-18
2.560000E+03	1.375925E-17	6.409747E-18
2.600000E+03	1.407709E-17	6.527287E-18
2.640000E+03	1.441123E-17	6.649969E-18
2.680000E+03	1.476524E-17	6.779141E-18
2.720000E+03	1.513858E-17	6.914223E-18
2.760000E+03	1.553401E-17	7.056100E-18
2.800000E+03	1.595333E-17	7.205195E-18
2.840000E+03	1.639952E-17	7.362419E-18
2.880000E+03	1.687369E-17	7.527791E-18
2.920000E+03	1.738016E-17	7.702743E-18
2.960000E+03	1.792043E-17	7.887386E-18
3.000000E+03	1.849823E-17	8.082790E-18
3.010000E+03	1.864908E-17	8.133488E-18
3.020000E+03	1.880255E-17	8.184932E-18
3.030000E+03	1.895869E-17	8.237128E-18
3.040000E+03	1.911752E-17	8.290081E-18
3.050000E+03	1.927909E-17	8.343796E-18
3.060000E+03	1.944342E-17	8.398279E-18
3.070000E+03	1.961056E-17	8.453537E-18
3.080000E+03	1.978156E-17	8.510010E-18
3.090000E+03	1.995443E-17	8.566837E-18
3.100000E+03	2.013125E-17	8.624892E-18
3.110000E+03	2.031104E-17	8.683749E-18
3.120000E+03	2.049485E-17	8.743847E-18
3.130000E+03	2.068073E-17	8.804335E-18
3.140000E+03	2.087072E-17	8.866081E-18
3.150000E+03	2.106488E-17	8.929090E-18
3.160000E+03	2.126124E-17	8.992521E-18
3.170000E+03	2.146187E-17	9.057236E-18
3.180000E+03	2.166682E-17	9.123244E-18
3.190000E+03	2.187515E-17	9.190131E-18
3.200000E+03	2.208689E-17	9.257910E-18
3.210000E+03	2.230414E-17	9.327437E-18
3.220000E+03	2.252391E-17	9.397459E-18
3.230000E+03	2.274829E-17	9.468831E-18
3.240000E+03	2.297734E-17	9.541566E-18
3.250000E+03	2.321112E-17	9.615677E-18
3.260000E+03	2.344869E-17	9.690760E-18
3.270000E+03	2.369010E-17	9.766831E-18
3.280000E+03	2.393746E-17	9.844740E-18
3.290000E+03	2.418880E-17	9.923668E-18
3.300000E+03	2.444521E-17	1.000405E-17
3.310000E+03	2.470675E-17	1.008590E-17
3.320000E+03	2.497351E-17	1.016923E-17
3.330000E+03	2.524556E-17	1.025407E-17
3.340000E+03	2.552297E-17	1.034044E-17
3.350000E+03	2.580480E-17	1.042793E-17
3.360000E+03	2.609317E-17	1.051739E-17
3.370000E+03	2.638612E-17	1.060803E-17
3.380000E+03	2.668577E-17	1.070068E-17
3.390000E+03	2.699119E-17	1.079496E-17
3.400000E+03	2.730142E-17	1.089047E-17
3.410000E+03	2.761862E-17	1.098806E-17
3.420000E+03	2.794183E-17	1.108735E-17
3.430000E+03	2.827218E-17	1.118876E-17
3.440000E+03	2.860769E-17	1.129151E-17
3.450000E+03	2.895052E-17	1.139643E-17
3.460000E+03	2.929972E-17	1.150314E-17
3.470000E+03	2.965643E-17	1.161208E-17
3.480000E+03	3.001970E-17	1.172286E-17
3.490000E+03	3.038962E-17	1.183552E-17
3.500000E+03	3.076628E-17	1.195007E-17
3.510000E+03	3.115188E-17	1.206737E-17
3.520000E+03	3.154337E-17	1.218622E-17
3.530000E+03	3.194293E-17	1.230746E-17
3.540000E+03	3.235068E-17	1.243112E-17
3.550000E+03	3.276565E-17	1.255682E-17
3.560000E+03	3.318900E-17	1.268501E-17
3.570000E+03	3.361977E-17	1.281531E-17
3.580000E+03	3.405911E-17	1.294814E-17
3.590000E+03	3.450713E-17	1.308355E-17
3.600000E+03	3.496286E-17	1.322116E-17
3.610000E+03	3.542745E-17	1.336140E-17
3.620000E+03	3.590103E-17	1.350431E-17
3.630000E+03	3.638258E-17	1.364952E-17
3.640000E+03	3.687440E-17	1.379786E-17
3.650000E+03	3.737440E-17	1.394856E-17
3.660000E+03	3.788375E-17	1.410205E-17
3.670000E+03	3.840257E-17	1.425836E-17
3.680000E+03	3.892984E-17	1.441713E-17
3.690000E+03	3.946785E-17	1.457919E-17
3.700000E+03	4.001450E-17	1.474376E-17
3.710000E+03	4.057097E-17	1.491127E-17
3.720000E+03	4.113848E-17	1.508218E-17
3.730000E+03	4.171487E-17	1.525569E-17
3.740000E+03	4.230136E-17	1.543223E-17
3.750000E+03	4.289802E-17	1.561185E-17
3.760000E+03	4.350381E-17	1.579414E-17
3.770000E+03	4.412107E-17	1.597997E-17
3.780000E+03	4.474875E-17	1.616894E-17
3.790000E+03	4.538578E-17	1.636068E-17
3.800000E+03	4.603453E-17	1.655603E-17
3.810000E+03	4.669277E-17	1.675419E-17
3.820000E+03	4.736288E-17	1.695602E-17
3.830000E+03	4.804262E-17	1.716070E-17
3.840000E+03	4.873320E-17	1.736867E-17
3.850000E+03	4.943469E-17	1.757995E-17
3.860000E+03	5.014715E-17	1.779456E-17
3.870000E+03	5.086946E-17	1.801210E-17
3.880000E+03	5.160404E-17	1.823343E-17
3.890000E+03	5.234857E-17	1.845771E-17
3.900000E+03	5.310428E-17	1.868540E-17
3.910000E+03	5.387124E-17	1.891649E-17
3.920000E+03	5.464826E-17	1.915057E-17
3.930000E+03	5.543781E-17	1.938852E-17
3.940000E+03	5.623629E-17	1.962905E-17
3.950000E+03	5.704738E-17	1.987345E-17
3.960000E+03	5.786866E-17	2.012088E-17
3.970000E+03	5.870140E-17	2.037176E-17
3.980000E+03	5.954436E-17	2.062567E-17
3.990000E+03	6.039757E-17	2.088260E-17
4.000000E+03	6.126227E-17	2.114299E-17
4.010000E+03	6.213849E-17	2.140683E-17
4.020000E+03	6.302496E-17	2.167368E-17
4.030000E+03	6.392167E-17	2.194352E-17
4.040000E+03	6.482861E-17	2.221636E-17
4.050000E+03	6.574575E-17	2.249217E-17
4.060000E+03	6.667436E-17	2.277137E-17
4.070000E+03	6.761182E-17	2.305306E-17
4.080000E+03	6.856067E-17	2.333811E-17
4.090000E+03	6.951827E-17	2.362560E-17
4.100000E+03	7.048585E-17	2.391593E-17
4.110000E+03	7.146335E-17	2.420909E-17
4.120000E+03	7.245068E-17	2.450503E-17
4.130000E+03	7.344642E-17	2.480326E-17
4.140000E+03	7.445047E-17	2.510373E-17
4.150000E+03	7.546536E-17	2.540729E-17
4.160000E+03	7.648697E-17	2.571253E-17
4.170000E+03	7.751781E-17	2.602029E-17
4.180000E+03	7.855639E-17	2.633005E-17
4.190000E+03	7.960116E-17	2.664129E-17
4.200000E+03	8.065464E-17	2.695483E-17
4.210000E+03	8.171526E-17	2.727014E-17
4.220000E+03	8.278142E-17	2.758666E-17
4.230000E+03	8.385425E-17	2.790475E-17
4.240000E+03	8.493348E-17	2.822431E-17
4.250000E+03	8.601744E-17	2.854477E-17
4.260000E+03	8.710581E-17	2.886599E-17
4.270000E+03	8.819968E-17	2.918833E-17
4.280000E+03	8.929589E-17	2.951072E-17
4.290000E+03	9.039689E-17	2.983394E-17
4.300000E+03	9.149947E-17	3.015691E-17
4.310000E+03	9.260465E-17	3.047994E-17
4.320000E+03	9.371199E-17	3.080287E-17
4.330000E+03	9.481964E-17	3.112505E-17
4.340000E+03	9.592712E-17	3.144630E-17
4.350000E+03	9.703396E-17	3.176643E-17
4.360000E+03	9.814110E-17	3.208573E-17
4.370000E+03	9.924514E-17	3.240304E-17
4.380000E+03	1.003470E-16	3.271863E-17
4.390000E+03	1.014447E-16	3.303181E-17
4.400000E+03	1.025391E-16	3.334284E-17
4.410000E+03	1.036282E-16	3.365101E-17
4.420000E+03	1.047115E-16	3.395609E-17
4.430000E+03	1.057898E-16	3.425834E-17
4.440000E+03	1.068596E-16	3.455655E-17
4.450000E+03	1.079204E-16	3.485048E-17
4.460000E+03	1.089729E-16	3.514038E-17
4.470000E+03	1.100167E-16	3.542601E-17
4.480000E+03	1.110482E-16	3.570615E-17
4.490000E+03	1.120697E-16	3.598153E-17
4.500000E+03	1.130778E-16	3.625095E-17
4.510000E+03	1.140734E-16	3.651464E-17
4.520000E+03	1.150545E-16	3.677189E-17
4.530000E+03	1.160220E-16	3.702296E-17
4.540000E+03	1.169739E-16	3.726713E-17
4.550000E+03	1.179098E-16	3.750418E-17
4.560000E+03	1.188277E-16	3.773342E-17
4.570000E+03	1.197286E-16	3.795513E-17
4.580000E+03	1.206123E-16	3.816910E-17
4.590000E+03	1.214767E-16	3.837466E-17
4.600000E+03	1.223216E-16	3.857165E-17
4.610000E+03	1.231467E-16	3.875988E-17
4.620000E+03	1.239501E-16	3.893872E-17
4.630000E+03	1.247332E-16	3.910851E-17
4.640000E+03	1.254957E-16	3.926911E-17
4.650000E+03	1.262360E-16	3.941992E-17
4.660000E+03	1.269540E-16	3.956084E-17
4.670000E+03	1.276495E-16	3.969176E-17
4.680000E+03	1.283211E-16	3.981214E-17
4.690000E+03	1.289717E-16	3.992285E-17
4.700000E+03	1.295968E-16	4.002242E-17
4.710000E+03	1.301996E-16	4.011175E-17
4.720000E+03	1.307801E-16	4.019081E-17
4.730000E+03	1.313355E-16	4.025865E-17
4.740000E+03	1.318674E-16	4.031573E-17
4.750000E+03	1.323776E-16	4.036254E-17
4.760000E+03	1.328619E-16	4.039769E-17
4.770000E+03	1.333249E-16	4.042263E-17
4.780000E+03	1.337625E-16	4.043600E-17
4.790000E+03	1.341796E-16	4.043924E-17
4.800000E+03	1.345719E-16	4.043106E-17
4.810000E+03	1.349430E-16	4.041244E-17
4.820000E+03	1.352901E-16	4.038256E-17
4.830000E+03	1.356168E-16	4.034243E-17
4.840000E+03	1.359204E-16	4.029125E-17
4.850000E+03	1.362043E-16	4.023003E-17
4.860000E+03	1.364662E-16	4.015801E-17
4.870000E+03	1.367080E-16	4.007575E-17
4.880000E+03	1.369285E-16	3.998296E-17
4.890000E+03	1.371314E-16	3.988065E-17
4.900000E+03	1.373142E-16	3.976810E-17
4.910000E+03	1.374773E-16	3.964548E-17
4.920000E+03	1.376227E-16	3.951336E-17
4.930000E+03	1.377509E-16	3.937193E-17
4.940000E+03	1.378611E-16	3.922091E-17
4.950000E+03	1.379550E-16	3.906092E-17
4.960000E+03	1.380332E-16	3.889213E-17
4.970000E+03	1.380933E-16	3.871391E-17
4.980000E+03	1.381402E-16	3.852768E-17
4.990000E+03	1.381713E-16	3.833283E-17
5.000000E+03	1.381886E-16	3.812996E-17
5.010000E+03	1.381911E-16	3.791889E-17
5.020000E+03	1.381807E-16	3.770024E-17
5.030000E+03	1.381579E-16	3.747422E-17
5.040000E+03	1.381215E-16	3.724069E-17
5.050000E+03	1.380735E-16	3.700028E-17
5.060000E+03	1.380143E-16	3.675323E-17
5.070000E+03	1.379442E-16	3.649981E-17
5.080000E+03	1.378622E-16	3.623991E-17
5.090000E+03	1.377715E-16	3.597457E-17
5.100000E+03	1.376711E-16	3.570370E-17
5.110000E+03	1.375600E-16	3.542727E-17
5.120000E+03	1.374412E-16	3.514631E-17
5.130000E+03	1.373138E-16	3.486080E-17
5.140000E+03	1.371794E-16	3.457146E-17
5.150000E+03	1.370370E-16	3.427830E-17
5.160000E+03	1.368870E-16	3.398172E-17
5.170000E+03	1.367310E-16	3.368248E-17
5.180000E+03	1.365694E-16	3.338099E-17
5.190000E+03	1.364010E-16	3.307739E-17
5.200000E+03	1.362277E-16	3.277248E-17
5.210000E+03	1.360496E-16	3.246676E-17
5.220000E+03	1.358672E-16	3.216074E-17
5.230000E+03	1.356807E-16	3.185499E-17
5.240000E+03	1.354918E-16	3.155039E-17
5.250000E+03	1.352982E-16	3.124690E-17
5.260000E+03	1.351041E-16	3.094609E-17
5.270000E+03	1.349058E-16	3.064768E-17
5.280000E+03	1.347065E-16	3.035297E-17
5.290000E+03	1.345064E-16	3.006265E-17
5.300000E+03	1.343057E-16	2.977744E-17
5.310000E+03	1.341050E-16	2.949811E-17
5.320000E+03	1.339044E-16	2.922541E-17
5.330000E+03	1.337043E-16	2.896013E-17
5.340000E+03	1.335051E-16	2.870309E-17
5.350000E+03	1.333083E-16	2.845540E-17
5.360000E+03	1.331131E-16	2.821759E-17
5.370000E+03	1.329197E-16	2.799051E-17
5.380000E+03	1.327311E-16	2.777555E-17
5.390000E+03	1.325450E-16	2.757298E-17
5.400000E+03	1.323630E-16	2.738389E-17
5.410000E+03	1.321854E-16	2.720907E-17
5.420000E+03	1.320139E-16	2.704956E-17
5.430000E+03	1.318460E-16	2.690554E-17
5.440000E+03	1.316848E-16	2.677823E-17
5.450000E+03	1.315291E-16	2.666796E-17
5.460000E+03	1.313805E-16	2.657556E-17
5.470000E+03	1.312393E-16	2.650149E-17
5.480000E+03	1.311044E-16	2.644587E-17
5.490000E+03	1.309785E-16	2.640950E-17
5.500000E+03	1.308592E-16	2.639197E-17
5.510000E+03	1.307478E-16	2.639329E-17
5.520000E+03	1.306459E-16	2.641335E-17
5.530000E+03	1.305520E-16	2.645143E-17
5.540000E+03	1.304661E-16	2.650696E-17
5.550000E+03	1.303883E-16	2.657933E-17
5.560000E+03	1.303198E-16	2.666813E-17
5.570000E+03	1.302606E-16	2.677263E-17
5.580000E+03	1.302106E-16	2.689207E-17
5.590000E+03	1.301683E-16	2.702537E-17
5.600000E+03	1.301349E-16	2.717200E-17
5.610000E+03	1.301117E-16	2.733140E-17
5.620000E+03	1.300958E-16	2.750218E-17
5.630000E+03	1.300897E-16	2.768409E-17
5.640000E+03	1.300905E-16	2.787572E-17
5.650000E+03	1.301007E-16	2.807685E-17
5.660000E+03	1.301201E-16	2.828667E-17
5.670000E+03	1.301470E-16	2.850413E-17
5.680000E+03	1.301813E-16	2.872849E-17
5.690000E+03	1.302240E-16	2.895929E-17
5.700000E+03	1.302748E-16	2.919585E-17
5.710000E+03	1.303321E-16	2.943719E-17
5.720000E+03	1.303969E-16	2.968296E-17
5.730000E+03	1.304703E-16	2.993284E-17
5.740000E+03	1.305492E-16	3.018564E-17
5.750000E+03	1.306346E-16	3.044110E-17
5.760000E+03	1.307263E-16	3.069868E-17
5.770000E+03	1.308239E-16	3.095786E-17
5.780000E+03	1.309283E-16	3.121847E-17
5.790000E+03	1.310366E-16	3.147942E-17
5.800000E+03	1.311511E-16	3.174091E-17
5.810000E+03	1.312701E-16	3.200221E-17
5.820000E+03	1.313945E-16	3.226324E-17
5.830000E+03	1.315228E-16	3.252333E-17
5.840000E+03	1.316558E-16	3.278245E-17
5.850000E+03	1.317920E-16	3.303995E-17
5.860000E+03	1.319323E-16	3.329585E-17
5.870000E+03	1.320750E-16	3.354954E-17
5.880000E+03	1.322212E-16	3.380108E-17
5.890000E+03	1.323693E-16	3.404989E-17
5.900000E+03	1.325215E-16	3.429643E-17
5.910000E+03	1.326750E-16	3.453980E-17
5.920000E+03	1.328308E-16	3.478013E-17
5.930000E+03	1.329872E-16	3.501691E-17
5.940000E+03	1.331468E-16	3.525068E-17
5.950000E+03	1.333065E-16	3.548057E-17
5.960000E+03	1.334675E-16	3.570681E-17
5.970000E+03	1.336295E-16	3.592929E-17
5.980000E+03	1.337938E-16	3.614826E-17
5.990000E+03	1.339573E-16	3.636289E-17
6.000000E+03	1.341213E-16	3.657347E-17
6.010000E+03	1.342842E-16	3.677956E-17
6.020000E+03	1.344486E-16	3.698185E-17
6.030000E+03	1.346130E-16	3.717993E-17
6.040000E+03	1.347771E-16	3.737376E-17
6.050000E+03	1.349410E-16	3.756331E-17
6.060000E+03	1.351044E-16	3.774858E-17
6.070000E+03	1.352672E-16	3.792955E-17
6.080000E+03	1.354294E-16	3.810624E-17
6.090000E+03	1.355894E-16	3.827825E-17
6.100000E+03	1.357499E-16	3.844640E-17
6.110000E+03	1.359094E-16	3.861033E-17
6.120000E+03	1.360679E-16	3.877006E-17
6.130000E+03	1.362237E-16	3.892523E-17
6.140000E+03	1.363783E-16	3.907629E-17
6.150000E+03	1.365330E-16	3.922371E-17
6.160000E+03	1.366847E-16	3.936672E-17
6.170000E+03	1.368335E-16	3.950536E-17
6.180000E+03	1.369821E-16	3.964055E-17
6.190000E+03	1.371275E-16	3.977151E-17
6.200000E+03	1.372695E-16	3.989831E-17
6.210000E+03	1.374096E-16	4.002143E-17
6.220000E+03	1.375476E-16	4.014097E-17
6.230000E+03	1.376804E-16	4.025613E-17
6.240000E+03	1.378109E-16	4.036785E-17
6.250000E+03	1.379390E-16	4.047621E-17
6.260000E+03	1.380614E-16	4.058042E-17
6.270000E+03	1.381796E-16	4.068099E-17
6.280000E+03	1.382934E-16	4.077801E-17
6.290000E+03	1.384027E-16	4.087154E-17
6.300000E+03	1.385072E-16	4.096167E-17
6.310000E+03	1.386054E-16	4.104803E-17
6.320000E+03	1.386984E-16	4.113114E-17
6.330000E+03	1.387848E-16	4.121064E-17
6.340000E+03	1.388657E-16	4.128703E-17
6.350000E+03	1.389395E-16	4.135996E-17
6.360000E+03	1.390061E-16	4.142950E-17
6.370000E+03	1.390652E-16	4.149571E-17
6.380000E+03	1.391168E-16	4.155866E-17
6.390000E+03	1.391605E-16	4.161843E-17
6.400000E+03	1.391964E-16	4.167509E-17
6.410000E+03	1.392227E-16	4.172825E-17
6.420000E+03	1.392423E-16	4.177888E-17
6.430000E+03	1.392521E-16	4.182614E-17
6.440000E+03	1.392520E-16	4.187011E-17
6.450000E+03	1.392433E-16	4.191129E-17
6.460000E+03	1.392246E-16	4.194930E-17
6.470000E+03	1.391973E-16	4.198466E-17
6.480000E+03	1.391598E-16	4.201698E-17
6.490000E+03	1.391136E-16	4.204677E-17
6.500000E+03	1.390572E-16	4.207365E-17
6.510000E+03	1.389907E-16	4.209768E-17
6.520000E+03	1.389142E-16	4.211892E-17
6.530000E+03	1.388291E-16	4.213791E-17
6.540000E+03	1.387343E-16	4.215424E-17
6.550000E+03	1.386297E-16	4.216800E-17
6.560000E+03	1.385170E-16	4.217970E-17
6.570000E+03	1.383951E-16	4.218897E-17
6.580000E+03	1.382640E-16	4.219587E-17
6.590000E+03	1.381255E-16	4.220095E-17
6.600000E+03	1.379801E-16	4.220429E-17
6.610000E+03	1.378263E-16	4.220550E-17
6.620000E+03	1.376646E-16	4.220467E-17
6.630000E+03	1.374984E-16	4.220281E-17
6.640000E+03	1.373251E-16	4.219908E-17
6.650000E+03	1.371465E-16	4.219405E-17
6.660000E+03	1.369631E-16	4.218780E-17
6.670000E+03	1.367754E-16	4.218044E-17
6.680000E+03	1.365823E-16	4.217160E-17
6.690000E+03	1.363873E-16	4.216232E-17
6.700000E+03	1.361910E-16	4.215271E-17
6.710000E+03	1.359908E-16	4.214194E-17
6.720000E+03	1.357904E-16	4.213106E-17
6.730000E+03	1.355887E-16	4.211972E-17
6.740000E+03	1.353878E-16	4.210851E-17
6.750000E+03	1.351868E-16	4.209707E-17
6.760000E+03	1.349878E-16	4.208600E-17
6.770000E+03	1.347913E-16	4.207544E-17
6.780000E+03	1.345980E-16	4.206549E-17
6.790000E+03	1.344083E-16	4.205629E-17
6.800000E+03	1.342229E-16	4.204797E-17
6.810000E+03	1.340423E-16	4.204064E-17
6.820000E+03	1.338672E-16	4.203445E-17
6.830000E+03	1.336979E-16	4.202951E-17
6.840000E+03	1.335368E-16	4.202645E-17
6.850000E+03	1.333842E-16	4.202539E-17
6.860000E+03	1.332393E-16	4.202597E-17
6.870000E+03	1.331039E-16	4.202880E-17
6.880000E+03	1.329788E-16	4.203401E-17
6.890000E+03	1.328643E-16	4.204172E-17
6.900000E+03	1.327610E-16	4.205206E-17
6.910000E+03	1.326692E-16	4.206514E-17
6.920000E+03	1.325896E-16	4.208107E-17
6.930000E+03	1.325225E-16	4.209998E-17
6.940000E+03	1.324699E-16	4.212248E-17
6.950000E+03	1.324322E-16	4.214867E-17
6.960000E+03	1.324067E-16	4.217765E-17
6.970000E+03	1.323985E-16	4.221104E-17
6.980000E+03	1.324065E-16	4.224845E-17
6.990000E+03	1.324293E-16	4.228946E-17
7.000000E+03	1.324689E-16	4.233467E-17
7.010000E+03	1.325256E-16	4.238417E-17
7.020000E+03	1.326014E-16	4.243858E-17
7.030000E+03	1.326934E-16	4.249693E-17
7.040000E+03	1.328050E-16	4.256037E-17
7.050000E+03	1.329366E-16	4.262897E-17
7.060000E+03	1.330853E-16	4.270175E-17
7.070000E+03	1.332561E-16	4.278038E-17
7.080000E+03	1.334444E-16	4.286335E-17
7.090000E+03	1.336554E-16	4.295231E-17
7.100000E+03	1.338877E-16	4.304681E-17
7.110000E+03	1.341399E-16	4.314638E-17
7.120000E+03	1.344139E-16	4.325161E-17
7.130000E+03	1.347100E-16	4.336259E-17
7.140000E+03	1.350283E-16	4.347936E-17
7.150000E+03	1.353707E-16	4.360253E-17
7.160000E+03	1.357342E-16	4.373108E-17
7.170000E+03	1.361224E-16	4.386615E-17
7.180000E+03	1.365337E-16	4.400725E-17
7.190000E+03	1.369701E-16	4.415500E-17
7.200000E+03	1.374300E-16	4.430889E-17
7.210000E+03	1.379156E-16	4.446953E-17
7.220000E+03	1.384252E-16	4.463641E-17
7.230000E+03	1.389590E-16	4.480958E-17
7.240000E+03	1.395208E-16	4.499023E-17
7.250000E+03	1.401073E-16	4.517726E-17
7.260000E+03	1.407205E-16	4.537130E-17
7.270000E+03	1.413588E-16	4.557179E-17
7.280000E+03	1.420259E-16	4.577995E-17
7.290000E+03	1.427186E-16	4.599465E-17
7.300000E+03	1.434388E-16	4.621651E-17
7.310000E+03	1.441886E-16	4.644617E-17
7.320000E+03	1.449645E-16	4.668245E-17
7.330000E+03	1.457685E-16	4.692597E-17
7.340000E+03	1.466008E-16	4.717677E-17
7.350000E+03	1.474615E-16	4.743485E-17
7.360000E+03	1.483528E-16	4.770086E-17
7.370000E+03	1.492710E-16	4.797354E-17
7.380000E+03	1.502180E-16	4.825352E-17
7.390000E+03	1.511961E-16	4.854144E-17
7.400000E+03	1.522012E-16	4.883600E-17
7.410000E+03	1.532376E-16	4.913847E-17
7.420000E+03	1.543011E-16	4.944751E-17
7.430000E+03	1.553958E-16	4.976439E-17
7.440000E+03	1.565177E-16	5.008776E-17
7.450000E+03	1.576709E-16	5.041886E-17
7.460000E+03	1.588509E-16	5.075630E-17
7.470000E+03	1.600578E-16	5.109998E-17
7.480000E+03	1.612955E-16	5.145117E-17
7.490000E+03	1.625596E-16	5.180837E-17
7.500000E+03	1.638497E-16	5.217147E-17
7.510000E+03	1.651677E-16	5.254101E-17
7.520000E+03	1.665110E-16	5.291614E-17
7.530000E+03	1.678814E-16	5.329740E-17
7.540000E+03	1.692738E-16	5.368317E-17
7.550000E+03	1.706921E-16	5.407467E-17
7.560000E+03	1.721336E-16	5.447097E-17
7.570000E+03	1.735973E-16	5.487183E-17
7.580000E+03	1.750826E-16	5.527701E-17
7.590000E+03	1.765861E-16	5.568547E-17
7.600000E+03	1.781117E-16	5.609844E-17
7.610000E+03	1.796512E-16	5.651335E-17
7.620000E+03	1.812107E-16	5.693216E-17
7.630000E+03	1.827816E-16	5.735224E-17
7.640000E+03	1.843677E-16	5.777477E-17
7.650000E+03	1.859650E-16	5.819863E-17
7.660000E+03	1.875748E-16	5.862423E-17
7.670000E+03	1.891904E-16	5.904960E-17
7.680000E+03	1.908127E-16	5.947515E-17
7.690000E+03	1.924402E-16	5.990046E-17
7.700000E+03	1.940712E-16	6.032513E-17
7.710000E+03	1.957038E-16	6.074877E-17
7.720000E+03	1.973337E-16	6.117011E-17
7.730000E+03	1.989589E-16	6.158875E-17
7.740000E+03	2.005801E-16	6.200509E-17
7.750000E+03	2.021929E-16	6.241789E-17
7.760000E+03	2.037950E-16	6.282674E-17
