#wls	flux	fluxerr
1.600000E+03	7.383823E-18	3.760293E-18
1.640000E+03	7.493826E-18	3.808233E-18
1.680000E+03	7.606885E-18	3.857190E-18
1.720000E+03	7.723869E-18	3.907588E-18
1.760000E+03	7.844654E-18	3.959343E-18
1.800000E+03	7.969115E-18	4.012374E-18
1.840000E+03	8.098104E-18	4.067092E-18
1.880000E+03	8.231488E-18	4.123409E-18
1.920000E+03	8.369140E-18	4.181240E-18
1.960000E+03	8.512861E-18	4.241465E-18
2.000000E+03	8.660592E-18	4.303030E-18
2.040000E+03	8.814133E-18	4.366808E-18
2.080000E+03	8.973361E-18	4.432707E-18
2.120000E+03	9.139109E-18	4.501103E-18
2.160000E+03	9.310328E-18	4.571442E-18
2.200000E+03	9.489747E-18	4.645019E-18
2.240000E+03	9.675407E-18	4.720820E-18
2.280000E+03	9.869114E-18	4.799667E-18
2.320000E+03	1.007082E-17	4.881466E-18
2.360000E+03	1.028236E-17	4.967017E-18
2.400000E+03	1.050280E-17	5.055780E-18
2.440000E+03	1.073311E-17	5.148109E-18
2.480000E+03	1.097518E-17	5.244785E-18
2.520000E+03	1.122913E-17	5.345719E-18
2.560000E+03	1.149514E-17	5.450836E-18
2.600000E+03	1.177522E-17	5.560914E-18
2.640000E+03	1.207056E-17	5.676309E-18
2.680000E+03	1.238240E-17	5.797385E-18
2.720000E+03	1.271207E-17	5.924516E-18
2.760000E+03	1.306013E-17	6.057693E-18
2.800000E+03	1.342983E-17	6.198139E-18
2.840000E+03	1.382193E-17	6.345887E-18
2.880000E+03	1.423819E-17	6.501411E-18
2.920000E+03	1.468223E-17	6.665997E-18
2.960000E+03	1.515524E-17	6.839794E-18
3.000000E+03	1.566028E-17	7.023780E-18
3.010000E+03	1.579199E-17	7.071517E-18
3.020000E+03	1.592593E-17	7.119958E-18
3.030000E+03	1.606213E-17	7.169110E-18
3.040000E+03	1.620061E-17	7.218976E-18
3.050000E+03	1.634141E-17	7.269562E-18
3.060000E+03	1.648455E-17	7.320875E-18
3.070000E+03	1.663006E-17	7.372920E-18
3.080000E+03	1.677797E-17	7.425704E-18
3.090000E+03	1.692918E-17	7.479609E-18
3.100000E+03	1.708200E-17	7.533890E-18
3.110000E+03	1.723818E-17	7.589306E-18
3.120000E+03	1.739774E-17	7.645864E-18
3.130000E+03	1.755903E-17	7.702821E-18
3.140000E+03	1.772377E-17	7.760935E-18
3.150000E+03	1.789117E-17	7.819840E-18
3.160000E+03	1.806125E-17	7.879546E-18
3.170000E+03	1.823490E-17	7.940433E-18
3.180000E+03	1.841132E-17	8.002140E-18
3.190000E+03	1.859141E-17	8.065046E-18
3.200000E+03	1.877434E-17	8.128792E-18
3.210000E+03	1.896101E-17	8.193758E-18
3.220000E+03	1.915063E-17	8.259585E-18
3.230000E+03	1.934408E-17	8.326654E-18
3.240000E+03	1.954141E-17	8.394976E-18
3.250000E+03	1.974182E-17	8.464194E-18
3.260000E+03	1.994535E-17	8.534322E-18
3.270000E+03	2.015377E-17	8.606108E-18
3.280000E+03	2.036542E-17	8.678829E-18
3.290000E+03	2.058120E-17	8.752867E-18
3.300000E+03	2.080030E-17	8.827869E-18
3.310000E+03	2.102451E-17	8.904582E-18
3.320000E+03	2.125215E-17	8.982289E-18
3.330000E+03	2.148414E-17	9.061371E-18
3.340000E+03	2.172054E-17	9.141844E-18
3.350000E+03	2.196141E-17	9.223723E-18
3.360000E+03	2.220681E-17	9.307025E-18
3.370000E+03	2.245679E-17	9.391768E-18
3.380000E+03	2.271143E-17	9.477968E-18
3.390000E+03	2.297077E-17	9.565643E-18
3.400000E+03	2.323488E-17	9.654812E-18
3.410000E+03	2.350383E-17	9.745493E-18
3.420000E+03	2.377768E-17	9.837705E-18
3.430000E+03	2.405738E-17	9.931831E-18
3.440000E+03	2.434122E-17	1.002716E-17
3.450000E+03	2.463105E-17	1.012445E-17
3.460000E+03	2.492604E-17	1.022335E-17
3.470000E+03	2.522715E-17	1.032424E-17
3.480000E+03	2.553267E-17	1.042643E-17
3.490000E+03	2.584534E-17	1.053101E-17
3.500000E+03	2.616257E-17	1.063693E-17
3.510000E+03	2.648620E-17	1.074494E-17
3.520000E+03	2.681540E-17	1.085468E-17
3.530000E+03	2.715116E-17	1.096655E-17
3.540000E+03	2.749264E-17	1.108021E-17
3.550000E+03	2.784082E-17	1.119604E-17
3.560000E+03	2.819577E-17	1.131408E-17
3.570000E+03	2.855666E-17	1.143397E-17
3.580000E+03	2.892356E-17	1.155574E-17
3.590000E+03	2.929745E-17	1.167978E-17
3.600000E+03	2.967841E-17	1.180611E-17
3.610000E+03	3.006559E-17	1.193440E-17
3.620000E+03	3.046091E-17	1.206540E-17
3.630000E+03	3.086168E-17	1.219803E-17
3.640000E+03	3.127072E-17	1.233342E-17
3.650000E+03	3.168628E-17	1.247086E-17
3.660000E+03	3.210935E-17	1.261074E-17
3.670000E+03	3.253999E-17	1.275309E-17
3.680000E+03	3.297828E-17	1.289792E-17
3.690000E+03	3.342336E-17	1.304489E-17
3.700000E+03	3.387717E-17	1.319477E-17
3.710000E+03	3.433789E-17	1.334683E-17
3.720000E+03	3.480655E-17	1.350148E-17
3.730000E+03	3.528224E-17	1.365836E-17
3.740000E+03	3.576694E-17	1.381823E-17
3.750000E+03	3.625977E-17	1.398075E-17
3.760000E+03	3.675983E-17	1.414557E-17
3.770000E+03	3.726813E-17	1.431307E-17
3.780000E+03	3.778473E-17	1.448328E-17
3.790000E+03	3.830970E-17	1.465621E-17
3.800000E+03	3.884309E-17	1.483189E-17
3.810000E+03	3.938496E-17	1.501033E-17
3.820000E+03	3.993438E-17	1.519118E-17
3.830000E+03	4.049237E-17	1.537482E-17
3.840000E+03	4.105998E-17	1.556164E-17
3.850000E+03	4.163428E-17	1.575054E-17
3.860000E+03	4.221829E-17	1.594264E-17
3.870000E+03	4.281107E-17	1.613759E-17
3.880000E+03	4.341164E-17	1.633503E-17
3.890000E+03	4.402104E-17	1.653533E-17
3.900000E+03	4.463932E-17	1.673851E-17
3.910000E+03	4.526547E-17	1.694418E-17
3.920000E+03	4.590056E-17	1.715275E-17
3.930000E+03	4.654459E-17	1.736420E-17
3.940000E+03	4.719656E-17	1.757817E-17
3.950000E+03	4.785752E-17	1.779503E-17
3.960000E+03	4.852645E-17	1.801440E-17
3.970000E+03	4.920439E-17	1.823666E-17
3.980000E+03	4.989134E-17	1.846181E-17
3.990000E+03	5.058521E-17	1.868906E-17
4.000000E+03	5.128809E-17	1.891918E-17
4.010000E+03	5.199998E-17	1.915217E-17
4.020000E+03	5.271979E-17	1.938761E-17
4.030000E+03	5.344752E-17	1.962549E-17
4.040000E+03	5.418311E-17	1.986579E-17
4.050000E+03	5.492655E-17	2.010849E-17
4.060000E+03	5.567778E-17	2.035357E-17
4.070000E+03	5.643785E-17	2.060140E-17
4.080000E+03	5.720453E-17	2.085115E-17
4.090000E+03	5.797884E-17	2.110319E-17
4.100000E+03	5.876071E-17	2.135748E-17
4.110000E+03	5.955007E-17	2.161399E-17
4.120000E+03	6.034574E-17	2.187227E-17
4.130000E+03	6.114870E-17	2.213267E-17
4.140000E+03	6.195777E-17	2.239475E-17
4.150000E+03	6.277392E-17	2.265884E-17
4.160000E+03	6.359592E-17	2.292450E-17
4.170000E+03	6.442364E-17	2.319166E-17
4.180000E+03	6.525806E-17	2.346065E-17
4.190000E+03	6.609676E-17	2.373060E-17
4.200000E+03	6.694184E-17	2.400224E-17
4.210000E+03	6.779085E-17	2.427468E-17
4.220000E+03	6.864475E-17	2.454824E-17
4.230000E+03	6.950333E-17	2.482283E-17
4.240000E+03	7.036522E-17	2.509795E-17
4.250000E+03	7.123137E-17	2.537390E-17
4.260000E+03	7.210038E-17	2.565018E-17
4.270000E+03	7.297199E-17	2.592666E-17
4.280000E+03	7.384712E-17	2.620366E-17
4.290000E+03	7.472316E-17	2.648022E-17
4.300000E+03	7.560217E-17	2.675706E-17
4.310000E+03	7.648152E-17	2.703320E-17
4.320000E+03	7.736206E-17	2.730893E-17
4.330000E+03	7.824231E-17	2.758369E-17
4.340000E+03	7.912193E-17	2.785735E-17
4.350000E+03	8.000179E-17	2.813016E-17
4.360000E+03	8.088035E-17	2.840157E-17
4.370000E+03	8.175726E-17	2.867141E-17
4.380000E+03	8.263216E-17	2.893953E-17
4.390000E+03	8.350349E-17	2.920534E-17
4.400000E+03	8.437208E-17	2.946909E-17
4.410000E+03	8.523756E-17	2.973062E-17
4.420000E+03	8.609834E-17	2.998933E-17
4.430000E+03	8.695282E-17	3.024462E-17
4.440000E+03	8.780305E-17	3.049718E-17
4.450000E+03	8.864744E-17	3.074638E-17
4.460000E+03	8.948438E-17	3.099165E-17
4.470000E+03	9.031471E-17	3.123322E-17
4.480000E+03	9.113683E-17	3.147048E-17
4.490000E+03	9.195038E-17	3.170327E-17
4.500000E+03	9.275497E-17	3.193141E-17
4.510000E+03	9.355027E-17	3.215473E-17
4.520000E+03	9.433593E-17	3.237305E-17
4.530000E+03	9.511035E-17	3.258577E-17
4.540000E+03	9.587323E-17	3.279275E-17
4.550000E+03	9.662549E-17	3.299423E-17
4.560000E+03	9.736559E-17	3.318965E-17
4.570000E+03	9.809200E-17	3.337841E-17
4.580000E+03	9.880570E-17	3.356081E-17
4.590000E+03	9.950519E-17	3.373628E-17
4.600000E+03	1.001915E-16	3.390510E-17
4.610000E+03	1.008631E-16	3.406674E-17
4.620000E+03	1.015187E-16	3.422064E-17
4.630000E+03	1.021605E-16	3.436754E-17
4.640000E+03	1.027859E-16	3.450649E-17
4.650000E+03	1.033960E-16	3.463782E-17
4.660000E+03	1.039882E-16	3.476061E-17
4.670000E+03	1.045650E-16	3.487560E-17
4.680000E+03	1.051250E-16	3.498233E-17
4.690000E+03	1.056669E-16	3.508030E-17
4.700000E+03	1.061933E-16	3.517030E-17
4.710000E+03	1.067004E-16	3.525105E-17
4.720000E+03	1.071907E-16	3.532334E-17
4.730000E+03	1.076630E-16	3.538674E-17
4.740000E+03	1.081175E-16	3.544123E-17
4.750000E+03	1.085543E-16	3.548682E-17
4.760000E+03	1.089733E-16	3.552351E-17
4.770000E+03	1.093737E-16	3.555090E-17
4.780000E+03	1.097567E-16	3.556944E-17
4.790000E+03	1.101213E-16	3.557874E-17
4.800000E+03	1.104690E-16	3.557926E-17
4.810000E+03	1.107987E-16	3.557064E-17
4.820000E+03	1.111095E-16	3.555256E-17
4.830000E+03	1.114040E-16	3.552586E-17
4.840000E+03	1.116813E-16	3.549023E-17
4.850000E+03	1.119417E-16	3.544576E-17
4.860000E+03	1.121842E-16	3.539215E-17
4.870000E+03	1.124104E-16	3.532988E-17
4.880000E+03	1.126206E-16	3.525907E-17
4.890000E+03	1.128150E-16	3.517982E-17
4.900000E+03	1.129928E-16	3.509187E-17
4.910000E+03	1.131556E-16	3.499574E-17
4.920000E+03	1.133036E-16	3.489155E-17
4.930000E+03	1.134361E-16	3.477907E-17
4.940000E+03	1.135545E-16	3.465882E-17
4.950000E+03	1.136581E-16	3.453058E-17
4.960000E+03	1.137483E-16	3.439489E-17
4.970000E+03	1.138243E-16	3.425154E-17
4.980000E+03	1.138877E-16	3.410107E-17
4.990000E+03	1.139388E-16	3.394366E-17
5.000000E+03	1.139768E-16	3.377914E-17
5.010000E+03	1.140020E-16	3.360770E-17
5.020000E+03	1.140160E-16	3.342991E-17
5.030000E+03	1.140191E-16	3.324597E-17
5.040000E+03	1.140116E-16	3.305609E-17
5.050000E+03	1.139927E-16	3.286016E-17
5.060000E+03	1.139640E-16	3.265876E-17
5.070000E+03	1.139246E-16	3.245178E-17
5.080000E+03	1.138771E-16	3.224015E-17
5.090000E+03	1.138195E-16	3.202347E-17
5.100000E+03	1.137546E-16	3.180267E-17
5.110000E+03	1.136803E-16	3.157738E-17
5.120000E+03	1.135980E-16	3.134821E-17
5.130000E+03	1.135093E-16	3.111580E-17
5.140000E+03	1.134122E-16	3.087982E-17
5.150000E+03	1.133092E-16	3.064124E-17
5.160000E+03	1.131995E-16	3.040009E-17
5.170000E+03	1.130846E-16	3.015703E-17
5.180000E+03	1.129624E-16	2.991183E-17
5.190000E+03	1.128368E-16	2.966578E-17
5.200000E+03	1.127057E-16	2.941868E-17
5.210000E+03	1.125705E-16	2.917125E-17
5.220000E+03	1.124304E-16	2.892362E-17
5.230000E+03	1.122879E-16	2.867684E-17
5.240000E+03	1.121411E-16	2.843079E-17
5.250000E+03	1.119926E-16	2.818651E-17
5.260000E+03	1.118402E-16	2.794396E-17
5.270000E+03	1.116866E-16	2.770419E-17
5.280000E+03	1.115309E-16	2.746747E-17
5.290000E+03	1.113745E-16	2.723462E-17
5.300000E+03	1.112165E-16	2.700592E-17
5.310000E+03	1.110573E-16	2.678195E-17
5.320000E+03	1.108993E-16	2.656383E-17
5.330000E+03	1.107405E-16	2.635163E-17
5.340000E+03	1.105824E-16	2.614622E-17
5.350000E+03	1.104262E-16	2.594846E-17
5.360000E+03	1.102700E-16	2.575846E-17
5.370000E+03	1.101162E-16	2.557734E-17
5.380000E+03	1.099641E-16	2.540547E-17
5.390000E+03	1.098138E-16	2.524345E-17
5.400000E+03	1.096666E-16	2.509213E-17
5.410000E+03	1.095228E-16	2.495208E-17
5.420000E+03	1.093814E-16	2.482362E-17
5.430000E+03	1.092438E-16	2.470752E-17
5.440000E+03	1.091102E-16	2.460426E-17
5.450000E+03	1.089818E-16	2.451454E-17
5.460000E+03	1.088565E-16	2.443825E-17
5.470000E+03	1.087368E-16	2.437621E-17
5.480000E+03	1.086217E-16	2.432839E-17
5.490000E+03	1.085122E-16	2.429519E-17
5.500000E+03	1.084075E-16	2.427637E-17
5.510000E+03	1.083087E-16	2.427206E-17
5.520000E+03	1.082158E-16	2.428205E-17
5.530000E+03	1.081287E-16	2.430600E-17
5.540000E+03	1.080475E-16	2.434353E-17
5.550000E+03	1.079722E-16	2.439418E-17
5.560000E+03	1.079026E-16	2.445744E-17
5.570000E+03	1.078399E-16	2.453303E-17
5.580000E+03	1.077828E-16	2.462012E-17
5.590000E+03	1.077312E-16	2.471812E-17
5.600000E+03	1.076862E-16	2.482669E-17
5.610000E+03	1.076476E-16	2.494520E-17
5.620000E+03	1.076153E-16	2.507304E-17
5.630000E+03	1.075880E-16	2.520935E-17
5.640000E+03	1.075679E-16	2.535402E-17
5.650000E+03	1.075536E-16	2.550620E-17
5.660000E+03	1.075450E-16	2.566529E-17
5.670000E+03	1.075419E-16	2.583071E-17
5.680000E+03	1.075453E-16	2.600216E-17
5.690000E+03	1.075538E-16	2.617883E-17
5.700000E+03	1.075684E-16	2.636046E-17
5.710000E+03	1.075877E-16	2.654626E-17
5.720000E+03	1.076127E-16	2.673601E-17
5.730000E+03	1.076431E-16	2.692924E-17
5.740000E+03	1.076788E-16	2.712550E-17
5.750000E+03	1.077184E-16	2.732406E-17
5.760000E+03	1.077638E-16	2.752508E-17
5.770000E+03	1.078138E-16	2.772787E-17
5.780000E+03	1.078682E-16	2.793206E-17
5.790000E+03	1.079278E-16	2.813758E-17
5.800000E+03	1.079912E-16	2.834380E-17
5.810000E+03	1.080583E-16	2.855040E-17
5.820000E+03	1.081300E-16	2.875736E-17
5.830000E+03	1.082048E-16	2.896410E-17
5.840000E+03	1.082837E-16	2.917064E-17
5.850000E+03	1.083664E-16	2.937673E-17
5.860000E+03	1.084517E-16	2.958183E-17
5.870000E+03	1.085403E-16	2.978600E-17
5.880000E+03	1.086322E-16	2.998905E-17
5.890000E+03	1.087270E-16	3.019076E-17
5.900000E+03	1.088246E-16	3.039096E-17
5.910000E+03	1.089247E-16	3.058947E-17
5.920000E+03	1.090272E-16	3.078613E-17
5.930000E+03	1.091330E-16	3.098111E-17
5.940000E+03	1.092397E-16	3.117365E-17
5.950000E+03	1.093493E-16	3.136424E-17
5.960000E+03	1.094605E-16	3.155246E-17
5.970000E+03	1.095731E-16	3.173819E-17
5.980000E+03	1.096882E-16	3.192168E-17
5.990000E+03	1.098044E-16	3.210250E-17
6.000000E+03	1.099215E-16	3.228059E-17
6.010000E+03	1.100406E-16	3.245620E-17
6.020000E+03	1.101603E-16	3.262894E-17
6.030000E+03	1.102817E-16	3.279910E-17
6.040000E+03	1.104035E-16	3.296629E-17
6.050000E+03	1.105268E-16	3.313082E-17
6.060000E+03	1.106501E-16	3.329232E-17
6.070000E+03	1.107746E-16	3.345111E-17
6.080000E+03	1.109002E-16	3.360718E-17
6.090000E+03	1.110255E-16	3.376017E-17
6.100000E+03	1.111517E-16	3.391041E-17
6.110000E+03	1.112775E-16	3.405757E-17
6.120000E+03	1.114027E-16	3.420165E-17
6.130000E+03	1.115296E-16	3.434336E-17
6.140000E+03	1.116546E-16	3.448165E-17
6.150000E+03	1.117799E-16	3.461726E-17
6.160000E+03	1.119055E-16	3.475022E-17
6.170000E+03	1.120300E-16	3.488018E-17
6.180000E+03	1.121534E-16	3.500716E-17
6.190000E+03	1.122756E-16	3.513121E-17
6.200000E+03	1.123976E-16	3.525273E-17
6.210000E+03	1.125170E-16	3.537101E-17
6.220000E+03	1.126361E-16	3.548684E-17
6.230000E+03	1.127523E-16	3.559950E-17
6.240000E+03	1.128669E-16	3.570941E-17
6.250000E+03	1.129796E-16	3.581662E-17
6.260000E+03	1.130892E-16	3.592079E-17
6.270000E+03	1.131956E-16	3.602197E-17
6.280000E+03	1.132999E-16	3.612059E-17
6.290000E+03	1.133996E-16	3.621591E-17
6.300000E+03	1.134970E-16	3.630877E-17
6.310000E+03	1.135895E-16	3.639844E-17
6.320000E+03	1.136784E-16	3.648535E-17
6.330000E+03	1.137623E-16	3.656916E-17
6.340000E+03	1.138423E-16	3.665031E-17
6.350000E+03	1.139170E-16	3.672847E-17
6.360000E+03	1.139878E-16	3.680407E-17
6.370000E+03	1.140520E-16	3.687638E-17
6.380000E+03	1.141108E-16	3.694584E-17
6.390000E+03	1.141640E-16	3.701250E-17
6.400000E+03	1.142105E-16	3.707602E-17
6.410000E+03	1.142514E-16	3.713685E-17
6.420000E+03	1.142854E-16	3.719463E-17
6.430000E+03	1.143138E-16	3.724983E-17
6.440000E+03	1.143340E-16	3.730169E-17
6.450000E+03	1.143484E-16	3.735108E-17
6.460000E+03	1.143559E-16	3.739763E-17
6.470000E+03	1.143565E-16	3.744142E-17
6.480000E+03	1.143488E-16	3.748208E-17
6.490000E+03	1.143343E-16	3.752008E-17
6.500000E+03	1.143129E-16	3.755548E-17
6.510000E+03	1.142848E-16	3.758834E-17
6.520000E+03	1.142500E-16	3.761872E-17
6.530000E+03	1.142072E-16	3.764626E-17
6.540000E+03	1.141580E-16	3.767145E-17
6.550000E+03	1.141024E-16	3.769435E-17
6.560000E+03	1.140406E-16	3.771503E-17
6.570000E+03	1.139727E-16	3.773355E-17
6.580000E+03	1.138975E-16	3.774956E-17
6.590000E+03	1.138180E-16	3.776398E-17
6.600000E+03	1.137329E-16	3.777646E-17
6.610000E+03	1.136425E-16	3.778707E-17
6.620000E+03	1.135470E-16	3.779588E-17
6.630000E+03	1.134467E-16	3.780298E-17
6.640000E+03	1.133430E-16	3.780887E-17
6.650000E+03	1.132351E-16	3.781320E-17
6.660000E+03	1.131244E-16	3.781649E-17
6.670000E+03	1.130112E-16	3.781882E-17
6.680000E+03	1.128946E-16	3.781986E-17
6.690000E+03	1.127762E-16	3.782010E-17
6.700000E+03	1.126562E-16	3.781965E-17
6.710000E+03	1.125351E-16	3.781860E-17
6.720000E+03	1.124131E-16	3.781704E-17
6.730000E+03	1.122919E-16	3.781550E-17
6.740000E+03	1.121706E-16	3.781363E-17
6.750000E+03	1.120494E-16	3.781154E-17
6.760000E+03	1.119302E-16	3.780975E-17
6.770000E+03	1.118118E-16	3.780793E-17
6.780000E+03	1.116961E-16	3.780661E-17
6.790000E+03	1.115846E-16	3.780633E-17
6.800000E+03	1.114751E-16	3.780630E-17
6.810000E+03	1.113693E-16	3.780708E-17
6.820000E+03	1.112688E-16	3.780919E-17
6.830000E+03	1.111728E-16	3.781229E-17
6.840000E+03	1.110815E-16	3.781649E-17
6.850000E+03	1.109966E-16	3.782232E-17
6.860000E+03	1.109185E-16	3.782988E-17
6.870000E+03	1.108462E-16	3.783883E-17
6.880000E+03	1.107814E-16	3.784970E-17
6.890000E+03	1.107244E-16	3.786259E-17
6.900000E+03	1.106768E-16	3.787804E-17
6.910000E+03	1.106363E-16	3.789524E-17
6.920000E+03	1.106059E-16	3.791519E-17
6.930000E+03	1.105859E-16	3.793799E-17
6.940000E+03	1.105753E-16	3.796325E-17
6.950000E+03	1.105743E-16	3.799107E-17
6.960000E+03	1.105847E-16	3.802200E-17
6.970000E+03	1.106079E-16	3.805656E-17
6.980000E+03	1.106416E-16	3.809394E-17
6.990000E+03	1.106875E-16	3.813465E-17
7.000000E+03	1.107457E-16	3.817879E-17
7.010000E+03	1.108179E-16	3.822690E-17
7.020000E+03	1.109016E-16	3.827811E-17
7.030000E+03	1.110011E-16	3.833391E-17
7.040000E+03	1.111139E-16	3.839343E-17
7.050000E+03	1.112403E-16	3.845672E-17
7.060000E+03	1.113819E-16	3.852435E-17
7.070000E+03	1.115388E-16	3.859636E-17
7.080000E+03	1.117113E-16	3.867284E-17
7.090000E+03	1.118997E-16	3.875383E-17
7.100000E+03	1.121040E-16	3.883941E-17
7.110000E+03	1.123231E-16	3.892914E-17
7.120000E+03	1.125614E-16	3.902454E-17
7.130000E+03	1.128148E-16	3.912421E-17
7.140000E+03	1.130864E-16	3.922918E-17
7.150000E+03	1.133750E-16	3.933900E-17
7.160000E+03	1.136821E-16	3.945424E-17
7.170000E+03	1.140065E-16	3.957443E-17
7.180000E+03	1.143499E-16	3.970013E-17
7.190000E+03	1.147122E-16	3.983139E-17
7.200000E+03	1.150924E-16	3.996774E-17
7.210000E+03	1.154920E-16	4.010974E-17
7.220000E+03	1.159126E-16	4.025794E-17
7.230000E+03	1.163515E-16	4.041136E-17
7.240000E+03	1.168103E-16	4.057055E-17
7.250000E+03	1.172890E-16	4.073554E-17
7.260000E+03	1.177880E-16	4.090637E-17
7.270000E+03	1.183073E-16	4.108307E-17
7.280000E+03	1.188470E-16	4.126566E-17
7.290000E+03	1.194089E-16	4.145472E-17
7.300000E+03	1.199914E-16	4.164973E-17
7.310000E+03	1.205948E-16	4.185071E-17
7.320000E+03	1.212191E-16	4.205766E-17
7.330000E+03	1.218660E-16	4.227117E-17
7.340000E+03	1.225340E-16	4.249069E-17
7.350000E+03	1.232232E-16	4.271621E-17
7.360000E+03	1.239352E-16	4.294831E-17
7.370000E+03	1.246685E-16	4.318642E-17
7.380000E+03	1.254248E-16	4.343110E-17
7.390000E+03	1.262008E-16	4.368119E-17
7.400000E+03	1.270015E-16	4.393840E-17
7.410000E+03	1.278219E-16	4.420097E-17
7.420000E+03	1.286653E-16	4.447002E-17
7.430000E+03	1.295299E-16	4.474495E-17
7.440000E+03	1.304157E-16	4.502568E-17
7.450000E+03	1.313225E-16	4.531218E-17
7.460000E+03	1.322521E-16	4.560499E-17
7.470000E+03	1.332006E-16	4.590281E-17
7.480000E+03	1.341698E-16	4.620617E-17
7.490000E+03	1.351593E-16	4.651499E-17
7.500000E+03	1.361689E-16	4.682918E-17
7.510000E+03	1.371984E-16	4.714861E-17
7.520000E+03	1.382455E-16	4.747255E-17
7.530000E+03	1.393118E-16	4.780150E-17
7.540000E+03	1.403950E-16	4.813467E-17
7.550000E+03	1.414946E-16	4.847192E-17
7.560000E+03	1.426120E-16	4.881373E-17
7.570000E+03	1.437429E-16	4.915861E-17
7.580000E+03	1.448906E-16	4.950771E-17
7.590000E+03	1.460504E-16	4.985951E-17
7.600000E+03	1.472258E-16	5.021514E-17
7.610000E+03	1.484120E-16	5.057304E-17
7.620000E+03	1.496083E-16	5.093298E-17
7.630000E+03	1.508158E-16	5.129541E-17
7.640000E+03	1.520338E-16	5.166010E-17
7.650000E+03	1.532593E-16	5.202611E-17
7.660000E+03	1.544893E-16	5.239246E-17
7.670000E+03	1.557269E-16	5.276031E-17
7.680000E+03	1.569691E-16	5.312868E-17
7.690000E+03	1.582149E-16	5.349731E-17
7.700000E+03	1.594610E-16	5.386518E-17
7.710000E+03	1.607085E-16	5.423274E-17
7.720000E+03	1.619539E-16	5.459896E-17
7.730000E+03	1.631985E-16	5.496432E-17
7.740000E+03	1.644387E-16	5.532777E-17
7.750000E+03	1.656733E-16	5.568903E-17
7.760000E+03	1.669013E-16	5.604783E-17
