#wls	flux	fluxerr
1.574958E+03	1.604549E-03	7.380621E-05
1.614332E+03	1.604075E-03	7.356392E-05
1.653706E+03	1.603838E-03	7.332743E-05
1.693080E+03	1.604131E-03	7.310989E-05
1.732454E+03	1.604956E-03	7.291111E-05
1.771828E+03	1.606607E-03	7.274401E-05
1.811202E+03	1.609088E-03	7.260832E-05
1.850576E+03	1.612692E-03	7.251673E-05
1.889950E+03	1.617426E-03	7.246886E-05
1.929324E+03	1.623584E-03	7.247721E-05
1.968698E+03	1.631175E-03	7.254123E-05
2.008072E+03	1.640786E-03	7.268607E-05
2.047446E+03	1.652139E-03	7.289821E-05
2.086820E+03	1.666112E-03	7.321513E-05
2.126194E+03	1.682433E-03	7.362325E-05
2.165567E+03	1.701699E-03	7.414699E-05
2.204941E+03	1.723647E-03	7.477299E-05
2.244315E+03	1.748308E-03	7.550068E-05
2.283689E+03	1.775721E-03	7.632978E-05
2.323063E+03	1.805934E-03	7.726026E-05
2.362437E+03	1.839003E-03	7.829237E-05
2.401811E+03	1.874426E-03	7.940251E-05
2.441185E+03	1.912859E-03	8.061632E-05
2.480559E+03	1.953827E-03	8.191143E-05
2.519933E+03	1.997449E-03	8.329045E-05
2.559307E+03	2.044151E-03	8.476865E-05
2.598681E+03	2.093522E-03	8.632627E-05
2.638055E+03	2.146332E-03	8.799228E-05
2.677429E+03	2.202809E-03	8.977283E-05
2.716803E+03	2.262931E-03	9.166355E-05
2.756177E+03	2.327011E-03	9.367343E-05
2.795551E+03	2.395414E-03	9.581321E-05
2.834925E+03	2.467974E-03	9.807209E-05
2.874299E+03	2.545172E-03	1.004648E-04
2.913673E+03	2.627562E-03	1.030083E-04
2.953047E+03	2.716375E-03	1.057453E-04
2.962890E+03	2.739711E-03	1.064641E-04
2.972734E+03	2.763373E-03	1.071915E-04
2.982577E+03	2.787677E-03	1.079396E-04
2.992421E+03	2.812330E-03	1.086971E-04
3.002264E+03	2.837955E-03	1.094879E-04
3.012107E+03	2.863652E-03	1.102770E-04
3.021951E+03	2.890350E-03	1.111002E-04
3.031794E+03	2.917449E-03	1.119342E-04
3.041638E+03	2.945273E-03	1.127912E-04
3.051481E+03	2.973834E-03	1.136717E-04
3.061325E+03	3.003149E-03	1.145760E-04
3.071168E+03	3.033229E-03	1.155044E-04
3.081012E+03	3.064092E-03	1.164573E-04
3.090855E+03	3.095435E-03	1.174231E-04
3.100699E+03	3.128216E-03	1.184380E-04
3.110542E+03	3.161502E-03	1.194663E-04
3.120386E+03	3.195939E-03	1.205322E-04
3.130229E+03	3.231221E-03	1.216241E-04
3.140073E+03	3.267359E-03	1.227419E-04
3.149916E+03	3.305002E-03	1.239100E-04
3.159760E+03	3.343520E-03	1.251043E-04
3.169603E+03	3.383242E-03	1.263369E-04
3.179447E+03	3.423849E-03	1.275957E-04
3.189290E+03	3.465995E-03	1.289046E-04
3.199134E+03	3.509360E-03	1.302515E-04
3.208977E+03	3.554273E-03	1.316483E-04
3.218821E+03	3.600407E-03	1.330824E-04
3.228664E+03	3.647756E-03	1.345533E-04
3.238508E+03	3.696984E-03	1.360852E-04
3.248351E+03	3.747417E-03	1.376528E-04
3.258195E+03	3.799719E-03	1.392803E-04
3.268038E+03	3.853208E-03	1.409420E-04
3.277882E+03	3.908888E-03	1.426744E-04
3.287725E+03	3.966068E-03	1.444518E-04
3.297569E+03	4.025074E-03	1.462857E-04
3.307412E+03	4.085890E-03	1.481749E-04
3.317256E+03	4.148841E-03	1.501308E-04
3.327099E+03	4.213908E-03	1.521522E-04
3.336943E+03	4.280713E-03	1.542248E-04
3.346786E+03	4.349924E-03	1.563722E-04
3.356630E+03	4.421150E-03	1.585799E-04
3.366473E+03	4.494340E-03	1.608454E-04
3.376317E+03	4.570146E-03	1.631916E-04
3.386160E+03	4.648499E-03	1.656152E-04
3.396004E+03	4.728949E-03	1.680997E-04
3.405847E+03	4.811379E-03	1.706403E-04
3.415691E+03	4.896737E-03	1.732700E-04
3.425534E+03	4.983761E-03	1.759435E-04
3.435377E+03	5.073330E-03	1.786914E-04
3.445221E+03	5.164821E-03	1.814910E-04
3.455064E+03	5.257918E-03	1.843308E-04
3.464908E+03	5.352627E-03	1.872106E-04
3.474751E+03	5.448516E-03	1.901147E-04
3.484595E+03	5.545092E-03	1.930258E-04
3.494438E+03	5.642158E-03	1.959367E-04
3.504282E+03	5.738721E-03	1.988129E-04
3.514125E+03	5.834461E-03	2.016434E-04
3.523969E+03	5.928653E-03	2.044033E-04
3.533812E+03	6.020943E-03	2.070809E-04
3.543656E+03	6.109879E-03	2.096268E-04
3.553499E+03	6.195200E-03	2.120328E-04
3.563343E+03	6.276678E-03	2.142920E-04
3.573186E+03	6.353370E-03	2.163733E-04
3.583030E+03	6.424744E-03	2.182597E-04
3.592873E+03	6.490652E-03	2.199477E-04
3.602717E+03	6.550260E-03	2.214104E-04
3.612560E+03	6.603134E-03	2.226347E-04
3.622404E+03	6.648905E-03	2.236099E-04
3.632247E+03	6.687690E-03	2.243419E-04
3.642091E+03	6.719173E-03	2.248217E-04
3.651934E+03	6.743762E-03	2.250650E-04
3.661778E+03	6.762271E-03	2.251005E-04
3.671621E+03	6.776346E-03	2.249846E-04
3.681465E+03	6.786989E-03	2.247515E-04
3.691308E+03	6.797664E-03	2.245165E-04
3.701152E+03	6.810821E-03	2.243605E-04
3.710995E+03	6.830392E-03	2.244119E-04
3.720839E+03	6.860150E-03	2.247927E-04
3.730682E+03	6.904760E-03	2.256527E-04
3.740526E+03	6.968234E-03	2.271188E-04
3.750369E+03	7.055680E-03	2.293522E-04
3.760213E+03	7.170495E-03	2.324565E-04
3.770056E+03	7.317251E-03	2.365725E-04
3.779900E+03	7.498651E-03	2.417788E-04
3.789743E+03	7.717147E-03	2.481452E-04
3.799587E+03	7.975437E-03	2.557483E-04
3.809430E+03	8.274494E-03	2.646086E-04
3.819274E+03	8.615080E-03	2.747397E-04
3.829117E+03	8.997270E-03	2.861328E-04
3.838961E+03	9.419344E-03	2.987222E-04
3.848804E+03	9.877936E-03	3.123909E-04
3.858648E+03	1.036980E-02	3.270264E-04
3.868491E+03	1.088814E-02	3.424066E-04
3.878334E+03	1.142589E-02	3.583024E-04
3.888178E+03	1.197390E-02	3.744227E-04
3.898021E+03	1.252245E-02	3.904611E-04
3.907865E+03	1.305981E-02	4.060534E-04
3.917708E+03	1.357508E-02	4.208639E-04
3.927552E+03	1.405656E-02	4.345373E-04
3.937395E+03	1.449337E-02	4.467467E-04
3.947239E+03	1.487523E-02	4.571889E-04
3.957082E+03	1.519403E-02	4.656293E-04
3.966926E+03	1.544218E-02	4.718536E-04
3.976769E+03	1.561558E-02	4.757554E-04
3.986613E+03	1.571165E-02	4.772769E-04
3.996456E+03	1.573077E-02	4.764499E-04
4.006300E+03	1.567604E-02	4.733894E-04
4.016143E+03	1.555276E-02	4.682743E-04
4.025987E+03	1.536949E-02	4.613803E-04
4.035830E+03	1.513578E-02	4.530094E-04
4.045674E+03	1.486504E-02	4.435756E-04
4.055517E+03	1.456961E-02	4.334558E-04
4.065361E+03	1.426412E-02	4.230909E-04
4.075204E+03	1.396132E-02	4.128604E-04
4.085048E+03	1.367327E-02	4.031195E-04
4.094891E+03	1.340925E-02	3.941366E-04
4.104735E+03	1.317608E-02	3.861060E-04
4.114578E+03	1.297881E-02	3.791661E-04
4.124422E+03	1.281901E-02	3.733537E-04
4.134265E+03	1.269607E-02	3.686409E-04
4.144109E+03	1.260805E-02	3.649617E-04
4.153952E+03	1.255099E-02	3.621928E-04
4.163796E+03	1.252009E-02	3.601877E-04
4.173639E+03	1.251017E-02	3.587907E-04
4.183483E+03	1.251508E-02	3.578211E-04
4.193326E+03	1.252960E-02	3.571256E-04
4.203170E+03	1.254827E-02	3.565471E-04
4.213013E+03	1.256591E-02	3.559377E-04
4.222857E+03	1.257900E-02	3.551984E-04
4.232700E+03	1.258461E-02	3.542480E-04
4.242544E+03	1.258098E-02	3.530394E-04
4.252387E+03	1.256792E-02	3.515693E-04
4.262231E+03	1.254664E-02	3.498746E-04
4.272074E+03	1.251949E-02	3.480227E-04
4.281918E+03	1.248966E-02	3.461035E-04
4.291761E+03	1.246193E-02	3.442498E-04
4.301604E+03	1.244116E-02	3.425953E-04
4.311448E+03	1.243337E-02	3.413032E-04
4.321291E+03	1.244434E-02	3.405289E-04
4.331135E+03	1.248065E-02	3.404464E-04
4.340978E+03	1.254797E-02	3.412039E-04
4.350822E+03	1.265226E-02	3.429552E-04
4.360665E+03	1.279959E-02	3.458549E-04
4.370509E+03	1.299608E-02	3.500569E-04
4.380352E+03	1.324819E-02	3.557224E-04
4.390196E+03	1.356285E-02	3.630233E-04
4.400039E+03	1.394760E-02	3.721451E-04
4.409883E+03	1.440904E-02	3.832464E-04
4.419726E+03	1.495322E-02	3.964681E-04
4.429570E+03	1.558436E-02	4.119020E-04
4.439413E+03	1.630367E-02	4.295582E-04
4.449257E+03	1.710976E-02	4.493789E-04
4.459100E+03	1.799625E-02	4.711764E-04
4.468944E+03	1.895196E-02	4.946390E-04
4.478787E+03	1.995981E-02	5.193068E-04
4.488631E+03	2.099687E-02	5.445723E-04
4.498474E+03	2.203491E-02	5.696993E-04
4.508318E+03	2.304246E-02	5.938778E-04
4.518161E+03	2.398621E-02	6.162591E-04
4.528005E+03	2.483329E-02	6.360182E-04
4.537848E+03	2.555559E-02	6.524612E-04
4.547692E+03	2.612992E-02	6.650284E-04
4.557535E+03	2.654043E-02	6.733536E-04
4.567379E+03	2.677934E-02	6.772794E-04
4.577222E+03	2.684772E-02	6.768741E-04
4.587066E+03	2.675318E-02	6.723696E-04
4.596909E+03	2.651184E-02	6.642081E-04
4.606753E+03	2.614382E-02	6.529269E-04
4.616596E+03	2.567416E-02	6.391792E-04
4.626440E+03	2.512987E-02	6.236583E-04
4.636283E+03	2.453873E-02	6.070693E-04
4.646127E+03	2.392713E-02	5.900732E-04
4.655970E+03	2.331920E-02	5.732674E-04
4.665814E+03	2.273496E-02	5.571414E-04
4.675657E+03	2.219157E-02	5.421087E-04
4.685501E+03	2.170181E-02	5.284703E-04
4.695344E+03	2.127525E-02	5.164458E-04
4.705188E+03	2.091812E-02	5.061714E-04
4.715031E+03	2.063357E-02	4.977068E-04
4.724874E+03	2.042223E-02	4.910500E-04
4.734718E+03	2.028354E-02	4.861707E-04
4.744561E+03	2.021514E-02	4.829962E-04
4.754405E+03	2.021428E-02	4.814445E-04
4.764248E+03	2.027737E-02	4.814155E-04
4.774092E+03	2.040034E-02	4.827980E-04
4.783935E+03	2.057857E-02	4.854699E-04
4.793779E+03	2.080555E-02	4.892656E-04
4.803622E+03	2.107405E-02	4.940051E-04
4.813466E+03	2.137433E-02	4.994511E-04
4.823309E+03	2.169382E-02	5.053046E-04
4.833153E+03	2.201762E-02	5.112152E-04
4.842996E+03	2.232793E-02	5.167704E-04
4.852840E+03	2.260529E-02	5.215245E-04
4.862683E+03	2.282884E-02	5.250053E-04
4.872527E+03	2.297899E-02	5.267757E-04
4.882370E+03	2.304032E-02	5.264997E-04
4.892214E+03	2.300350E-02	5.239843E-04
4.902057E+03	2.286582E-02	5.191896E-04
4.911901E+03	2.263240E-02	5.122534E-04
4.921744E+03	2.231453E-02	5.034511E-04
4.931588E+03	2.192907E-02	4.931800E-04
4.941431E+03	2.149654E-02	4.819146E-04
4.951275E+03	2.103913E-02	4.701606E-04
4.961118E+03	2.057869E-02	4.584097E-04
4.970962E+03	2.013551E-02	4.471132E-04
4.980805E+03	1.972668E-02	4.366451E-04
4.990649E+03	1.936622E-02	4.273075E-04
5.000492E+03	1.906430E-02	4.193137E-04
5.010336E+03	1.882794E-02	4.128054E-04
5.020179E+03	1.866197E-02	4.078739E-04
5.030023E+03	1.856904E-02	4.045629E-04
5.039866E+03	1.855089E-02	4.028947E-04
5.049710E+03	1.860751E-02	4.028543E-04
5.059553E+03	1.873895E-02	4.044274E-04
5.069397E+03	1.894445E-02	4.075828E-04
5.079240E+03	1.922276E-02	4.122790E-04
5.089084E+03	1.957146E-02	4.184502E-04
5.098927E+03	1.998732E-02	4.260140E-04
5.108771E+03	2.046590E-02	4.348635E-04
5.118614E+03	2.100176E-02	4.448721E-04
5.128458E+03	2.158690E-02	4.558598E-04
5.138301E+03	2.221310E-02	4.676456E-04
5.148145E+03	2.287101E-02	4.800262E-04
5.157988E+03	2.355107E-02	4.927966E-04
5.167831E+03	2.424387E-02	5.057575E-04
5.177675E+03	2.494030E-02	5.187183E-04
5.187518E+03	2.563267E-02	5.315203E-04
5.197362E+03	2.631379E-02	5.440170E-04
5.207205E+03	2.697662E-02	5.560669E-04
5.217049E+03	2.761518E-02	5.675519E-04
5.226892E+03	2.822298E-02	5.783450E-04
5.236736E+03	2.879407E-02	5.883314E-04
5.246579E+03	2.932441E-02	5.974369E-04
5.256423E+03	2.981050E-02	6.055991E-04
5.266266E+03	3.025241E-02	6.128285E-04
5.276110E+03	3.065368E-02	6.192058E-04
5.285953E+03	3.102061E-02	6.248657E-04
5.295797E+03	3.136395E-02	6.300317E-04
5.305640E+03	3.169767E-02	6.349885E-04
5.315484E+03	3.203679E-02	6.400393E-04
5.325327E+03	3.239746E-02	6.455060E-04
5.335171E+03	3.279398E-02	6.516708E-04
5.345014E+03	3.323812E-02	6.587627E-04
5.354858E+03	3.373568E-02	6.668908E-04
5.364701E+03	3.428680E-02	6.760509E-04
5.374545E+03	3.488346E-02	6.860795E-04
5.384388E+03	3.551060E-02	6.966765E-04
5.394232E+03	3.614401E-02	7.073655E-04
5.404075E+03	3.675380E-02	7.175645E-04
5.413919E+03	3.730822E-02	7.266606E-04
5.423762E+03	3.777636E-02	7.340635E-04
5.433606E+03	3.813294E-02	7.392964E-04
5.443449E+03	3.836362E-02	7.420985E-04
5.453293E+03	3.847016E-02	7.425218E-04
5.463136E+03	3.846787E-02	7.408773E-04
5.472980E+03	3.838481E-02	7.377176E-04
5.482823E+03	3.825497E-02	7.337033E-04
5.492667E+03	3.811742E-02	7.295870E-04
5.502510E+03	3.800622E-02	7.260192E-04
5.512354E+03	3.794882E-02	7.235195E-04
5.522197E+03	3.796072E-02	7.223759E-04
5.532041E+03	3.804726E-02	7.226820E-04
5.541884E+03	3.819855E-02	7.242419E-04
5.551728E+03	3.839243E-02	7.266291E-04
5.561571E+03	3.860021E-02	7.292974E-04
5.571415E+03	3.878652E-02	7.315781E-04
5.581258E+03	3.891361E-02	7.327623E-04
5.591101E+03	3.894759E-02	7.322181E-04
5.600945E+03	3.886266E-02	7.294691E-04
5.610788E+03	3.864219E-02	7.242135E-04
5.620632E+03	3.828032E-02	7.163523E-04
5.630475E+03	3.778370E-02	7.060207E-04
5.640319E+03	3.717012E-02	6.935596E-04
5.650162E+03	3.646589E-02	6.794674E-04
5.660006E+03	3.570412E-02	6.643650E-04
5.669849E+03	3.492225E-02	6.489506E-04
5.679693E+03	3.415737E-02	6.339123E-04
5.689536E+03	3.344389E-02	6.198843E-04
5.699380E+03	3.281230E-02	6.074262E-04
5.709223E+03	3.228696E-02	5.969808E-04
5.719067E+03	3.188378E-02	5.888337E-04
5.728910E+03	3.161250E-02	5.831555E-04
5.738754E+03	3.147586E-02	5.799876E-04
5.748597E+03	3.146908E-02	5.792329E-04
5.758441E+03	3.158177E-02	5.806923E-04
5.768284E+03	3.179826E-02	5.840709E-04
5.778128E+03	3.209730E-02	5.889730E-04
5.787971E+03	3.245349E-02	5.949284E-04
5.797815E+03	3.283772E-02	6.014014E-04
5.807658E+03	3.321887E-02	6.078210E-04
5.817502E+03	3.356671E-02	6.136357E-04
5.827345E+03	3.385269E-02	6.183252E-04
5.837189E+03	3.405486E-02	6.214927E-04
5.847032E+03	3.415816E-02	6.228670E-04
5.856876E+03	3.415584E-02	6.223297E-04
5.866719E+03	3.405256E-02	6.199700E-04
5.876563E+03	3.386002E-02	6.160046E-04
5.886406E+03	3.359377E-02	6.107197E-04
5.896250E+03	3.327224E-02	6.044522E-04
5.906093E+03	3.291477E-02	5.975548E-04
5.915937E+03	3.253773E-02	5.903254E-04
5.925780E+03	3.215648E-02	5.830426E-04
5.935624E+03	3.178359E-02	5.759334E-04
5.945467E+03	3.142902E-02	5.691777E-04
5.955311E+03	3.110114E-02	5.629257E-04
5.965154E+03	3.080679E-02	5.573001E-04
5.974998E+03	3.055147E-02	5.523987E-04
5.984841E+03	3.034116E-02	5.483283E-04
5.994685E+03	3.017990E-02	5.451605E-04
6.004528E+03	3.007047E-02	5.429438E-04
6.014371E+03	3.001159E-02	5.416541E-04
6.024215E+03	2.999977E-02	5.412270E-04
6.034058E+03	3.002793E-02	5.415340E-04
6.043902E+03	3.008420E-02	5.423603E-04
6.053745E+03	3.015384E-02	5.434400E-04
6.063589E+03	3.021965E-02	5.444629E-04
6.073432E+03	3.026143E-02	5.450656E-04
6.083276E+03	3.025929E-02	5.448907E-04
6.093119E+03	3.019633E-02	5.436342E-04
6.102963E+03	3.006081E-02	5.410859E-04
6.112806E+03	2.984753E-02	5.371529E-04
6.122650E+03	2.956104E-02	5.319176E-04
6.132493E+03	2.921412E-02	5.256103E-04
6.142337E+03	2.882698E-02	5.185949E-04
6.152180E+03	2.842269E-02	5.112859E-04
6.162024E+03	2.802435E-02	5.040988E-04
6.171867E+03	2.765333E-02	4.974174E-04
6.181711E+03	2.732688E-02	4.915516E-04
6.191554E+03	2.705628E-02	4.867040E-04
6.201398E+03	2.684771E-02	4.829861E-04
6.211241E+03	2.670367E-02	4.804425E-04
6.221085E+03	2.662258E-02	4.790455E-04
6.230928E+03	2.660068E-02	4.787277E-04
6.240772E+03	2.663284E-02	4.793975E-04
6.250615E+03	2.671499E-02	4.809827E-04
6.260459E+03	2.684228E-02	4.833969E-04
6.270302E+03	2.700937E-02	4.865448E-04
6.280146E+03	2.720973E-02	4.903101E-04
6.289989E+03	2.743680E-02	4.945756E-04
6.299833E+03	2.768293E-02	4.992045E-04
6.309676E+03	2.794210E-02	5.040896E-04
6.319520E+03	2.820794E-02	5.091168E-04
6.329363E+03	2.847550E-02	5.141976E-04
6.339207E+03	2.874124E-02	5.192690E-04
6.349050E+03	2.900330E-02	5.242975E-04
6.358894E+03	2.925939E-02	5.292415E-04
6.368737E+03	2.950962E-02	5.341023E-04
6.378581E+03	2.975363E-02	5.388731E-04
6.388424E+03	2.999052E-02	5.435371E-04
6.398268E+03	3.021894E-02	5.480692E-04
6.408111E+03	3.043745E-02	5.524422E-04
6.417955E+03	3.064310E-02	5.566020E-04
6.427798E+03	3.083479E-02	5.605277E-04
6.437642E+03	3.101128E-02	5.641952E-04
6.447485E+03	3.117138E-02	5.675822E-04
6.457328E+03	3.131466E-02	5.706792E-04
6.467172E+03	3.144088E-02	5.734806E-04
6.477015E+03	3.154817E-02	5.759506E-04
6.486859E+03	3.163548E-02	5.780688E-04
6.496702E+03	3.170131E-02	5.798061E-04
6.506546E+03	3.174327E-02	5.811170E-04
6.516389E+03	3.175982E-02	5.819714E-04
6.526233E+03	3.175024E-02	5.823539E-04
6.536076E+03	3.171427E-02	5.822579E-04
6.545920E+03	3.165288E-02	5.816989E-04
6.555763E+03	3.156910E-02	5.807308E-04
6.565607E+03	3.146546E-02	5.793982E-04
6.575450E+03	3.134719E-02	5.777958E-04
6.585294E+03	3.121856E-02	5.760010E-04
6.595137E+03	3.108346E-02	5.740843E-04
6.604981E+03	3.094363E-02	5.720772E-04
6.614824E+03	3.080046E-02	5.700041E-04
6.624668E+03	3.065236E-02	5.678350E-04
6.634511E+03	3.049774E-02	5.655399E-04
6.644355E+03	3.033304E-02	5.630515E-04
6.654198E+03	3.015480E-02	5.603044E-04
6.664042E+03	2.995843E-02	5.572123E-04
6.673885E+03	2.974040E-02	5.537079E-04
6.683729E+03	2.949752E-02	5.497299E-04
6.693572E+03	2.922905E-02	5.452632E-04
6.703416E+03	2.893505E-02	5.403068E-04
6.713259E+03	2.861792E-02	5.349042E-04
6.723103E+03	2.828214E-02	5.291373E-04
6.732946E+03	2.793424E-02	5.231275E-04
6.742790E+03	2.758147E-02	5.170096E-04
6.752633E+03	2.723223E-02	5.109410E-04
6.762477E+03	2.689583E-02	5.050964E-04
6.772320E+03	2.657936E-02	4.996097E-04
6.782164E+03	2.629063E-02	4.946289E-04
6.792007E+03	2.603430E-02	4.902431E-04
6.801851E+03	2.581407E-02	4.865232E-04
6.811694E+03	2.563096E-02	4.834905E-04
6.821538E+03	2.548392E-02	4.811270E-04
6.831381E+03	2.537006E-02	4.793794E-04
6.841225E+03	2.528436E-02	4.781544E-04
6.851068E+03	2.522145E-02	4.773516E-04
6.860912E+03	2.517374E-02	4.768281E-04
6.870755E+03	2.513386E-02	4.764447E-04
6.880598E+03	2.509397E-02	4.760532E-04
6.890442E+03	2.504659E-02	4.755113E-04
6.900285E+03	2.498450E-02	4.746814E-04
6.910129E+03	2.490247E-02	4.734635E-04
6.919972E+03	2.479694E-02	4.717890E-04
6.929816E+03	2.466636E-02	4.696273E-04
6.939659E+03	2.451220E-02	4.670058E-04
6.949503E+03	2.433795E-02	4.639901E-04
6.959346E+03	2.414848E-02	4.606725E-04
6.969190E+03	2.395138E-02	4.571972E-04
6.979033E+03	2.375402E-02	4.537053E-04
6.988877E+03	2.356409E-02	4.503437E-04
6.998720E+03	2.338891E-02	4.472528E-04
7.008564E+03	2.323461E-02	4.445506E-04
7.018407E+03	2.310646E-02	4.423389E-04
7.028251E+03	2.300802E-02	4.406866E-04
7.038094E+03	2.294090E-02	4.396262E-04
7.047938E+03	2.290481E-02	4.391525E-04
7.057781E+03	2.289839E-02	4.392407E-04
7.067625E+03	2.291852E-02	4.398320E-04
7.077468E+03	2.296015E-02	4.408302E-04
7.087312E+03	2.301764E-02	4.421276E-04
7.097155E+03	2.308511E-02	4.436114E-04
7.106999E+03	2.315646E-02	4.451650E-04
7.116842E+03	2.322688E-02	4.466961E-04
7.126686E+03	2.329189E-02	4.481186E-04
7.136529E+03	2.334910E-02	4.493862E-04
7.146373E+03	2.339785E-02	4.504866E-04
7.156216E+03	2.343931E-02	4.514421E-04
7.166060E+03	2.347566E-02	4.522949E-04
7.175903E+03	2.351158E-02	4.531351E-04
7.185747E+03	2.355085E-02	4.540361E-04
7.195590E+03	2.359832E-02	4.550915E-04
7.205434E+03	2.365769E-02	4.563731E-04
7.215277E+03	2.373148E-02	4.579302E-04
7.225121E+03	2.382073E-02	4.597831E-04
7.234964E+03	2.392429E-02	4.619103E-04
7.244808E+03	2.403931E-02	4.642573E-04
7.254651E+03	2.416037E-02	4.667199E-04
7.264495E+03	2.428025E-02	4.691588E-04
7.274338E+03	2.439019E-02	4.714053E-04
7.284182E+03	2.448046E-02	4.732714E-04
7.294025E+03	2.454071E-02	4.745570E-04
7.303868E+03	2.455994E-02	4.750495E-04
7.313712E+03	2.452818E-02	4.745555E-04
7.323555E+03	2.443645E-02	4.729014E-04
7.333399E+03	2.427728E-02	4.699417E-04
7.343242E+03	2.404523E-02	4.655705E-04
7.353086E+03	2.373687E-02	4.597212E-04
7.362929E+03	2.335156E-02	4.523801E-04
7.372773E+03	2.289211E-02	4.436012E-04
7.382616E+03	2.236377E-02	4.334852E-04
7.392460E+03	2.177490E-02	4.221933E-04
7.402303E+03	2.113721E-02	4.099517E-04
7.412147E+03	2.046407E-02	3.970193E-04
7.421990E+03	1.977067E-02	3.836903E-04
7.431834E+03	1.907364E-02	3.702868E-04
7.441677E+03	1.838957E-02	3.571312E-04
7.451521E+03	1.773501E-02	3.445450E-04
7.461364E+03	1.712447E-02	3.328105E-04
7.471208E+03	1.657204E-02	3.222028E-04
7.481051E+03	1.608887E-02	3.129396E-04
7.490895E+03	1.568403E-02	3.051991E-04
7.500738E+03	1.536475E-02	2.991242E-04
7.510582E+03	1.513569E-02	2.948076E-04
7.520425E+03	1.499996E-02	2.923128E-04
7.530269E+03	1.495766E-02	2.916447E-04
7.540112E+03	1.500823E-02	2.927956E-04
7.549956E+03	1.514894E-02	2.957157E-04
7.559799E+03	1.537459E-02	3.003076E-04
7.569643E+03	1.567981E-02	3.064700E-04
7.579486E+03	1.605691E-02	3.140568E-04
7.589330E+03	1.649622E-02	3.228826E-04
7.599173E+03	1.698744E-02	3.327502E-04
7.609017E+03	1.751919E-02	3.434397E-04
7.618860E+03	1.807869E-02	3.547047E-04
7.628704E+03	1.865306E-02	3.662954E-04
7.638547E+03	1.922962E-02	3.779650E-04
