#wls	flux	fluxerr
1.574958E+03	2.467160E-04	8.171758E-06
1.614332E+03	2.484666E-04	8.226895E-06
1.653706E+03	2.503631E-04	8.286748E-06
1.693080E+03	2.523695E-04	8.350120E-06
1.732454E+03	2.544939E-04	8.417273E-06
1.771828E+03	2.568345E-04	8.491443E-06
1.811202E+03	2.592673E-04	8.568524E-06
1.850576E+03	2.618923E-04	8.651809E-06
1.889950E+03	2.647215E-04	8.741684E-06
1.929324E+03	2.677217E-04	8.837038E-06
1.968698E+03	2.709053E-04	8.938276E-06
2.008072E+03	2.743805E-04	9.048945E-06
2.047446E+03	2.780218E-04	9.164897E-06
2.086820E+03	2.819882E-04	9.291359E-06
2.126194E+03	2.861539E-04	9.424160E-06
2.165567E+03	2.906837E-04	9.568719E-06
2.204941E+03	2.955013E-04	9.722497E-06
2.244315E+03	3.006791E-04	9.887853E-06
2.283689E+03	3.061909E-04	1.006391E-05
2.323063E+03	3.121144E-04	1.025318E-05
2.362437E+03	3.184791E-04	1.045661E-05
2.401811E+03	3.253171E-04	1.067523E-05
2.441185E+03	3.326078E-04	1.090832E-05
2.480559E+03	3.404418E-04	1.115882E-05
2.519933E+03	3.488021E-04	1.142613E-05
2.559307E+03	3.577875E-04	1.171344E-05
2.598681E+03	3.674453E-04	1.202226E-05
2.638055E+03	3.778268E-04	1.235419E-05
2.677429E+03	3.889878E-04	1.271102E-05
2.716803E+03	4.009243E-04	1.309255E-05
2.756177E+03	4.137639E-04	1.350288E-05
2.795551E+03	4.275787E-04	1.394428E-05
2.834925E+03	4.423774E-04	1.441695E-05
2.874299E+03	4.583132E-04	1.492581E-05
2.913673E+03	4.754815E-04	1.547385E-05
2.953047E+03	4.939881E-04	1.606441E-05
2.962890E+03	4.988446E-04	1.621936E-05
2.972734E+03	5.037892E-04	1.637710E-05
2.982577E+03	5.088236E-04	1.653768E-05
2.992421E+03	5.139499E-04	1.670118E-05
3.002264E+03	5.191700E-04	1.686765E-05
3.012107E+03	5.244860E-04	1.703715E-05
3.021951E+03	5.298999E-04	1.720976E-05
3.031794E+03	5.354139E-04	1.738554E-05
3.041638E+03	5.410300E-04	1.756455E-05
3.051481E+03	5.467509E-04	1.774688E-05
3.061325E+03	5.525783E-04	1.793258E-05
3.071168E+03	5.586019E-04	1.812456E-05
3.081012E+03	5.646509E-04	1.831727E-05
3.090855E+03	5.708146E-04	1.851362E-05
3.100699E+03	5.771838E-04	1.871653E-05
3.110542E+03	5.835844E-04	1.892037E-05
3.120386E+03	5.901982E-04	1.913102E-05
3.130229E+03	5.968467E-04	1.934270E-05
3.140073E+03	6.037160E-04	1.956143E-05
3.149916E+03	6.107175E-04	1.978434E-05
3.159760E+03	6.177603E-04	2.000848E-05
3.169603E+03	6.250359E-04	2.024005E-05
3.179447E+03	6.324535E-04	2.047611E-05
3.189290E+03	6.399190E-04	2.071360E-05
3.199134E+03	6.476299E-04	2.095893E-05
3.208977E+03	6.554926E-04	2.120905E-05
3.218821E+03	6.635115E-04	2.146410E-05
3.228664E+03	6.716905E-04	2.172420E-05
3.238508E+03	6.800322E-04	2.198944E-05
3.248351E+03	6.885411E-04	2.225996E-05
3.258195E+03	6.972209E-04	2.253587E-05
3.268038E+03	7.060761E-04	2.281731E-05
3.277882E+03	7.152183E-04	2.310789E-05
3.287725E+03	7.244373E-04	2.340081E-05
3.297569E+03	7.338442E-04	2.369966E-05
3.307412E+03	7.434430E-04	2.400455E-05
3.317256E+03	7.533511E-04	2.431928E-05
3.327099E+03	7.633492E-04	2.463676E-05
3.336943E+03	7.735528E-04	2.496071E-05
3.346786E+03	7.840843E-04	2.529508E-05
3.356630E+03	7.947152E-04	2.563249E-05
3.366473E+03	8.056866E-04	2.598072E-05
3.376317E+03	8.167651E-04	2.633222E-05
3.386160E+03	8.281961E-04	2.669492E-05
3.396004E+03	8.397418E-04	2.706113E-05
3.405847E+03	8.516539E-04	2.743895E-05
3.415691E+03	8.638157E-04	2.782464E-05
3.425534E+03	8.761026E-04	2.821416E-05
3.435377E+03	8.887766E-04	2.861594E-05
3.445221E+03	9.017168E-04	2.902610E-05
3.455064E+03	9.147936E-04	2.944044E-05
3.464908E+03	9.282794E-04	2.986774E-05
3.474751E+03	9.420479E-04	3.030391E-05
3.484595E+03	9.561046E-04	3.074913E-05
3.494438E+03	9.704549E-04	3.120357E-05
3.504282E+03	9.851043E-04	3.166739E-05
3.514125E+03	1.000058E-03	3.214076E-05
3.523969E+03	1.015324E-03	3.262390E-05
3.533812E+03	1.030905E-03	3.311696E-05
3.543656E+03	1.046808E-03	3.362007E-05
3.553499E+03	1.063040E-03	3.413347E-05
3.563343E+03	1.079604E-03	3.465729E-05
3.573186E+03	1.096505E-03	3.519169E-05
3.583030E+03	1.113752E-03	3.573685E-05
3.592873E+03	1.131346E-03	3.629292E-05
3.602717E+03	1.149296E-03	3.686007E-05
3.612560E+03	1.167603E-03	3.743842E-05
3.622404E+03	1.186445E-03	3.803357E-05
3.632247E+03	1.205487E-03	3.863487E-05
3.642091E+03	1.224902E-03	3.924779E-05
3.651934E+03	1.244694E-03	3.987246E-05
3.661778E+03	1.264867E-03	4.050901E-05
3.671621E+03	1.285607E-03	4.116340E-05
3.681465E+03	1.306555E-03	4.182409E-05
3.691308E+03	1.327894E-03	4.249694E-05
3.701152E+03	1.349818E-03	4.318815E-05
3.710995E+03	1.371949E-03	4.388566E-05
3.720839E+03	1.394478E-03	4.459550E-05
3.730682E+03	1.417607E-03	4.532414E-05
3.740526E+03	1.440939E-03	4.605889E-05
3.750369E+03	1.464672E-03	4.680608E-05
3.760213E+03	1.489014E-03	4.757234E-05
3.770056E+03	1.513551E-03	4.834439E-05
3.779900E+03	1.538701E-03	4.913565E-05
3.789743E+03	1.564037E-03	4.993237E-05
3.799587E+03	1.589766E-03	5.074126E-05
3.809430E+03	1.616111E-03	5.156936E-05
3.819274E+03	1.642620E-03	5.240226E-05
3.829117E+03	1.669743E-03	5.325427E-05
3.838961E+03	1.697011E-03	5.411048E-05
3.848804E+03	1.724887E-03	5.498558E-05
3.858648E+03	1.752887E-03	5.586418E-05
3.868491E+03	1.781237E-03	5.675347E-05
3.878334E+03	1.810177E-03	5.766108E-05
3.888178E+03	1.839199E-03	5.857082E-05
3.898021E+03	1.868794E-03	5.949829E-05
3.907865E+03	1.898438E-03	6.042681E-05
3.917708E+03	1.928367E-03	6.136392E-05
3.927552E+03	1.958833E-03	6.231760E-05
3.937395E+03	1.989284E-03	6.327031E-05
3.947239E+03	2.020240E-03	6.423856E-05
3.957082E+03	2.051133E-03	6.520425E-05
3.966926E+03	2.082209E-03	6.617527E-05
3.976769E+03	2.113732E-03	6.715995E-05
3.986613E+03	2.145102E-03	6.813923E-05
3.996456E+03	2.176869E-03	6.913060E-05
4.006300E+03	2.208415E-03	7.011444E-05
4.016143E+03	2.240000E-03	7.109893E-05
4.025987E+03	2.271893E-03	7.209271E-05
4.035830E+03	2.303449E-03	7.307522E-05
4.045674E+03	2.334931E-03	7.405486E-05
4.055517E+03	2.366297E-03	7.503030E-05
4.065361E+03	2.397828E-03	7.601042E-05
4.075204E+03	2.428836E-03	7.697344E-05
4.085048E+03	2.459593E-03	7.792799E-05
4.094891E+03	2.490050E-03	7.887251E-05
4.104735E+03	2.520493E-03	7.981608E-05
4.114578E+03	2.550200E-03	8.073582E-05
4.124422E+03	2.579450E-03	8.164060E-05
4.134265E+03	2.608187E-03	8.252866E-05
4.144109E+03	2.636355E-03	8.339826E-05
4.153952E+03	2.663898E-03	8.424760E-05
4.163796E+03	2.690758E-03	8.507487E-05
4.173639E+03	2.716877E-03	8.587825E-05
4.183483E+03	2.742195E-03	8.665592E-05
4.193326E+03	2.766657E-03	8.740612E-05
4.203170E+03	2.790206E-03	8.812705E-05
4.213013E+03	2.812785E-03	8.881699E-05
4.222857E+03	2.834342E-03	8.947427E-05
4.232700E+03	2.854825E-03	9.009729E-05
4.242544E+03	2.873807E-03	9.067264E-05
4.252387E+03	2.891996E-03	9.122267E-05
4.262231E+03	2.908976E-03	9.173423E-05
4.272074E+03	2.924708E-03	9.220622E-05
4.281918E+03	2.938778E-03	9.262554E-05
4.291761E+03	2.951924E-03	9.301554E-05
4.301604E+03	2.963359E-03	9.335141E-05
4.311448E+03	2.973839E-03	9.365704E-05
4.321291E+03	2.982974E-03	9.392016E-05
4.331135E+03	2.990378E-03	9.412867E-05
4.340978E+03	2.996450E-03	9.429514E-05
4.350822E+03	3.001596E-03	9.443240E-05
4.360665E+03	3.005066E-03	9.451687E-05
4.370509E+03	3.007669E-03	9.457404E-05
4.380352E+03	3.008666E-03	9.458072E-05
4.390196E+03	3.008489E-03	9.455050E-05
4.400039E+03	3.007187E-03	9.448493E-05
4.409883E+03	3.004812E-03	9.438571E-05
4.419726E+03	3.001421E-03	9.425464E-05
4.429570E+03	2.997457E-03	9.410566E-05
4.439413E+03	2.992212E-03	9.391655E-05
4.449257E+03	2.985755E-03	9.368949E-05
4.459100E+03	2.978915E-03	9.345056E-05
4.468944E+03	2.971376E-03	9.318982E-05
4.478787E+03	2.963206E-03	9.290944E-05
4.488631E+03	2.954472E-03	9.261154E-05
4.498474E+03	2.945244E-03	9.229828E-05
4.508318E+03	2.935213E-03	9.196006E-05
4.518161E+03	2.925196E-03	9.162244E-05
4.528005E+03	2.914515E-03	9.126419E-05
4.537848E+03	2.903974E-03	9.091052E-05
4.547692E+03	2.892899E-03	9.054033E-05
4.557535E+03	2.882088E-03	9.017857E-05
4.567379E+03	2.870870E-03	8.980426E-05
4.577222E+03	2.859669E-03	8.943071E-05
4.587066E+03	2.848543E-03	8.905966E-05
4.596909E+03	2.837903E-03	8.870401E-05
4.606753E+03	2.827088E-03	8.834305E-05
4.616596E+03	2.816506E-03	8.798957E-05
4.626440E+03	2.806207E-03	8.764511E-05
4.636283E+03	2.796237E-03	8.731111E-05
4.646127E+03	2.786643E-03	8.698900E-05
4.655970E+03	2.777120E-03	8.666929E-05
4.665814E+03	2.768407E-03	8.637497E-05
4.675657E+03	2.760193E-03	8.609639E-05
4.685501E+03	2.752173E-03	8.582401E-05
4.695344E+03	2.745071E-03	8.558039E-05
4.705188E+03	2.738578E-03	8.535585E-05
4.715031E+03	2.732385E-03	8.514078E-05
4.724874E+03	2.726866E-03	8.494683E-05
4.734718E+03	2.722390E-03	8.478542E-05
4.744561E+03	2.718306E-03	8.463633E-05
4.754405E+03	2.714981E-03	8.451094E-05
4.764248E+03	2.712440E-03	8.440999E-05
4.774092E+03	2.710707E-03	8.433424E-05
4.783935E+03	2.709806E-03	8.428439E-05
4.793779E+03	2.709757E-03	8.426108E-05
4.803622E+03	2.710582E-03	8.426492E-05
4.813466E+03	2.712300E-03	8.429652E-05
4.823309E+03	2.714929E-03	8.435643E-05
4.833153E+03	2.718153E-03	8.443475E-05
4.842996E+03	2.722655E-03	8.455276E-05
4.852840E+03	2.728119E-03	8.470053E-05
4.862683E+03	2.734220E-03	8.486803E-05
4.872527E+03	2.741308E-03	8.506606E-05
4.882370E+03	2.749731E-03	8.530538E-05
4.892214E+03	2.758826E-03	8.556544E-05
4.902057E+03	2.768939E-03	8.585694E-05
4.911901E+03	2.780078E-03	8.618006E-05
4.921744E+03	2.792249E-03	8.653504E-05
4.931588E+03	2.805801E-03	8.693261E-05
4.941431E+03	2.819711E-03	8.734104E-05
4.951275E+03	2.835008E-03	8.779222E-05
4.961118E+03	2.851349E-03	8.827553E-05
4.970962E+03	2.868736E-03	8.879095E-05
4.980805E+03	2.887165E-03	8.933833E-05
4.990649E+03	2.906277E-03	8.990657E-05
5.000492E+03	2.926770E-03	9.051725E-05
5.010336E+03	2.947926E-03	9.114812E-05
5.020179E+03	2.970086E-03	9.180970E-05
5.030023E+03	2.993599E-03	9.251275E-05
5.039866E+03	3.017723E-03	9.323435E-05
5.049710E+03	3.042798E-03	9.398496E-05
5.059553E+03	3.068802E-03	9.476386E-05
5.069397E+03	3.095707E-03	9.557020E-05
5.079240E+03	3.123482E-03	9.640298E-05
5.089084E+03	3.152094E-03	9.726119E-05
5.098927E+03	3.181504E-03	9.814359E-05
5.108771E+03	3.211670E-03	9.904889E-05
5.118614E+03	3.242547E-03	9.997563E-05
5.128458E+03	3.273689E-03	1.009101E-04
5.138301E+03	3.305827E-03	1.018748E-04
5.148145E+03	3.338108E-03	1.028435E-04
5.157988E+03	3.371269E-03	1.038387E-04
5.167831E+03	3.404433E-03	1.048336E-04
5.177675E+03	3.437928E-03	1.058382E-04
5.187518E+03	3.472094E-03	1.068630E-04
5.197362E+03	3.506019E-03	1.078799E-04
5.207205E+03	3.540028E-03	1.088988E-04
5.217049E+03	3.574030E-03	1.099171E-04
5.226892E+03	3.607931E-03	1.109318E-04
5.236736E+03	3.641634E-03	1.119399E-04
5.246579E+03	3.675034E-03	1.129383E-04
5.256423E+03	3.707586E-03	1.139101E-04
5.266266E+03	3.740067E-03	1.148793E-04
5.276110E+03	3.771929E-03	1.158291E-04
5.285953E+03	3.802609E-03	1.167422E-04
5.295797E+03	3.832904E-03	1.176430E-04
5.305640E+03	3.861793E-03	1.185003E-04
5.315484E+03	3.890092E-03	1.193391E-04
5.325327E+03	3.916770E-03	1.201278E-04
5.335171E+03	3.942191E-03	1.208777E-04
5.345014E+03	3.966260E-03	1.215858E-04
5.354858E+03	3.989366E-03	1.222642E-04
5.364701E+03	4.010479E-03	1.228812E-04
5.374545E+03	4.030002E-03	1.234492E-04
5.384388E+03	4.047389E-03	1.239516E-04
5.394232E+03	4.063554E-03	1.244165E-04
5.404075E+03	4.077978E-03	1.248279E-04
5.413919E+03	4.090639E-03	1.251852E-04
5.423762E+03	4.101526E-03	1.254882E-04
5.433606E+03	4.110158E-03	1.257222E-04
5.443449E+03	4.117530E-03	1.259175E-04
5.453293E+03	4.122695E-03	1.260454E-04
5.463136E+03	4.126675E-03	1.261371E-04
5.472980E+03	4.128543E-03	1.261644E-04
5.482823E+03	4.128851E-03	1.261440E-04
5.492667E+03	4.128160E-03	1.260932E-04
5.502510E+03	4.125568E-03	1.259845E-04
5.512354E+03	4.121647E-03	1.258354E-04
5.522197E+03	4.116487E-03	1.256485E-04
5.532041E+03	4.110182E-03	1.254270E-04
5.541884E+03	4.102829E-03	1.251736E-04
5.551728E+03	4.094525E-03	1.248914E-04
5.561571E+03	4.085373E-03	1.245836E-04
5.571415E+03	4.074990E-03	1.242385E-04
5.581258E+03	4.064447E-03	1.238888E-04
5.591101E+03	4.053359E-03	1.235227E-04
5.600945E+03	4.041348E-03	1.231287E-04
5.610788E+03	4.029473E-03	1.227391E-04
5.620632E+03	4.016874E-03	1.223278E-04
5.630475E+03	4.004598E-03	1.219266E-04
5.640319E+03	3.991789E-03	1.215093E-04
5.650162E+03	3.979480E-03	1.211076E-04
5.660006E+03	3.966815E-03	1.206953E-04
5.669849E+03	3.954348E-03	1.202893E-04
5.679693E+03	3.942158E-03	1.198920E-04
5.689536E+03	3.930319E-03	1.195057E-04
5.699380E+03	3.918905E-03	1.191325E-04
5.709223E+03	3.908443E-03	1.187885E-04
5.719067E+03	3.897614E-03	1.184335E-04
5.728910E+03	3.887862E-03	1.181116E-04
5.738754E+03	3.878782E-03	1.178103E-04
5.748597E+03	3.870429E-03	1.175312E-04
5.758441E+03	3.862851E-03	1.172759E-04
5.768284E+03	3.856096E-03	1.170458E-04
5.778128E+03	3.849750E-03	1.168283E-04
5.787971E+03	3.844765E-03	1.166523E-04
5.797815E+03	3.840267E-03	1.164912E-04
5.807658E+03	3.837198E-03	1.163735E-04
5.817502E+03	3.834681E-03	1.162728E-04
5.827345E+03	3.833651E-03	1.162173E-04
5.837189E+03	3.833227E-03	1.161803E-04
5.847032E+03	3.834336E-03	1.161898E-04
5.856876E+03	3.836091E-03	1.162191E-04
5.866719E+03	3.838965E-03	1.162822E-04
5.876563E+03	3.842968E-03	1.163797E-04
5.886406E+03	3.848116E-03	1.165118E-04
5.896250E+03	3.854871E-03	1.166927E-04
5.906093E+03	3.862332E-03	1.168950E-04
5.915937E+03	3.870957E-03	1.171325E-04
5.925780E+03	3.880751E-03	1.174054E-04
5.935624E+03	3.891712E-03	1.177136E-04
5.945467E+03	3.903838E-03	1.180570E-04
5.955311E+03	3.916662E-03	1.184215E-04
5.965154E+03	3.931101E-03	1.188348E-04
5.974998E+03	3.946684E-03	1.192826E-04
5.984841E+03	3.963399E-03	1.197646E-04
5.994685E+03	3.980762E-03	1.202660E-04
6.004528E+03	3.999692E-03	1.208148E-04
6.014371E+03	4.019702E-03	1.213961E-04
6.024215E+03	4.040292E-03	1.219948E-04
6.034058E+03	4.062388E-03	1.226388E-04
6.043902E+03	4.085003E-03	1.232984E-04
6.053745E+03	4.109067E-03	1.240017E-04
6.063589E+03	4.133577E-03	1.247183E-04
6.073432E+03	4.159467E-03	1.254764E-04
6.083276E+03	4.185715E-03	1.262451E-04
6.093119E+03	4.212762E-03	1.270378E-04
6.102963E+03	4.241061E-03	1.278682E-04
6.112806E+03	4.269557E-03	1.287043E-04
6.122650E+03	4.298692E-03	1.295596E-04
6.132493E+03	4.328403E-03	1.304320E-04
6.142337E+03	4.358623E-03	1.313197E-04
6.152180E+03	4.389285E-03	1.322206E-04
6.162024E+03	4.420312E-03	1.331323E-04
6.171867E+03	4.452154E-03	1.340684E-04
6.181711E+03	4.483679E-03	1.349949E-04
6.191554E+03	4.514789E-03	1.359087E-04
6.201398E+03	4.546460E-03	1.368393E-04
6.211241E+03	4.578066E-03	1.377679E-04
6.221085E+03	4.609510E-03	1.386915E-04
6.230928E+03	4.640692E-03	1.396071E-04
6.240772E+03	4.671508E-03	1.405116E-04
6.250615E+03	4.701851E-03	1.414018E-04
6.260459E+03	4.731052E-03	1.422576E-04
6.270302E+03	4.760117E-03	1.431093E-04
6.280146E+03	4.788380E-03	1.439369E-04
6.289989E+03	4.815155E-03	1.447197E-04
6.299833E+03	4.841469E-03	1.454887E-04
6.309676E+03	4.866643E-03	1.462235E-04
6.319520E+03	4.889986E-03	1.469033E-04
6.329363E+03	4.912549E-03	1.475597E-04
6.339207E+03	4.933063E-03	1.481547E-04
6.349050E+03	4.952597E-03	1.487203E-04
6.358894E+03	4.969884E-03	1.492186E-04
6.368737E+03	4.986012E-03	1.496823E-04
6.378581E+03	4.999720E-03	1.500735E-04
6.388424E+03	5.011527E-03	1.504078E-04
6.398268E+03	5.021966E-03	1.507013E-04
6.408111E+03	5.029798E-03	1.509167E-04
6.417955E+03	5.035577E-03	1.510709E-04
6.427798E+03	5.039880E-03	1.511811E-04
6.437642E+03	5.041502E-03	1.512111E-04
6.447485E+03	5.041048E-03	1.511792E-04
6.457328E+03	5.038541E-03	1.510861E-04
6.467172E+03	5.034018E-03	1.509328E-04
6.477015E+03	5.028122E-03	1.507387E-04
6.486859E+03	5.019716E-03	1.504697E-04
6.496702E+03	5.009463E-03	1.501458E-04
6.506546E+03	4.997440E-03	1.497691E-04
6.516389E+03	4.983728E-03	1.493423E-04
6.526233E+03	4.968414E-03	1.488678E-04
6.536076E+03	4.951591E-03	1.483485E-04
6.545920E+03	4.933355E-03	1.477872E-04
6.555763E+03	4.913804E-03	1.471870E-04
6.565607E+03	4.893039E-03	1.465508E-04
6.575450E+03	4.871163E-03	1.458818E-04
6.585294E+03	4.847698E-03	1.451655E-04
6.595137E+03	4.823905E-03	1.444399E-04
6.604981E+03	4.799305E-03	1.436905E-04
6.614824E+03	4.773997E-03	1.429203E-04
6.624668E+03	4.748078E-03	1.421322E-04
6.634511E+03	4.721078E-03	1.413122E-04
6.644355E+03	4.694221E-03	1.404968E-04
6.654198E+03	4.667028E-03	1.396718E-04
6.664042E+03	4.639585E-03	1.388397E-04
6.673885E+03	4.611424E-03	1.379865E-04
6.683729E+03	4.583728E-03	1.371476E-04
6.693572E+03	4.555473E-03	1.362923E-04
6.703416E+03	4.527823E-03	1.354555E-04
6.713259E+03	4.500297E-03	1.346227E-04
6.723103E+03	4.472422E-03	1.337799E-04
6.732946E+03	4.445332E-03	1.329610E-04
6.742790E+03	4.418015E-03	1.321356E-04
6.752633E+03	4.391585E-03	1.313370E-04
6.762477E+03	4.365034E-03	1.305352E-04
6.772320E+03	4.338936E-03	1.297472E-04
6.782164E+03	4.313850E-03	1.289898E-04
6.792007E+03	4.288776E-03	1.282331E-04
6.801851E+03	4.264781E-03	1.275090E-04
6.811694E+03	4.240869E-03	1.267876E-04
6.821538E+03	4.217584E-03	1.260853E-04
6.831381E+03	4.195456E-03	1.254179E-04
6.841225E+03	4.173496E-03	1.247558E-04
6.851068E+03	4.152233E-03	1.241148E-04
6.860912E+03	4.131683E-03	1.234954E-04
6.870755E+03	4.112358E-03	1.229128E-04
6.880598E+03	4.093278E-03	1.223379E-04
6.890442E+03	4.074952E-03	1.217858E-04
6.900285E+03	4.057389E-03	1.212567E-04
6.910129E+03	4.040597E-03	1.207510E-04
6.919972E+03	4.024581E-03	1.202686E-04
6.929816E+03	4.009344E-03	1.198099E-04
6.939659E+03	3.994891E-03	1.193747E-04
6.949503E+03	3.981220E-03	1.189632E-04
6.959346E+03	3.968332E-03	1.185754E-04
6.969190E+03	3.956225E-03	1.182110E-04
6.979033E+03	3.944897E-03	1.178702E-04
6.988877E+03	3.934341E-03	1.175528E-04
6.998720E+03	3.924555E-03	1.172585E-04
7.008564E+03	3.915531E-03	1.169873E-04
7.018407E+03	3.907263E-03	1.167388E-04
7.028251E+03	3.899742E-03	1.165130E-04
7.038094E+03	3.892489E-03	1.162953E-04
7.047938E+03	3.886436E-03	1.161138E-04
7.057781E+03	3.881102E-03	1.159539E-04
7.067625E+03	3.876477E-03	1.158154E-04
7.077468E+03	3.872078E-03	1.156840E-04
7.087312E+03	3.868834E-03	1.155873E-04
7.097155E+03	3.866262E-03	1.155109E-04
7.106999E+03	3.863880E-03	1.154404E-04
7.116842E+03	3.862612E-03	1.154034E-04
7.126686E+03	3.861977E-03	1.153855E-04
7.136529E+03	3.861489E-03	1.153723E-04
7.146373E+03	3.862073E-03	1.153914E-04
7.156216E+03	3.862775E-03	1.154142E-04
7.166060E+03	3.864520E-03	1.154685E-04
7.175903E+03	3.866350E-03	1.155255E-04
7.185747E+03	3.869191E-03	1.156130E-04
7.195590E+03	3.872087E-03	1.157024E-04
7.205434E+03	3.875961E-03	1.158213E-04
7.215277E+03	3.879854E-03	1.159410E-04
7.225121E+03	3.884221E-03	1.160751E-04
7.234964E+03	3.889519E-03	1.162374E-04
7.244808E+03	3.894781E-03	1.163988E-04
7.254651E+03	3.900464E-03	1.165731E-04
7.264495E+03	3.906550E-03	1.167597E-04
7.274338E+03	3.913499E-03	1.169724E-04
7.284182E+03	3.920335E-03	1.171821E-04
7.294025E+03	3.927518E-03	1.174024E-04
7.303868E+03	3.935028E-03	1.176328E-04
7.313712E+03	3.942844E-03	1.178726E-04
7.323555E+03	3.950948E-03	1.181214E-04
7.333399E+03	3.959316E-03	1.183784E-04
7.343242E+03	3.967930E-03	1.186431E-04
7.353086E+03	3.976766E-03	1.189147E-04
7.362929E+03	3.985801E-03	1.191927E-04
7.372773E+03	3.995014E-03	1.194763E-04
7.382616E+03	4.004378E-03	1.197648E-04
7.392460E+03	4.013871E-03	1.200575E-04
7.402303E+03	4.023466E-03	1.203536E-04
7.412147E+03	4.033136E-03	1.206524E-04
7.421990E+03	4.042357E-03	1.209380E-04
7.431834E+03	4.052093E-03	1.212395E-04
7.441677E+03	4.061819E-03	1.215411E-04
7.451521E+03	4.071504E-03	1.218418E-04
7.461364E+03	4.080611E-03	1.221257E-04
7.471208E+03	4.090114E-03	1.224218E-04
7.481051E+03	4.099475E-03	1.227141E-04
7.490895E+03	4.108151E-03	1.229862E-04
7.500738E+03	4.117118E-03	1.232676E-04
7.510582E+03	4.125320E-03	1.235264E-04
7.520425E+03	4.133737E-03	1.237921E-04
7.530269E+03	4.141303E-03	1.240328E-04
7.540112E+03	4.149001E-03	1.242779E-04
7.549956E+03	4.155758E-03	1.244952E-04
7.559799E+03	4.162041E-03	1.246988E-04
7.569643E+03	4.168319E-03	1.249026E-04
7.579486E+03	4.173510E-03	1.250744E-04
7.589330E+03	4.178079E-03	1.252280E-04
7.599173E+03	4.182494E-03	1.253774E-04
7.609017E+03	4.185664E-03	1.254899E-04
7.618860E+03	4.188053E-03	1.255795E-04
7.628704E+03	4.189607E-03	1.256445E-04
7.638547E+03	4.190270E-03	1.256833E-04
