#wls	flux	fluxerr
1.574958E+03	1.114060E-04	6.442407E-06
1.614332E+03	1.122341E-04	6.487144E-06
1.653706E+03	1.131366E-04	6.536056E-06
1.693080E+03	1.140767E-04	6.587008E-06
1.732454E+03	1.150993E-04	6.642577E-06
1.771828E+03	1.161675E-04	6.700627E-06
1.811202E+03	1.173273E-04	6.763805E-06
1.850576E+03	1.185631E-04	6.831198E-06
1.889950E+03	1.198802E-04	6.903099E-06
1.929324E+03	1.212626E-04	6.978573E-06
1.968698E+03	1.227598E-04	7.060458E-06
2.008072E+03	1.243570E-04	7.147882E-06
2.047446E+03	1.260614E-04	7.241241E-06
2.086820E+03	1.278807E-04	7.340970E-06
2.126194E+03	1.298235E-04	7.447534E-06
2.165567E+03	1.318989E-04	7.561435E-06
2.204941E+03	1.341169E-04	7.683219E-06
2.244315E+03	1.365125E-04	7.814879E-06
2.283689E+03	1.390491E-04	7.954277E-06
2.323063E+03	1.417634E-04	8.103493E-06
2.362437E+03	1.446693E-04	8.263285E-06
2.401811E+03	1.478083E-04	8.435982E-06
2.441185E+03	1.511445E-04	8.619505E-06
2.480559E+03	1.547493E-04	8.817886E-06
2.519933E+03	1.585881E-04	9.029090E-06
2.559307E+03	1.627381E-04	9.257476E-06
2.598681E+03	1.671656E-04	9.501070E-06
2.638055E+03	1.719556E-04	9.764632E-06
2.677429E+03	1.771074E-04	1.004806E-05
2.716803E+03	1.826198E-04	1.035121E-05
2.756177E+03	1.885912E-04	1.067959E-05
2.795551E+03	1.950280E-04	1.103345E-05
2.834925E+03	2.019715E-04	1.141504E-05
2.874299E+03	2.094677E-04	1.182684E-05
2.913673E+03	2.175666E-04	1.227157E-05
2.953047E+03	2.263236E-04	1.275221E-05
2.962890E+03	2.285922E-04	1.287664E-05
2.972734E+03	2.309471E-04	1.300584E-05
2.982577E+03	2.333491E-04	1.313762E-05
2.992421E+03	2.357574E-04	1.326966E-05
3.002264E+03	2.382565E-04	1.340672E-05
3.012107E+03	2.408058E-04	1.354652E-05
3.021951E+03	2.434067E-04	1.368912E-05
3.031794E+03	2.460601E-04	1.383459E-05
3.041638E+03	2.487234E-04	1.398050E-05
3.051481E+03	2.514853E-04	1.413186E-05
3.061325E+03	2.543034E-04	1.428628E-05
3.071168E+03	2.571791E-04	1.444383E-05
3.081012E+03	2.600676E-04	1.460199E-05
3.090855E+03	2.630617E-04	1.476598E-05
3.100699E+03	2.661174E-04	1.493330E-05
3.110542E+03	2.692359E-04	1.510404E-05
3.120386E+03	2.723705E-04	1.527556E-05
3.130229E+03	2.756185E-04	1.545332E-05
3.140073E+03	2.789336E-04	1.563472E-05
3.149916E+03	2.823174E-04	1.581985E-05
3.159760E+03	2.857715E-04	1.600879E-05
3.169603E+03	2.892461E-04	1.619874E-05
3.179447E+03	2.928447E-04	1.639551E-05
3.189290E+03	2.965182E-04	1.659633E-05
3.199134E+03	3.002684E-04	1.680131E-05
3.208977E+03	3.040432E-04	1.700752E-05
3.218821E+03	3.079511E-04	1.722102E-05
3.228664E+03	3.119408E-04	1.743895E-05
3.238508E+03	3.160141E-04	1.766140E-05
3.248351E+03	3.201728E-04	1.788847E-05
3.258195E+03	3.243613E-04	1.811705E-05
3.268038E+03	3.286957E-04	1.835360E-05
3.277882E+03	3.331210E-04	1.859506E-05
3.287725E+03	3.376393E-04	1.884154E-05
3.297569E+03	3.422525E-04	1.909314E-05
3.307412E+03	3.469014E-04	1.934656E-05
3.317256E+03	3.517097E-04	1.960868E-05
3.327099E+03	3.566190E-04	1.987624E-05
3.336943E+03	3.616314E-04	2.014935E-05
3.346786E+03	3.667491E-04	2.042813E-05
3.356630E+03	3.719085E-04	2.070904E-05
3.366473E+03	3.772421E-04	2.099944E-05
3.376317E+03	3.826874E-04	2.129584E-05
3.386160E+03	3.882467E-04	2.159837E-05
3.396004E+03	3.939221E-04	2.190714E-05
3.405847E+03	3.996454E-04	2.221835E-05
3.415691E+03	4.055589E-04	2.253990E-05
3.425534E+03	4.115953E-04	2.286804E-05
3.435377E+03	4.177569E-04	2.320290E-05
3.445221E+03	4.240461E-04	2.354460E-05
3.455064E+03	4.303892E-04	2.388904E-05
3.464908E+03	4.369393E-04	2.424470E-05
3.474751E+03	4.436239E-04	2.460757E-05
3.484595E+03	4.504453E-04	2.497775E-05
3.494438E+03	4.574058E-04	2.535537E-05
3.504282E+03	4.645078E-04	2.574054E-05
3.514125E+03	4.716705E-04	2.612880E-05
3.523969E+03	4.790609E-04	2.652937E-05
3.533812E+03	4.865996E-04	2.693785E-05
3.543656E+03	4.942888E-04	2.735436E-05
3.553499E+03	5.021307E-04	2.777900E-05
3.563343E+03	5.100377E-04	2.820692E-05
3.573186E+03	5.181901E-04	2.864808E-05
3.583030E+03	5.265013E-04	2.909768E-05
3.592873E+03	5.349739E-04	2.955587E-05
3.602717E+03	5.436096E-04	3.002271E-05
3.612560E+03	5.524105E-04	3.049831E-05
3.622404E+03	5.612791E-04	3.097729E-05
3.632247E+03	5.704133E-04	3.147055E-05
3.642091E+03	5.797179E-04	3.197283E-05
3.651934E+03	5.891943E-04	3.248421E-05
3.661778E+03	5.988436E-04	3.300472E-05
3.671621E+03	6.085609E-04	3.352857E-05
3.681465E+03	6.185588E-04	3.406746E-05
3.691308E+03	6.287337E-04	3.461570E-05
3.701152E+03	6.390864E-04	3.517328E-05
3.710995E+03	6.496177E-04	3.574026E-05
3.720839E+03	6.602120E-04	3.631027E-05
3.730682E+03	6.711003E-04	3.689599E-05
3.740526E+03	6.821680E-04	3.749111E-05
3.750369E+03	6.934160E-04	3.809567E-05
3.760213E+03	7.048439E-04	3.870964E-05
3.770056E+03	7.164511E-04	3.933298E-05
3.779900E+03	7.281092E-04	3.995861E-05
3.789743E+03	7.400708E-04	4.060040E-05
3.799587E+03	7.522098E-04	4.125141E-05
3.809430E+03	7.645238E-04	4.191149E-05
3.819274E+03	7.770117E-04	4.258058E-05
3.829117E+03	7.895336E-04	4.325101E-05
3.838961E+03	8.023607E-04	4.393761E-05
3.848804E+03	8.153552E-04	4.463283E-05
3.858648E+03	8.285135E-04	4.533646E-05
3.868491E+03	8.418330E-04	4.604834E-05
3.878334E+03	8.551596E-04	4.676004E-05
3.888178E+03	8.687869E-04	4.748761E-05
3.898021E+03	8.825634E-04	4.822273E-05
3.907865E+03	8.964843E-04	4.896516E-05
3.917708E+03	9.105436E-04	4.971455E-05
3.927552E+03	9.245746E-04	5.046178E-05
3.937395E+03	9.388928E-04	5.122408E-05
3.947239E+03	9.533320E-04	5.199237E-05
3.957082E+03	9.678851E-04	5.276624E-05
3.966926E+03	9.825449E-04	5.354529E-05
3.976769E+03	9.971300E-04	5.431964E-05
3.986613E+03	1.011977E-03	5.510764E-05
3.996456E+03	1.026907E-03	5.589950E-05
4.006300E+03	1.041910E-03	5.669468E-05
4.016143E+03	1.056791E-03	5.748258E-05
4.025987E+03	1.071908E-03	5.828268E-05
4.035830E+03	1.087068E-03	5.908443E-05
4.045674E+03	1.102259E-03	5.988725E-05
4.055517E+03	1.117471E-03	6.069053E-05
4.065361E+03	1.132493E-03	6.148282E-05
4.075204E+03	1.147707E-03	6.228486E-05
4.085048E+03	1.162902E-03	6.308529E-05
4.094891E+03	1.178068E-03	6.388343E-05
4.104735E+03	1.192981E-03	6.466720E-05
4.114578E+03	1.208041E-03	6.545832E-05
4.124422E+03	1.223029E-03	6.624483E-05
4.134265E+03	1.237928E-03	6.702590E-05
4.144109E+03	1.252505E-03	6.778891E-05
4.153952E+03	1.267179E-03	6.855652E-05
4.163796E+03	1.281716E-03	6.931614E-05
4.173639E+03	1.296102E-03	7.006691E-05
4.183483E+03	1.310091E-03	7.079561E-05
4.193326E+03	1.324120E-03	7.152586E-05
4.203170E+03	1.337945E-03	7.224455E-05
4.213013E+03	1.351550E-03	7.295073E-05
4.222857E+03	1.364679E-03	7.363063E-05
4.232700E+03	1.377788E-03	7.430888E-05
4.242544E+03	1.390623E-03	7.497183E-05
4.252387E+03	1.403167E-03	7.561856E-05
4.262231E+03	1.415157E-03	7.623489E-05
4.272074E+03	1.427067E-03	7.684639E-05
4.281918E+03	1.438636E-03	7.743901E-05
4.291761E+03	1.449848E-03	7.801201E-05
4.301604E+03	1.460436E-03	7.855091E-05
4.311448E+03	1.470893E-03	7.908235E-05
4.321291E+03	1.480957E-03	7.959221E-05
4.331135E+03	1.490362E-03	8.006627E-05
4.340978E+03	1.499623E-03	8.053216E-05
4.350822E+03	1.508481E-03	8.097609E-05
4.360665E+03	1.516939E-03	8.139817E-05
4.370509E+03	1.524735E-03	8.178441E-05
4.380352E+03	1.532403E-03	8.216345E-05
4.390196E+03	1.539686E-03	8.252155E-05
4.400039E+03	1.546321E-03	8.284466E-05
4.409883E+03	1.552853E-03	8.316199E-05
4.419726E+03	1.559023E-03	8.345972E-05
4.429570E+03	1.564568E-03	8.372374E-05
4.439413E+03	1.570043E-03	8.398375E-05
4.449257E+03	1.575184E-03	8.422576E-05
4.459100E+03	1.579730E-03	8.443574E-05
4.468944E+03	1.584240E-03	8.464358E-05
4.478787E+03	1.588450E-03	8.483527E-05
4.488631E+03	1.592097E-03	8.499672E-05
4.498474E+03	1.595745E-03	8.515806E-05
4.508318E+03	1.599130E-03	8.530526E-05
4.518161E+03	1.601986E-03	8.542411E-05
4.528005E+03	1.604881E-03	8.554497E-05
4.537848E+03	1.607551E-03	8.565366E-05
4.547692E+03	1.609727E-03	8.573601E-05
4.557535E+03	1.611982E-03	8.582244E-05
4.567379E+03	1.614049E-03	8.589878E-05
4.577222E+03	1.615659E-03	8.595073E-05
4.587066E+03	1.617385E-03	8.600883E-05
4.596909E+03	1.618680E-03	8.604392E-05
4.606753E+03	1.620116E-03	8.608644E-05
4.616596E+03	1.621425E-03	8.612218E-05
4.626440E+03	1.622337E-03	8.613680E-05
4.636283E+03	1.623426E-03	8.616079E-05
4.646127E+03	1.624424E-03	8.617986E-05
4.655970E+03	1.625058E-03	8.617964E-05
4.665814E+03	1.625904E-03	8.619062E-05
4.675657E+03	1.626408E-03	8.618346E-05
4.685501E+03	1.627145E-03	8.618862E-05
4.695344E+03	1.627843E-03	8.619168E-05
4.705188E+03	1.628229E-03	8.617823E-05
4.715031E+03	1.628878E-03	8.617867E-05
4.724874E+03	1.629234E-03	8.616359E-05
4.734718E+03	1.629870E-03	8.616333E-05
4.744561E+03	1.630231E-03	8.614851E-05
4.754405E+03	1.630890E-03	8.614937E-05
4.764248E+03	1.631570E-03	8.615138E-05
4.774092E+03	1.631999E-03	8.614008E-05
4.783935E+03	1.632747E-03	8.614563E-05
4.793779E+03	1.633257E-03	8.613856E-05
4.803622E+03	1.634100E-03	8.614904E-05
4.813466E+03	1.634715E-03	8.614753E-05
4.823309E+03	1.635676E-03	8.616418E-05
4.833153E+03	1.636421E-03	8.616941E-05
4.842996E+03	1.637521E-03	8.619334E-05
4.852840E+03	1.638696E-03	8.622121E-05
4.862683E+03	1.639670E-03	8.623840E-05
4.872527E+03	1.641010E-03	8.627486E-05
4.882370E+03	1.642155E-03	8.630099E-05
4.892214E+03	1.643675E-03	8.634676E-05
4.902057E+03	1.645004E-03	8.638246E-05
4.911901E+03	1.646712E-03	8.643807E-05
4.921744E+03	1.648234E-03	8.648380E-05
4.931588E+03	1.650140E-03	8.654965E-05
4.941431E+03	1.651862E-03	8.660578E-05
4.951275E+03	1.653971E-03	8.668213E-05
4.961118E+03	1.655897E-03	8.674884E-05
4.970962E+03	1.658212E-03	8.683586E-05
4.980805E+03	1.660344E-03	8.691319E-05
4.990649E+03	1.662866E-03	8.701086E-05
5.000492E+03	1.665203E-03	8.709880E-05
5.010336E+03	1.667642E-03	8.719198E-05
5.020179E+03	1.670471E-03	8.730546E-05
5.030023E+03	1.673111E-03	8.740898E-05
5.039866E+03	1.676139E-03	8.753269E-05
5.049710E+03	1.678975E-03	8.764626E-05
5.059553E+03	1.682197E-03	8.777989E-05
5.069397E+03	1.685223E-03	8.790318E-05
5.079240E+03	1.688631E-03	8.804632E-05
5.089084E+03	1.691838E-03	8.817883E-05
5.098927E+03	1.695131E-03	8.831577E-05
5.108771E+03	1.698803E-03	8.847232E-05
5.118614E+03	1.702265E-03	8.861780E-05
5.128458E+03	1.706100E-03	8.878263E-05
5.138301E+03	1.709718E-03	8.893607E-05
5.148145E+03	1.713708E-03	8.910868E-05
5.157988E+03	1.717474E-03	8.926957E-05
5.167831E+03	1.721309E-03	8.943394E-05
5.177675E+03	1.725509E-03	8.961714E-05
5.187518E+03	1.729476E-03	8.978810E-05
5.197362E+03	1.733804E-03	8.997771E-05
5.207205E+03	1.737892E-03	9.015474E-05
5.217049E+03	1.742037E-03	9.033463E-05
5.226892E+03	1.746538E-03	9.053285E-05
5.236736E+03	1.750791E-03	9.071806E-05
5.246579E+03	1.755094E-03	9.090578E-05
5.256423E+03	1.759748E-03	9.111156E-05
5.266266E+03	1.764146E-03	9.130397E-05
5.276110E+03	1.768588E-03	9.149854E-05
5.285953E+03	1.773378E-03	9.171101E-05
5.295797E+03	1.777904E-03	9.190973E-05
5.305640E+03	1.782778E-03	9.212629E-05
5.315484E+03	1.787384E-03	9.232888E-05
5.325327E+03	1.792026E-03	9.253329E-05
5.335171E+03	1.796705E-03	9.273942E-05
5.345014E+03	1.801729E-03	9.296332E-05
5.354858E+03	1.806477E-03	9.317286E-05
5.364701E+03	1.811259E-03	9.338404E-05
5.374545E+03	1.816386E-03	9.361294E-05
5.384388E+03	1.821233E-03	9.382728E-05
5.394232E+03	1.826111E-03	9.404312E-05
5.404075E+03	1.831336E-03	9.427672E-05
5.413919E+03	1.836275E-03	9.449556E-05
5.423762E+03	1.841245E-03	9.471588E-05
5.433606E+03	1.846563E-03	9.495403E-05
5.443449E+03	1.851594E-03	9.517734E-05
5.453293E+03	1.856656E-03	9.540215E-05
5.463136E+03	1.861750E-03	9.562850E-05
5.472980E+03	1.867196E-03	9.587292E-05
5.482823E+03	1.872354E-03	9.610243E-05
5.492667E+03	1.877545E-03	9.633352E-05
5.502510E+03	1.882768E-03	9.656624E-05
5.512354E+03	1.888351E-03	9.681730E-05
5.522197E+03	1.893645E-03	9.705344E-05
5.532041E+03	1.898975E-03	9.729136E-05
5.541884E+03	1.904342E-03	9.753112E-05
5.551728E+03	1.910078E-03	9.778966E-05
5.561571E+03	1.915527E-03	9.803339E-05
5.571415E+03	1.921017E-03	9.827918E-05
5.581258E+03	1.926551E-03	9.852713E-05
5.591101E+03	1.932132E-03	9.877740E-05
5.600945E+03	1.938095E-03	9.904710E-05
5.610788E+03	1.943777E-03	9.930232E-05
5.620632E+03	1.949512E-03	9.956017E-05
5.630475E+03	1.955302E-03	9.982080E-05
5.640319E+03	1.961489E-03	1.001016E-04
5.650162E+03	1.967402E-03	1.003682E-04
5.660006E+03	1.973378E-03	1.006380E-04
5.669849E+03	1.979422E-03	1.009112E-04
5.679693E+03	1.985536E-03	1.011879E-04
5.689536E+03	1.991725E-03	1.014682E-04
5.699380E+03	1.998334E-03	1.017699E-04
5.709223E+03	2.004680E-03	1.020581E-04
5.719067E+03	2.011108E-03	1.023504E-04
5.728910E+03	2.017623E-03	1.026470E-04
5.738754E+03	2.024226E-03	1.029480E-04
5.748597E+03	2.030921E-03	1.032535E-04
5.758441E+03	2.038062E-03	1.035817E-04
5.768284E+03	2.044950E-03	1.038968E-04
5.778128E+03	2.051938E-03	1.042170E-04
5.787971E+03	2.059027E-03	1.045422E-04
5.797815E+03	2.066221E-03	1.048725E-04
5.807658E+03	2.073521E-03	1.052082E-04
5.817502E+03	2.080928E-03	1.055492E-04
5.827345E+03	2.088445E-03	1.058957E-04
5.837189E+03	2.096432E-03	1.062659E-04
5.847032E+03	2.104171E-03	1.066234E-04
5.856876E+03	2.112022E-03	1.069865E-04
5.866719E+03	2.119984E-03	1.073551E-04
5.876563E+03	2.128058E-03	1.077293E-04
5.886406E+03	2.136244E-03	1.081090E-04
5.896250E+03	2.144539E-03	1.084941E-04
5.906093E+03	2.152943E-03	1.088847E-04
5.915937E+03	2.161455E-03	1.092806E-04
5.925780E+03	2.170072E-03	1.096817E-04
5.935624E+03	2.179168E-03	1.101069E-04
5.945467E+03	2.187988E-03	1.105181E-04
5.955311E+03	2.196905E-03	1.109341E-04
5.965154E+03	2.205915E-03	1.113546E-04
5.974998E+03	2.215013E-03	1.117795E-04
5.984841E+03	2.224193E-03	1.122085E-04
5.994685E+03	2.233452E-03	1.126413E-04
6.004528E+03	2.242782E-03	1.130776E-04
6.014371E+03	2.252178E-03	1.135172E-04
6.024215E+03	2.261633E-03	1.139596E-04
6.034058E+03	2.271138E-03	1.144046E-04
6.043902E+03	2.280687E-03	1.148516E-04
6.053745E+03	2.290272E-03	1.153004E-04
6.063589E+03	2.299882E-03	1.157504E-04
6.073432E+03	2.309510E-03	1.162012E-04
6.083276E+03	2.319144E-03	1.166523E-04
6.093119E+03	2.328776E-03	1.171032E-04
6.102963E+03	2.338393E-03	1.175534E-04
6.112806E+03	2.347985E-03	1.180022E-04
6.122650E+03	2.357540E-03	1.184492E-04
6.132493E+03	2.367046E-03	1.188937E-04
6.142337E+03	2.376490E-03	1.193351E-04
6.152180E+03	2.385859E-03	1.197727E-04
6.162024E+03	2.395141E-03	1.202060E-04
6.171867E+03	2.404320E-03	1.206341E-04
6.181711E+03	2.413383E-03	1.210565E-04
6.191554E+03	2.422316E-03	1.214723E-04
6.201398E+03	2.431104E-03	1.218810E-04
6.211241E+03	2.439732E-03	1.222816E-04
6.221085E+03	2.448184E-03	1.226736E-04
6.230928E+03	2.456445E-03	1.230560E-04
6.240772E+03	2.464500E-03	1.234283E-04
6.250615E+03	2.472331E-03	1.237894E-04
6.260459E+03	2.479923E-03	1.241388E-04
6.270302E+03	2.487260E-03	1.244755E-04
6.280146E+03	2.494325E-03	1.247988E-04
6.289989E+03	2.501102E-03	1.251078E-04
6.299833E+03	2.507575E-03	1.254018E-04
6.309676E+03	2.513727E-03	1.256800E-04
6.319520E+03	2.519541E-03	1.259415E-04
6.329363E+03	2.525003E-03	1.261857E-04
6.339207E+03	2.529660E-03	1.263898E-04
6.349050E+03	2.534368E-03	1.265968E-04
6.358894E+03	2.538676E-03	1.267842E-04
6.368737E+03	2.542570E-03	1.269512E-04
6.378581E+03	2.546039E-03	1.270972E-04
6.388424E+03	2.549067E-03	1.272217E-04
6.398268E+03	2.551646E-03	1.273240E-04
6.408111E+03	2.553765E-03	1.274038E-04
6.417955E+03	2.555416E-03	1.274606E-04
6.427798E+03	2.556594E-03	1.274943E-04
6.437642E+03	2.557298E-03	1.275047E-04
6.447485E+03	2.557089E-03	1.274701E-04
6.457328E+03	2.556855E-03	1.274346E-04
6.467172E+03	2.556163E-03	1.273768E-04
6.477015E+03	2.555022E-03	1.272970E-04
6.486859E+03	2.553442E-03	1.271958E-04
6.496702E+03	2.551435E-03	1.270738E-04
6.506546E+03	2.549014E-03	1.269316E-04
6.516389E+03	2.546193E-03	1.267700E-04
6.526233E+03	2.542547E-03	1.265677E-04
6.536076E+03	2.538968E-03	1.263693E-04
6.545920E+03	2.535033E-03	1.261536E-04
6.555763E+03	2.530756E-03	1.259213E-04
6.565607E+03	2.526153E-03	1.256733E-04
6.575450E+03	2.521241E-03	1.254104E-04
6.585294E+03	2.516034E-03	1.251333E-04
6.595137E+03	2.510118E-03	1.248214E-04
6.604981E+03	2.504373E-03	1.245184E-04
6.614824E+03	2.498382E-03	1.242037E-04
6.624668E+03	2.492162E-03	1.238780E-04
6.634511E+03	2.485727E-03	1.235422E-04
6.644355E+03	2.479096E-03	1.231970E-04
6.654198E+03	2.471855E-03	1.228220E-04
6.664042E+03	2.464876E-03	1.224604E-04
6.673885E+03	2.457745E-03	1.220918E-04
6.683729E+03	2.450478E-03	1.217168E-04
6.693572E+03	2.443092E-03	1.213364E-04
6.703416E+03	2.435179E-03	1.209302E-04
6.713259E+03	2.427596E-03	1.205409E-04
6.723103E+03	2.419936E-03	1.201482E-04
6.732946E+03	2.412213E-03	1.197527E-04
6.742790E+03	2.404442E-03	1.193553E-04
6.752633E+03	2.396221E-03	1.189360E-04
6.762477E+03	2.388392E-03	1.185366E-04
6.772320E+03	2.380553E-03	1.181371E-04
6.782164E+03	2.372717E-03	1.177381E-04
6.792007E+03	2.364895E-03	1.173403E-04
6.801851E+03	2.356693E-03	1.169239E-04
6.811694E+03	2.348935E-03	1.165301E-04
6.821538E+03	2.341226E-03	1.161390E-04
6.831381E+03	2.333576E-03	1.157512E-04
6.841225E+03	2.325593E-03	1.153474E-04
6.851068E+03	2.318090E-03	1.149677E-04
6.860912E+03	2.310674E-03	1.145927E-04
6.870755E+03	2.303354E-03	1.142228E-04
6.880598E+03	2.296139E-03	1.138586E-04
6.890442E+03	2.288641E-03	1.134806E-04
6.900285E+03	2.281658E-03	1.131286E-04
6.910129E+03	2.274801E-03	1.127831E-04
6.919972E+03	2.268078E-03	1.124447E-04
6.929816E+03	2.261103E-03	1.120941E-04
6.939659E+03	2.254664E-03	1.117705E-04
6.949503E+03	2.248375E-03	1.114546E-04
6.959346E+03	2.241855E-03	1.111277E-04
6.969190E+03	2.235881E-03	1.108281E-04
6.979033E+03	2.230069E-03	1.105370E-04
6.988877E+03	2.224425E-03	1.102544E-04
6.998720E+03	2.218568E-03	1.099617E-04
7.008564E+03	2.213266E-03	1.096969E-04
7.018407E+03	2.208140E-03	1.094411E-04
7.028251E+03	2.202810E-03	1.091755E-04
7.038094E+03	2.198040E-03	1.089380E-04
7.047938E+03	2.193448E-03	1.087097E-04
7.057781E+03	2.189037E-03	1.084907E-04
7.067625E+03	2.184429E-03	1.082622E-04
7.077468E+03	2.180379E-03	1.080618E-04
7.087312E+03	2.176510E-03	1.078706E-04
7.097155E+03	2.172445E-03	1.076701E-04
7.106999E+03	2.168933E-03	1.074973E-04
7.116842E+03	2.165598E-03	1.073337E-04
7.126686E+03	2.162064E-03	1.071605E-04
7.136529E+03	2.159076E-03	1.070148E-04
7.146373E+03	2.156259E-03	1.068778E-04
7.156216E+03	2.153236E-03	1.067310E-04
7.166060E+03	2.150749E-03	1.066111E-04
7.175903E+03	2.148422E-03	1.064994E-04
7.185747E+03	2.145880E-03	1.063775E-04
7.195590E+03	2.143862E-03	1.062819E-04
7.205434E+03	2.141989E-03	1.061939E-04
7.215277E+03	2.139889E-03	1.060950E-04
7.225121E+03	2.138295E-03	1.060215E-04
7.234964E+03	2.136832E-03	1.059548E-04
7.244808E+03	2.135124E-03	1.058765E-04
7.254651E+03	2.133904E-03	1.058226E-04
7.264495E+03	2.132795E-03	1.057747E-04
7.274338E+03	2.131422E-03	1.057140E-04
7.284182E+03	2.130515E-03	1.056768E-04
7.294025E+03	2.129696E-03	1.056445E-04
7.303868E+03	2.128590E-03	1.055983E-04
7.313712E+03	2.127926E-03	1.055743E-04
7.323555E+03	2.127324E-03	1.055539E-04
7.333399E+03	2.126410E-03	1.055184E-04
7.343242E+03	2.125909E-03	1.055038E-04
7.353086E+03	2.125076E-03	1.054731E-04
7.362929E+03	2.124636E-03	1.054624E-04
7.372773E+03	2.124211E-03	1.054528E-04
7.382616E+03	2.123424E-03	1.054257E-04
7.392460E+03	2.122997E-03	1.054169E-04
7.402303E+03	2.122185E-03	1.053895E-04
7.412147E+03	2.121712E-03	1.053793E-04
7.421990E+03	2.121197E-03	1.053675E-04
7.431834E+03	2.120263E-03	1.053353E-04
7.441677E+03	2.119630E-03	1.053185E-04
7.451521E+03	2.118553E-03	1.052801E-04
7.461364E+03	2.117751E-03	1.052558E-04
7.471208E+03	2.116845E-03	1.052269E-04
7.481051E+03	2.115458E-03	1.051745E-04
7.490895E+03	2.114305E-03	1.051342E-04
7.500738E+03	2.112644E-03	1.050691E-04
7.510582E+03	2.111190E-03	1.050148E-04
7.520425E+03	2.109566E-03	1.049525E-04
7.530269E+03	2.107391E-03	1.048633E-04
7.540112E+03	2.105383E-03	1.047828E-04
7.549956E+03	2.102797E-03	1.046741E-04
7.559799E+03	2.100347E-03	1.045726E-04
7.569643E+03	2.097294E-03	1.044416E-04
7.579486E+03	2.094348E-03	1.043164E-04
7.589330E+03	2.090771E-03	1.041602E-04
7.599173E+03	2.087273E-03	1.040085E-04
7.609017E+03	2.083478E-03	1.038424E-04
7.618860E+03	2.079012E-03	1.036433E-04
7.628704E+03	2.074581E-03	1.034465E-04
7.638547E+03	2.069456E-03	1.032154E-04
