#wls	flux	fluxerr
1.574958E+03	1.019598E-04	6.374775E-06
1.614332E+03	1.027308E-04	6.419694E-06
1.653706E+03	1.035516E-04	6.467592E-06
1.693080E+03	1.044444E-04	6.519848E-06
1.732454E+03	1.053754E-04	6.574336E-06
1.771828E+03	1.063672E-04	6.632462E-06
1.811202E+03	1.074238E-04	6.694467E-06
1.850576E+03	1.085499E-04	6.760625E-06
1.889950E+03	1.097700E-04	6.832450E-06
1.929324E+03	1.110500E-04	6.907815E-06
1.968698E+03	1.124151E-04	6.988264E-06
2.008072E+03	1.138918E-04	7.075430E-06
2.047446E+03	1.154460E-04	7.167177E-06
2.086820E+03	1.171260E-04	7.266489E-06
2.126194E+03	1.188977E-04	7.371220E-06
2.165567E+03	1.207900E-04	7.483157E-06
2.204941E+03	1.228341E-04	7.604189E-06
2.244315E+03	1.250183E-04	7.733579E-06
2.283689E+03	1.273304E-04	7.870539E-06
2.323063E+03	1.298273E-04	8.018554E-06
2.362437E+03	1.324990E-04	8.176976E-06
2.401811E+03	1.353351E-04	8.345119E-06
2.441185E+03	1.383984E-04	8.526826E-06
2.480559E+03	1.416814E-04	8.721584E-06
2.519933E+03	1.452021E-04	8.930449E-06
2.559307E+03	1.489531E-04	9.152916E-06
2.598681E+03	1.530084E-04	9.393477E-06
2.638055E+03	1.573652E-04	9.651895E-06
2.677429E+03	1.620491E-04	9.929668E-06
2.716803E+03	1.670880E-04	1.022843E-05
2.756177E+03	1.725127E-04	1.054998E-05
2.795551E+03	1.783567E-04	1.089628E-05
2.834925E+03	1.846570E-04	1.126947E-05
2.874299E+03	1.914541E-04	1.167193E-05
2.913673E+03	1.987922E-04	1.210623E-05
2.953047E+03	2.067202E-04	1.257520E-05
2.962890E+03	2.088191E-04	1.269934E-05
2.972734E+03	2.109218E-04	1.282364E-05
2.982577E+03	2.131040E-04	1.295267E-05
2.992421E+03	2.152911E-04	1.308192E-05
3.002264E+03	2.175604E-04	1.321606E-05
3.012107E+03	2.198357E-04	1.335047E-05
3.021951E+03	2.221959E-04	1.348995E-05
3.031794E+03	2.245632E-04	1.362976E-05
3.041638E+03	2.270183E-04	1.377479E-05
3.051481E+03	2.294819E-04	1.392024E-05
3.061325E+03	2.320361E-04	1.407108E-05
3.071168E+03	2.346001E-04	1.422240E-05
3.081012E+03	2.372579E-04	1.437930E-05
3.090855E+03	2.399695E-04	1.453934E-05
3.100699E+03	2.426926E-04	1.469998E-05
3.110542E+03	2.455147E-04	1.486648E-05
3.120386E+03	2.483498E-04	1.503365E-05
3.130229E+03	2.512872E-04	1.520690E-05
3.140073E+03	2.542391E-04	1.538089E-05
3.149916E+03	2.572969E-04	1.556117E-05
3.159760E+03	2.603708E-04	1.574228E-05
3.169603E+03	2.635543E-04	1.592989E-05
3.179447E+03	2.667555E-04	1.611843E-05
3.189290E+03	2.700701E-04	1.631368E-05
3.199134E+03	2.734528E-04	1.651289E-05
3.208977E+03	2.768556E-04	1.671318E-05
3.218821E+03	2.803781E-04	1.692054E-05
3.228664E+03	2.839224E-04	1.712907E-05
3.238508E+03	2.875906E-04	1.734490E-05
3.248351E+03	2.912825E-04	1.756201E-05
3.258195E+03	2.951027E-04	1.778669E-05
3.268038E+03	2.989483E-04	1.801274E-05
3.277882E+03	3.029268E-04	1.824662E-05
3.287725E+03	3.069874E-04	1.848526E-05
3.297569E+03	3.110762E-04	1.872543E-05
3.307412E+03	3.153051E-04	1.897384E-05
3.317256E+03	3.195643E-04	1.922388E-05
3.327099E+03	3.239684E-04	1.948246E-05
3.336943E+03	3.284047E-04	1.974277E-05
3.346786E+03	3.329911E-04	2.001190E-05
3.356630E+03	3.376717E-04	2.028650E-05
3.366473E+03	3.423876E-04	2.056299E-05
3.376317E+03	3.472615E-04	2.084876E-05
3.386160E+03	3.521726E-04	2.113655E-05
3.396004E+03	3.572471E-04	2.143391E-05
3.405847E+03	3.623608E-04	2.173341E-05
3.415691E+03	3.676435E-04	2.204280E-05
3.425534E+03	3.729675E-04	2.235442E-05
3.435377E+03	3.784661E-04	2.267626E-05
3.445221E+03	3.840761E-04	2.300453E-05
3.455064E+03	3.897301E-04	2.333518E-05
3.464908E+03	3.955676E-04	2.367654E-05
3.474751E+03	4.014511E-04	2.402039E-05
3.484595E+03	4.075239E-04	2.437530E-05
3.494438E+03	4.136444E-04	2.473278E-05
3.504282E+03	4.199603E-04	2.510165E-05
3.514125E+03	4.264011E-04	2.547770E-05
3.523969E+03	4.328920E-04	2.585644E-05
3.533812E+03	4.395875E-04	2.624709E-05
3.543656E+03	4.463343E-04	2.664051E-05
3.553499E+03	4.532918E-04	2.704617E-05
3.563343E+03	4.603019E-04	2.745465E-05
3.573186E+03	4.675286E-04	2.787571E-05
3.583030E+03	4.748933E-04	2.830466E-05
3.592873E+03	4.823120E-04	2.873649E-05
3.602717E+03	4.899563E-04	2.918139E-05
3.612560E+03	4.976552E-04	2.962920E-05
3.622404E+03	5.055855E-04	3.009041E-05
3.632247E+03	5.135708E-04	3.055452E-05
3.642091E+03	5.217929E-04	3.103233E-05
3.651934E+03	5.301639E-04	3.151861E-05
3.661778E+03	5.385898E-04	3.200776E-05
3.671621E+03	5.472604E-04	3.251103E-05
3.681465E+03	5.559847E-04	3.301709E-05
3.691308E+03	5.649591E-04	3.353757E-05
3.701152E+03	5.739862E-04	3.406076E-05
3.710995E+03	5.832685E-04	3.459866E-05
3.720839E+03	5.927054E-04	3.514527E-05
3.730682E+03	6.021926E-04	3.569441E-05
3.740526E+03	6.119402E-04	3.625853E-05
3.750369E+03	6.217345E-04	3.682495E-05
3.760213E+03	6.317935E-04	3.740656E-05
3.770056E+03	6.418951E-04	3.799021E-05
3.779900E+03	6.522650E-04	3.858925E-05
3.789743E+03	6.626723E-04	3.918999E-05
3.799587E+03	6.733502E-04	3.980623E-05
3.809430E+03	6.841817E-04	4.043103E-05
3.819274E+03	6.950434E-04	4.105709E-05
3.829117E+03	7.061768E-04	4.169866E-05
3.838961E+03	7.173335E-04	4.234106E-05
3.848804E+03	7.287625E-04	4.299899E-05
3.858648E+03	7.402061E-04	4.365722E-05
3.868491E+03	7.519219E-04	4.433094E-05
3.878334E+03	7.637786E-04	4.501239E-05
3.888178E+03	7.756353E-04	4.569326E-05
3.898021E+03	7.877618E-04	4.638944E-05
3.907865E+03	7.998773E-04	4.708438E-05
3.917708E+03	8.122591E-04	4.779439E-05
3.927552E+03	8.246180E-04	4.850245E-05
3.937395E+03	8.372379E-04	4.922524E-05
3.947239E+03	8.498214E-04	4.994528E-05
3.957082E+03	8.626602E-04	5.067969E-05
3.966926E+03	8.756010E-04	5.141946E-05
3.976769E+03	8.884813E-04	5.215505E-05
3.986613E+03	9.016062E-04	5.290435E-05
3.996456E+03	9.146525E-04	5.364839E-05
4.006300E+03	9.279333E-04	5.440554E-05
4.016143E+03	9.411168E-04	5.515633E-05
4.025987E+03	9.545235E-04	5.591954E-05
4.035830E+03	9.678114E-04	5.667514E-05
4.045674E+03	9.813105E-04	5.744244E-05
4.055517E+03	9.946680E-04	5.820078E-05
4.065361E+03	1.008221E-03	5.896994E-05
4.075204E+03	1.021609E-03	5.972870E-05
4.085048E+03	1.035177E-03	6.049738E-05
4.094891E+03	1.048736E-03	6.126487E-05
4.104735E+03	1.062089E-03	6.201963E-05
4.114578E+03	1.075595E-03	6.278265E-05
4.124422E+03	1.088864E-03	6.353120E-05
4.134265E+03	1.102266E-03	6.428685E-05
4.144109E+03	1.115400E-03	6.502621E-05
4.153952E+03	1.128645E-03	6.577134E-05
4.163796E+03	1.141588E-03	6.649829E-05
4.173639E+03	1.154617E-03	6.722958E-05
4.183483E+03	1.167310E-03	6.794070E-05
4.193326E+03	1.180062E-03	6.865460E-05
4.203170E+03	1.192442E-03	6.934627E-05
4.213013E+03	1.204852E-03	7.003905E-05
4.222857E+03	1.216851E-03	7.070739E-05
4.232700E+03	1.228851E-03	7.137514E-05
4.242544E+03	1.240400E-03	7.201617E-05
4.252387E+03	1.251917E-03	7.265475E-05
4.262231E+03	1.262944E-03	7.326433E-05
4.272074E+03	1.273904E-03	7.386955E-05
4.281918E+03	1.284334E-03	7.444348E-05
4.291761E+03	1.294666E-03	7.501121E-05
4.301604E+03	1.304429E-03	7.554549E-05
4.311448E+03	1.314065E-03	7.607197E-05
4.321291E+03	1.323099E-03	7.656319E-05
4.331135E+03	1.331990E-03	7.704565E-05
4.340978E+03	1.340270E-03	7.749240E-05
4.350822E+03	1.348411E-03	7.793073E-05
4.360665E+03	1.355945E-03	7.833360E-05
4.370509E+03	1.363353E-03	7.872885E-05
4.380352E+03	1.370165E-03	7.908933E-05
4.390196E+03	1.376868E-03	7.944326E-05
4.400039E+03	1.382988E-03	7.976326E-05
4.409883E+03	1.389021E-03	8.007793E-05
4.419726E+03	1.394487E-03	8.035969E-05
4.429570E+03	1.399886E-03	8.063731E-05
4.439413E+03	1.404737E-03	8.088314E-05
4.449257E+03	1.409542E-03	8.112612E-05
4.459100E+03	1.413817E-03	8.133841E-05
4.468944E+03	1.418069E-03	8.154918E-05
4.478787E+03	1.421811E-03	8.173043E-05
4.488631E+03	1.425552E-03	8.191146E-05
4.498474E+03	1.428802E-03	8.206416E-05
4.508318E+03	1.432074E-03	8.221794E-05
4.518161E+03	1.434876E-03	8.234457E-05
4.528005E+03	1.437468E-03	8.245907E-05
4.537848E+03	1.440115E-03	8.257663E-05
4.547692E+03	1.442321E-03	8.266878E-05
4.557535E+03	1.444604E-03	8.276524E-05
4.567379E+03	1.446466E-03	8.283752E-05
4.577222E+03	1.448426E-03	8.291528E-05
4.587066E+03	1.449985E-03	8.297004E-05
4.596909E+03	1.451662E-03	8.303146E-05
4.606753E+03	1.452957E-03	8.307101E-05
4.616596E+03	1.454135E-03	8.310379E-05
4.626440E+03	1.455461E-03	8.314498E-05
4.636283E+03	1.456434E-03	8.316592E-05
4.646127E+03	1.457573E-03	8.319632E-05
4.655970E+03	1.458376E-03	8.320752E-05
4.665814E+03	1.459363E-03	8.322921E-05
4.675657E+03	1.460032E-03	8.323268E-05
4.685501E+03	1.460646E-03	8.323301E-05
4.695344E+03	1.461471E-03	8.324530E-05
4.705188E+03	1.462000E-03	8.324073E-05
4.715031E+03	1.462755E-03	8.324902E-05
4.724874E+03	1.463230E-03	8.324133E-05
4.734718E+03	1.463689E-03	8.323272E-05
4.744561E+03	1.464395E-03	8.323812E-05
4.754405E+03	1.464841E-03	8.322875E-05
4.764248E+03	1.465548E-03	8.323415E-05
4.774092E+03	1.466007E-03	8.322549E-05
4.783935E+03	1.466482E-03	8.321767E-05
4.793779E+03	1.467235E-03	8.322565E-05
4.803622E+03	1.467757E-03	8.322047E-05
4.813466E+03	1.468569E-03	8.323168E-05
4.823309E+03	1.469158E-03	8.323029E-05
4.833153E+03	1.469788E-03	8.323118E-05
4.842996E+03	1.470721E-03	8.324918E-05
4.852840E+03	1.471445E-03	8.325533E-05
4.862683E+03	1.472480E-03	8.327904E-05
4.872527E+03	1.473312E-03	8.329126E-05
4.882370E+03	1.474204E-03	8.330682E-05
4.892214E+03	1.475417E-03	8.334046E-05
4.902057E+03	1.476436E-03	8.336315E-05
4.911901E+03	1.477523E-03	8.338960E-05
4.921744E+03	1.478939E-03	8.343456E-05
4.931588E+03	1.480167E-03	8.346892E-05
4.941431E+03	1.481469E-03	8.350737E-05
4.951275E+03	1.483106E-03	8.356463E-05
4.961118E+03	1.484560E-03	8.361156E-05
4.970962E+03	1.486092E-03	8.366279E-05
4.980805E+03	1.487963E-03	8.373307E-05
4.990649E+03	1.489653E-03	8.379309E-05
5.000492E+03	1.491423E-03	8.385757E-05
5.010336E+03	1.493536E-03	8.394123E-05
5.020179E+03	1.495468E-03	8.401467E-05
5.030023E+03	1.497482E-03	8.409259E-05
5.039866E+03	1.499839E-03	8.418973E-05
5.049710E+03	1.502014E-03	8.427663E-05
5.059553E+03	1.504271E-03	8.436797E-05
5.069397E+03	1.506871E-03	8.447851E-05
5.079240E+03	1.509288E-03	8.457864E-05
5.089084E+03	1.511784E-03	8.468316E-05
5.098927E+03	1.514623E-03	8.480679E-05
5.108771E+03	1.517275E-03	8.491988E-05
5.118614E+03	1.520004E-03	8.503716E-05
5.128458E+03	1.522808E-03	8.515856E-05
5.138301E+03	1.525954E-03	8.529899E-05
5.148145E+03	1.528907E-03	8.542851E-05
5.157988E+03	1.531933E-03	8.556199E-05
5.167831E+03	1.535298E-03	8.571435E-05
5.177675E+03	1.538465E-03	8.585554E-05
5.187518E+03	1.541701E-03	8.600046E-05
5.197362E+03	1.545004E-03	8.614901E-05
5.207205E+03	1.548644E-03	8.631622E-05
5.217049E+03	1.552078E-03	8.647186E-05
5.226892E+03	1.555575E-03	8.663091E-05
5.236736E+03	1.559405E-03	8.680843E-05
5.246579E+03	1.563024E-03	8.697402E-05
5.256423E+03	1.566700E-03	8.714273E-05
5.266266E+03	1.570432E-03	8.731446E-05
5.276110E+03	1.574495E-03	8.750444E-05
5.285953E+03	1.578335E-03	8.768190E-05
5.295797E+03	1.582225E-03	8.786208E-05
5.305640E+03	1.586163E-03	8.804482E-05
5.315484E+03	1.590425E-03	8.824542E-05
5.325327E+03	1.594453E-03	8.843292E-05
5.335171E+03	1.598521E-03	8.862255E-05
5.345014E+03	1.602627E-03	8.881414E-05
5.354858E+03	1.606767E-03	8.900756E-05
5.364701E+03	1.611219E-03	8.921818E-05
5.374545E+03	1.615419E-03	8.941469E-05
5.384388E+03	1.619643E-03	8.961248E-05
5.394232E+03	1.623889E-03	8.981140E-05
5.404075E+03	1.628440E-03	9.002706E-05
5.413919E+03	1.632725E-03	9.022795E-05
5.423762E+03	1.637030E-03	9.042986E-05
5.433606E+03	1.641357E-03	9.063287E-05
5.443449E+03	1.645708E-03	9.083719E-05
5.453293E+03	1.650376E-03	9.105886E-05
5.463136E+03	1.654786E-03	9.126626E-05
5.472980E+03	1.659229E-03	9.147542E-05
5.482823E+03	1.663710E-03	9.168655E-05
5.492667E+03	1.668229E-03	9.189977E-05
5.502510E+03	1.672792E-03	9.211528E-05
5.512354E+03	1.677692E-03	9.234926E-05
5.522197E+03	1.682348E-03	9.256974E-05
5.532041E+03	1.687054E-03	9.279284E-05
5.541884E+03	1.691812E-03	9.301875E-05
5.551728E+03	1.696624E-03	9.324756E-05
5.561571E+03	1.701791E-03	9.349573E-05
5.571415E+03	1.706720E-03	9.373078E-05
5.581258E+03	1.711709E-03	9.396905E-05
5.591101E+03	1.716762E-03	9.421068E-05
5.600945E+03	1.721879E-03	9.445580E-05
5.610788E+03	1.727064E-03	9.470449E-05
5.620632E+03	1.732317E-03	9.495683E-05
5.630475E+03	1.737944E-03	9.522961E-05
5.640319E+03	1.743343E-03	9.548971E-05
5.650162E+03	1.748815E-03	9.575377E-05
5.660006E+03	1.754364E-03	9.602193E-05
5.669849E+03	1.759992E-03	9.629426E-05
5.679693E+03	1.765700E-03	9.657092E-05
5.689536E+03	1.771490E-03	9.685194E-05
5.699380E+03	1.777675E-03	9.715441E-05
5.709223E+03	1.783636E-03	9.744454E-05
5.719067E+03	1.789684E-03	9.773935E-05
5.728910E+03	1.795822E-03	9.803889E-05
5.738754E+03	1.802050E-03	9.834326E-05
5.748597E+03	1.808370E-03	9.865256E-05
5.758441E+03	1.814784E-03	9.896685E-05
5.768284E+03	1.821293E-03	9.928617E-05
5.778128E+03	1.827897E-03	9.961058E-05
5.787971E+03	1.834919E-03	9.995764E-05
5.797815E+03	1.841720E-03	1.002925E-04
5.807658E+03	1.848619E-03	1.006326E-04
5.817502E+03	1.855618E-03	1.009780E-04
5.827345E+03	1.862716E-03	1.013287E-04
5.837189E+03	1.869914E-03	1.016847E-04
5.847032E+03	1.877212E-03	1.020460E-04
5.856876E+03	1.884610E-03	1.024126E-04
5.866719E+03	1.892107E-03	1.027845E-04
5.876563E+03	1.899703E-03	1.031616E-04
5.886406E+03	1.907396E-03	1.035439E-04
5.896250E+03	1.915186E-03	1.039313E-04
5.906093E+03	1.923407E-03	1.043419E-04
5.915937E+03	1.931387E-03	1.047393E-04
5.925780E+03	1.939459E-03	1.051416E-04
5.935624E+03	1.947619E-03	1.055486E-04
5.945467E+03	1.955866E-03	1.059602E-04
5.955311E+03	1.964197E-03	1.063761E-04
5.965154E+03	1.972608E-03	1.067963E-04
5.974998E+03	1.981096E-03	1.072206E-04
5.984841E+03	1.989657E-03	1.076486E-04
5.994685E+03	1.998286E-03	1.080803E-04
6.004528E+03	2.006979E-03	1.085153E-04
6.014371E+03	2.015731E-03	1.089534E-04
6.024215E+03	2.024537E-03	1.093943E-04
6.034058E+03	2.033389E-03	1.098376E-04
6.043902E+03	2.042284E-03	1.102831E-04
6.053745E+03	2.051214E-03	1.107304E-04
6.063589E+03	2.060172E-03	1.111792E-04
6.073432E+03	2.069150E-03	1.116289E-04
6.083276E+03	2.078142E-03	1.120794E-04
6.093119E+03	2.087139E-03	1.125300E-04
6.102963E+03	2.096131E-03	1.129804E-04
6.112806E+03	2.105112E-03	1.134300E-04
6.122650E+03	2.114070E-03	1.138784E-04
6.132493E+03	2.122997E-03	1.143251E-04
6.142337E+03	2.131882E-03	1.147695E-04
6.152180E+03	2.140715E-03	1.152111E-04
6.162024E+03	2.149484E-03	1.156493E-04
6.171867E+03	2.158178E-03	1.160834E-04
6.181711E+03	2.166785E-03	1.165128E-04
6.191554E+03	2.175293E-03	1.169369E-04
6.201398E+03	2.183688E-03	1.173551E-04
6.211241E+03	2.191959E-03	1.177665E-04
6.221085E+03	2.200090E-03	1.181706E-04
6.230928E+03	2.208068E-03	1.185665E-04
6.240772E+03	2.215878E-03	1.189534E-04
6.250615E+03	2.223504E-03	1.193306E-04
6.260459E+03	2.230932E-03	1.196973E-04
6.270302E+03	2.238144E-03	1.200525E-04
6.280146E+03	2.245124E-03	1.203954E-04
6.289989E+03	2.251854E-03	1.207251E-04
6.299833E+03	2.258317E-03	1.210406E-04
6.309676E+03	2.264493E-03	1.213409E-04
6.319520E+03	2.270363E-03	1.216251E-04
6.329363E+03	2.275908E-03	1.218920E-04
6.339207E+03	2.281107E-03	1.221407E-04
6.349050E+03	2.285938E-03	1.223700E-04
6.358894E+03	2.290381E-03	1.225787E-04
6.368737E+03	2.294412E-03	1.227658E-04
6.378581E+03	2.298010E-03	1.229299E-04
6.388424E+03	2.301154E-03	1.230701E-04
6.398268E+03	2.303821E-03	1.231852E-04
6.408111E+03	2.305590E-03	1.232526E-04
6.417955E+03	2.307250E-03	1.233146E-04
6.427798E+03	2.308385E-03	1.233490E-04
6.437642E+03	2.308992E-03	1.233556E-04
6.447485E+03	2.309082E-03	1.233351E-04
6.457328E+03	2.308670E-03	1.232881E-04
6.467172E+03	2.307771E-03	1.232156E-04
6.477015E+03	2.306406E-03	1.231187E-04
6.486859E+03	2.304595E-03	1.229984E-04
6.496702E+03	2.302360E-03	1.228560E-04
6.506546E+03	2.299722E-03	1.226926E-04
6.516389E+03	2.296702E-03	1.225092E-04
6.526233E+03	2.292920E-03	1.222858E-04
6.536076E+03	2.289198E-03	1.220660E-04
6.545920E+03	2.285155E-03	1.218295E-04
6.555763E+03	2.280809E-03	1.215774E-04
6.565607E+03	2.276181E-03	1.213107E-04
6.575450E+03	2.271285E-03	1.210303E-04
6.585294E+03	2.266142E-03	1.207372E-04
6.595137E+03	2.260768E-03	1.204323E-04
6.604981E+03	2.255179E-03	1.201163E-04
6.614824E+03	2.249392E-03	1.197903E-04
6.624668E+03	2.243030E-03	1.194342E-04
6.634511E+03	2.236893E-03	1.190906E-04
6.644355E+03	2.230603E-03	1.187392E-04
6.654198E+03	2.224175E-03	1.183810E-04
6.664042E+03	2.217622E-03	1.180167E-04
6.673885E+03	2.210958E-03	1.176468E-04
6.683729E+03	2.204197E-03	1.172723E-04
6.693572E+03	2.197352E-03	1.168937E-04
6.703416E+03	2.190051E-03	1.164914E-04
6.713259E+03	2.183075E-03	1.161068E-04
6.723103E+03	2.176049E-03	1.157200E-04
6.732946E+03	2.168988E-03	1.153317E-04
6.742790E+03	2.161901E-03	1.149425E-04
6.752633E+03	2.154799E-03	1.145530E-04
6.762477E+03	2.147692E-03	1.141636E-04
6.772320E+03	2.140217E-03	1.137551E-04
6.782164E+03	2.133133E-03	1.133678E-04
6.792007E+03	2.126073E-03	1.129822E-04
6.801851E+03	2.119047E-03	1.125988E-04
6.811694E+03	2.112064E-03	1.122180E-04
6.821538E+03	2.105130E-03	1.118403E-04
6.831381E+03	2.097889E-03	1.114467E-04
6.841225E+03	2.091081E-03	1.110765E-04
6.851068E+03	2.084347E-03	1.107106E-04
6.860912E+03	2.077694E-03	1.103494E-04
6.870755E+03	2.071127E-03	1.099932E-04
6.880598E+03	2.064653E-03	1.096423E-04
6.890442E+03	2.057919E-03	1.092779E-04
6.900285E+03	2.051650E-03	1.089387E-04
6.910129E+03	2.045491E-03	1.086056E-04
6.919972E+03	2.039446E-03	1.082789E-04
6.929816E+03	2.033520E-03	1.079590E-04
6.939659E+03	2.027718E-03	1.076460E-04
6.949503E+03	2.021690E-03	1.073213E-04
6.959346E+03	2.016146E-03	1.070228E-04
6.969190E+03	2.010737E-03	1.067317E-04
6.979033E+03	2.005465E-03	1.064482E-04
6.988877E+03	2.000332E-03	1.061725E-04
6.998720E+03	1.994991E-03	1.058862E-04
7.008564E+03	1.990144E-03	1.056264E-04
7.018407E+03	1.985443E-03	1.053746E-04
7.028251E+03	1.980888E-03	1.051310E-04
7.038094E+03	1.976480E-03	1.048956E-04
7.047938E+03	1.971876E-03	1.046501E-04
7.057781E+03	1.967767E-03	1.044311E-04
7.067625E+03	1.963806E-03	1.042205E-04
7.077468E+03	1.959995E-03	1.040180E-04
7.087312E+03	1.956331E-03	1.038238E-04
7.097155E+03	1.952474E-03	1.036197E-04
7.106999E+03	1.949105E-03	1.034418E-04
7.116842E+03	1.945882E-03	1.032720E-04
7.126686E+03	1.942802E-03	1.031101E-04
7.136529E+03	1.939524E-03	1.029382E-04
7.146373E+03	1.936726E-03	1.027920E-04
7.156216E+03	1.934066E-03	1.026535E-04
7.166060E+03	1.931539E-03	1.025225E-04
7.175903E+03	1.928807E-03	1.023808E-04
7.185747E+03	1.926541E-03	1.022643E-04
7.195590E+03	1.924399E-03	1.021548E-04
7.205434E+03	1.922379E-03	1.020521E-04
7.215277E+03	1.920476E-03	1.019560E-04
7.225121E+03	1.918349E-03	1.018484E-04
7.234964E+03	1.916667E-03	1.017647E-04
7.244808E+03	1.915088E-03	1.016870E-04
7.254651E+03	1.913606E-03	1.016147E-04
7.264495E+03	1.911884E-03	1.015301E-04
7.274338E+03	1.910582E-03	1.014682E-04
7.284182E+03	1.909362E-03	1.014111E-04
7.294025E+03	1.908217E-03	1.013583E-04
7.303868E+03	1.906807E-03	1.012918E-04
7.313712E+03	1.905793E-03	1.012468E-04
7.323555E+03	1.904833E-03	1.012051E-04
7.333399E+03	1.903588E-03	1.011487E-04
7.343242E+03	1.902717E-03	1.011125E-04
7.353086E+03	1.901879E-03	1.010786E-04
7.362929E+03	1.901065E-03	1.010463E-04
7.372773E+03	1.899936E-03	1.009977E-04
7.382616E+03	1.899147E-03	1.009677E-04
7.392460E+03	1.898358E-03	1.009381E-04
7.402303E+03	1.897561E-03	1.009084E-04
7.412147E+03	1.896412E-03	1.008606E-04
7.421990E+03	1.895569E-03	1.008294E-04
7.431834E+03	1.894688E-03	1.007968E-04
7.441677E+03	1.893429E-03	1.007444E-04
7.451521E+03	1.892445E-03	1.007072E-04
7.461364E+03	1.891395E-03	1.006669E-04
7.471208E+03	1.890268E-03	1.006230E-04
7.481051E+03	1.888722E-03	1.005573E-04
7.490895E+03	1.887410E-03	1.005045E-04
7.500738E+03	1.885989E-03	1.004464E-04
7.510582E+03	1.884118E-03	1.003648E-04
7.520425E+03	1.882448E-03	1.002944E-04
7.530269E+03	1.880636E-03	1.002169E-04
7.540112E+03	1.878341E-03	1.001142E-04
7.549956E+03	1.876212E-03	1.000208E-04
7.559799E+03	1.873908E-03	9.991864E-05
7.569643E+03	1.871417E-03	9.980694E-05
7.579486E+03	1.868400E-03	9.966768E-05
7.589330E+03	1.865501E-03	9.953520E-05
7.599173E+03	1.862380E-03	9.939142E-05
7.609017E+03	1.858701E-03	9.921830E-05
7.618860E+03	1.855105E-03	9.905006E-05
7.628704E+03	1.851252E-03	9.886863E-05
7.638547E+03	1.846808E-03	9.865612E-05
