#wls	flux	fluxerr
1.596504E+03	1.072252E-05	1.667245E-06
1.636416E+03	1.062950E-05	1.645724E-06
1.676329E+03	1.051872E-05	1.621407E-06
1.716241E+03	1.040441E-05	1.596520E-06
1.756154E+03	1.027856E-05	1.569844E-06
1.796067E+03	1.015342E-05	1.543273E-06
1.835979E+03	1.002471E-05	1.516162E-06
1.875892E+03	9.898246E-06	1.489394E-06
1.915804E+03	9.765231E-06	1.461655E-06
1.955717E+03	9.642393E-06	1.435452E-06
1.995630E+03	9.526977E-06	1.410359E-06
2.035542E+03	9.439387E-06	1.389362E-06
2.075455E+03	9.404608E-06	1.376049E-06
2.115367E+03	9.472456E-06	1.377525E-06
2.155280E+03	9.679789E-06	1.398834E-06
2.195193E+03	1.005101E-05	1.443082E-06
2.235105E+03	1.059161E-05	1.510562E-06
2.275018E+03	1.128396E-05	1.598253E-06
2.314930E+03	1.211812E-05	1.704261E-06
2.354843E+03	1.309174E-05	1.827772E-06
2.394755E+03	1.419500E-05	1.966923E-06
2.434668E+03	1.544923E-05	2.124158E-06
2.474581E+03	1.685144E-05	2.298492E-06
2.514493E+03	1.841489E-05	2.491123E-06
2.554406E+03	2.015257E-05	2.703135E-06
2.594318E+03	2.206191E-05	2.933454E-06
2.634231E+03	2.415130E-05	3.182439E-06
2.674144E+03	2.642837E-05	3.450274E-06
2.714056E+03	2.889166E-05	3.735908E-06
2.753969E+03	3.153812E-05	4.038061E-06
2.793881E+03	3.437358E-05	4.356561E-06
2.833794E+03	3.739531E-05	4.690110E-06
2.873707E+03	4.061201E-05	5.038804E-06
2.913619E+03	4.403554E-05	5.403055E-06
2.953532E+03	4.766974E-05	5.782200E-06
2.993444E+03	5.152045E-05	6.175767E-06
3.003423E+03	5.251902E-05	6.276515E-06
3.013401E+03	5.353727E-05	6.378799E-06
3.023379E+03	5.457552E-05	6.482630E-06
3.033357E+03	5.562157E-05	6.586537E-06
3.043335E+03	5.668940E-05	6.692156E-06
3.053313E+03	5.776746E-05	6.798100E-06
3.063291E+03	5.888179E-05	6.907406E-06
3.073270E+03	6.000626E-05	7.016973E-06
3.083248E+03	6.115400E-05	7.128315E-06
3.093226E+03	6.231162E-05	7.239842E-06
3.103204E+03	6.350609E-05	7.354665E-06
3.113182E+03	6.471042E-05	7.469618E-06
3.123160E+03	6.593822E-05	7.586251E-06
3.133138E+03	6.718961E-05	7.704544E-06
3.143117E+03	6.846471E-05	7.824478E-06
3.153095E+03	6.974940E-05	7.944413E-06
3.163073E+03	7.107210E-05	8.067555E-06
3.173051E+03	7.240434E-05	8.190636E-06
3.183029E+03	7.376042E-05	8.315249E-06
3.193007E+03	7.515502E-05	8.443010E-06
3.202985E+03	7.655895E-05	8.570598E-06
3.212964E+03	7.798677E-05	8.699620E-06
3.222942E+03	7.943844E-05	8.830037E-06
3.232920E+03	8.091386E-05	8.961804E-06
3.242898E+03	8.241294E-05	9.094874E-06
3.252876E+03	8.393535E-05	9.229177E-06
3.262854E+03	8.548101E-05	9.364668E-06
3.272832E+03	8.704953E-05	9.501271E-06
3.282811E+03	8.864052E-05	9.638908E-06
3.292789E+03	9.026939E-05	9.779213E-06
3.302767E+03	9.190399E-05	9.918666E-06
3.312745E+03	9.357536E-05	1.006059E-05
3.322723E+03	9.525106E-05	1.020145E-05
3.332701E+03	9.696204E-05	1.034454E-05
3.342680E+03	9.869144E-05	1.048803E-05
3.352658E+03	1.004545E-04	1.063348E-05
3.362636E+03	1.022173E-04	1.077728E-05
3.372614E+03	1.040112E-04	1.092272E-05
3.382592E+03	1.058182E-04	1.106786E-05
3.392570E+03	1.076367E-04	1.121251E-05
3.402548E+03	1.094813E-04	1.135817E-05
3.412527E+03	1.113334E-04	1.150287E-05
3.422505E+03	1.131906E-04	1.164634E-05
3.432483E+03	1.150672E-04	1.179005E-05
3.442461E+03	1.169437E-04	1.193198E-05
3.452439E+03	1.188341E-04	1.207352E-05
3.462417E+03	1.207182E-04	1.221263E-05
3.472395E+03	1.226097E-04	1.235068E-05
3.482374E+03	1.244881E-04	1.248559E-05
3.492352E+03	1.263496E-04	1.261700E-05
3.502330E+03	1.282251E-04	1.274799E-05
3.512308E+03	1.300587E-04	1.287302E-05
3.522286E+03	1.318985E-04	1.299687E-05
3.532264E+03	1.337057E-04	1.311571E-05
3.542242E+03	1.354762E-04	1.322920E-05
3.552221E+03	1.372410E-04	1.334037E-05
3.562199E+03	1.389609E-04	1.344545E-05
3.572177E+03	1.406318E-04	1.354409E-05
3.582155E+03	1.422844E-04	1.363931E-05
3.592133E+03	1.438800E-04	1.372742E-05
3.602111E+03	1.454324E-04	1.380982E-05
3.612090E+03	1.469390E-04	1.388630E-05
3.622068E+03	1.483970E-04	1.395667E-05
3.632046E+03	1.498039E-04	1.402077E-05
3.642024E+03	1.511395E-04	1.407677E-05
3.652002E+03	1.524335E-04	1.412752E-05
3.661980E+03	1.536458E-04	1.416938E-05
3.671958E+03	1.548029E-04	1.420491E-05
3.681937E+03	1.558640E-04	1.423043E-05
3.691915E+03	1.568572E-04	1.424865E-05
3.701893E+03	1.577657E-04	1.425813E-05
3.711871E+03	1.585823E-04	1.425835E-05
3.721849E+03	1.593613E-04	1.425430E-05
3.731827E+03	1.601227E-04	1.424781E-05
3.741805E+03	1.609351E-04	1.424498E-05
3.751784E+03	1.618344E-04	1.424889E-05
3.761762E+03	1.629331E-04	1.426929E-05
3.771740E+03	1.643065E-04	1.431245E-05
3.781718E+03	1.660536E-04	1.438657E-05
3.791696E+03	1.682929E-04	1.450132E-05
3.801674E+03	1.711139E-04	1.466368E-05
3.811652E+03	1.746206E-04	1.488171E-05
3.821631E+03	1.789293E-04	1.516427E-05
3.831609E+03	1.841185E-04	1.551683E-05
3.841587E+03	1.902716E-04	1.594514E-05
3.851565E+03	1.974739E-04	1.645493E-05
3.861543E+03	2.057751E-04	1.704881E-05
3.871521E+03	2.151817E-04	1.772574E-05
3.881500E+03	2.257025E-04	1.848487E-05
3.891478E+03	2.372743E-04	1.931945E-05
3.901456E+03	2.498293E-04	2.022248E-05
3.911434E+03	2.632186E-04	2.118057E-05
3.921412E+03	2.772883E-04	2.218021E-05
3.931390E+03	2.918235E-04	2.320333E-05
3.941368E+03	3.065699E-04	2.422918E-05
3.951347E+03	3.212155E-04	2.523294E-05
3.961325E+03	3.354677E-04	2.619191E-05
3.971303E+03	3.489715E-04	2.707913E-05
3.981281E+03	3.614472E-04	2.787412E-05
3.991259E+03	3.725362E-04	2.855088E-05
4.001237E+03	3.819969E-04	2.909303E-05
4.011215E+03	3.896244E-04	2.948742E-05
4.021194E+03	3.952633E-04	2.972501E-05
4.031172E+03	3.989177E-04	2.980901E-05
4.041150E+03	4.005626E-04	2.974040E-05
4.051128E+03	4.003133E-04	2.953062E-05
4.061106E+03	3.983032E-04	2.919217E-05
4.071084E+03	3.946938E-04	2.873935E-05
4.081062E+03	3.896616E-04	2.818725E-05
4.091041E+03	3.833926E-04	2.755126E-05
4.101019E+03	3.760804E-04	2.684701E-05
4.110997E+03	3.679297E-04	2.609049E-05
4.120975E+03	3.591380E-04	2.529682E-05
4.130953E+03	3.499807E-04	2.448618E-05
4.140931E+03	3.406813E-04	2.367463E-05
4.150910E+03	3.314733E-04	2.287847E-05
4.160888E+03	3.226442E-04	2.211729E-05
4.170866E+03	3.143966E-04	2.140434E-05
4.180844E+03	3.069662E-04	2.075473E-05
4.190822E+03	3.005569E-04	2.018101E-05
4.200800E+03	2.952894E-04	1.968977E-05
4.210778E+03	2.912935E-04	1.928804E-05
4.220757E+03	2.886433E-04	1.897892E-05
4.230735E+03	2.873752E-04	1.876291E-05
4.240713E+03	2.874916E-04	1.863829E-05
4.250691E+03	2.889675E-04	1.860154E-05
4.260669E+03	2.917558E-04	1.864784E-05
4.270647E+03	2.957771E-04	1.877039E-05
4.280625E+03	3.009750E-04	1.896397E-05
4.290604E+03	3.072137E-04	1.921858E-05
4.300582E+03	3.143677E-04	1.952506E-05
4.310560E+03	3.222555E-04	1.987106E-05
4.320538E+03	3.306420E-04	2.024129E-05
4.330516E+03	3.392171E-04	2.061633E-05
4.340494E+03	3.476399E-04	2.097544E-05
4.350472E+03	3.555108E-04	2.129500E-05
4.360451E+03	3.624210E-04	2.155150E-05
4.370429E+03	3.680072E-04	2.172484E-05
4.380407E+03	3.721065E-04	2.180726E-05
4.390385E+03	3.749269E-04	2.181285E-05
4.400363E+03	3.769468E-04	2.177094E-05
4.410341E+03	3.789379E-04	2.172684E-05
4.420320E+03	3.816650E-04	2.172418E-05
4.430298E+03	3.859834E-04	2.181042E-05
4.440276E+03	3.926942E-04	2.202862E-05
4.450254E+03	4.025349E-04	2.241701E-05
4.460232E+03	4.161898E-04	2.300975E-05
4.470210E+03	4.342542E-04	2.383509E-05
4.480188E+03	4.572083E-04	2.491415E-05
4.490167E+03	4.854014E-04	2.626035E-05
4.500145E+03	5.189389E-04	2.787356E-05
4.510123E+03	5.577500E-04	2.974423E-05
4.520101E+03	6.014082E-04	3.184425E-05
4.530079E+03	6.491337E-04	3.412763E-05
4.540057E+03	6.998155E-04	3.653230E-05
4.550035E+03	7.519648E-04	3.897836E-05
4.560014E+03	8.037931E-04	4.137266E-05
4.569992E+03	8.532928E-04	4.361346E-05
4.579970E+03	8.984578E-04	4.560191E-05
4.589948E+03	9.373667E-04	4.724621E-05
4.599926E+03	9.683459E-04	4.846952E-05
4.609904E+03	9.901666E-04	4.921929E-05
4.619882E+03	1.002160E-03	4.947214E-05
4.629861E+03	1.004173E-03	4.923066E-05
4.639839E+03	9.966577E-04	4.852697E-05
4.649817E+03	9.805823E-04	4.741734E-05
4.659795E+03	9.573219E-04	4.597612E-05
4.669773E+03	9.285202E-04	4.428856E-05
4.679751E+03	8.959669E-04	4.244457E-05
4.689729E+03	8.613358E-04	4.052620E-05
4.699708E+03	8.263270E-04	3.861459E-05
4.709686E+03	7.923253E-04	3.677403E-05
4.719664E+03	7.605621E-04	3.506001E-05
4.729642E+03	7.320185E-04	3.351506E-05
4.739620E+03	7.074330E-04	3.216946E-05
4.749598E+03	6.874565E-04	3.104872E-05
4.759577E+03	6.724634E-04	3.016519E-05
4.769555E+03	6.627773E-04	2.952855E-05
4.779533E+03	6.585339E-04	2.913984E-05
4.789511E+03	6.597422E-04	2.899443E-05
4.799489E+03	6.663291E-04	2.908417E-05
4.809467E+03	6.780277E-04	2.939264E-05
4.819445E+03	6.944154E-04	2.989706E-05
4.829424E+03	7.149567E-04	3.057038E-05
4.839402E+03	7.388860E-04	3.137644E-05
4.849380E+03	7.653362E-04	3.227571E-05
4.859358E+03	7.933930E-04	3.322770E-05
4.869336E+03	8.220370E-04	3.418865E-05
4.879314E+03	8.504091E-04	3.512259E-05
4.889292E+03	8.777294E-04	3.599777E-05
4.899271E+03	9.034270E-04	3.679188E-05
4.909249E+03	9.270181E-04	3.748674E-05
4.919227E+03	9.481812E-04	3.807126E-05
4.929205E+03	9.665010E-04	3.853095E-05
4.939183E+03	9.814416E-04	3.884701E-05
4.949161E+03	9.922282E-04	3.899186E-05
4.959139E+03	9.979397E-04	3.893309E-05
4.969118E+03	9.974711E-04	3.863217E-05
4.979096E+03	9.898966E-04	3.805875E-05
4.989074E+03	9.746324E-04	3.719652E-05
4.999052E+03	9.516720E-04	3.605173E-05
5.009030E+03	9.217812E-04	3.465963E-05
5.019008E+03	8.864075E-04	3.308007E-05
5.028987E+03	8.475788E-04	3.139275E-05
5.038965E+03	8.076369E-04	2.968662E-05
5.048943E+03	7.688993E-04	2.804711E-05
5.058921E+03	7.333956E-04	2.654665E-05
5.068899E+03	7.027928E-04	2.524238E-05
5.078877E+03	6.782069E-04	2.416993E-05
5.088855E+03	6.603388E-04	2.334906E-05
5.098834E+03	6.494372E-04	2.278285E-05
5.108812E+03	6.454298E-04	2.246301E-05
5.118790E+03	6.479782E-04	2.237213E-05
5.128768E+03	6.565291E-04	2.248586E-05
5.138746E+03	6.703460E-04	2.277428E-05
5.148724E+03	6.885190E-04	2.320245E-05
5.158702E+03	7.100431E-04	2.373330E-05
5.168681E+03	7.337664E-04	2.432604E-05
5.178659E+03	7.585446E-04	2.494137E-05
5.188637E+03	7.832529E-04	2.554196E-05
5.198615E+03	8.069336E-04	2.609709E-05
5.208593E+03	8.288298E-04	2.658351E-05
5.218571E+03	8.484581E-04	2.698751E-05
5.228549E+03	8.656034E-04	2.730436E-05
5.238528E+03	8.803204E-04	2.753796E-05
5.248506E+03	8.928736E-04	2.769869E-05
5.258484E+03	9.036255E-04	2.779963E-05
5.268462E+03	9.129647E-04	2.785429E-05
5.278440E+03	9.212838E-04	2.787589E-05
5.288418E+03	9.289388E-04	2.787614E-05
5.298397E+03	9.361939E-04	2.786370E-05
5.308375E+03	9.431930E-04	2.784339E-05
5.318353E+03	9.500601E-04	2.781934E-05
5.328331E+03	9.567961E-04	2.779199E-05
5.338309E+03	9.633024E-04	2.775891E-05
5.348287E+03	9.694293E-04	2.771633E-05
5.358265E+03	9.749822E-04	2.765935E-05
5.368244E+03	9.797726E-04	2.758339E-05
5.378222E+03	9.836062E-04	2.748387E-05
5.388200E+03	9.863724E-04	2.735870E-05
5.398178E+03	9.880778E-04	2.720906E-05
5.408156E+03	9.888220E-04	2.703863E-05
5.418134E+03	9.888656E-04	2.685537E-05
5.428112E+03	9.886203E-04	2.667109E-05
5.438091E+03	9.886609E-04	2.650165E-05
5.448069E+03	9.896659E-04	2.636528E-05
5.458047E+03	9.925061E-04	2.628491E-05
5.468025E+03	9.980480E-04	2.628284E-05
5.478003E+03	1.006835E-03	2.637254E-05
5.487981E+03	1.018557E-03	2.654508E-05
5.497959E+03	1.031597E-03	2.675795E-05
5.507938E+03	1.043799E-03	2.695562E-05
5.517916E+03	1.053160E-03	2.708747E-05
5.527894E+03	1.058368E-03	2.712132E-05
5.537872E+03	1.058892E-03	2.704487E-05
5.547850E+03	1.055039E-03	2.686678E-05
5.557828E+03	1.047626E-03	2.660829E-05
5.567807E+03	1.037742E-03	2.629709E-05
5.577785E+03	1.026412E-03	2.595886E-05
5.587763E+03	1.014333E-03	2.561070E-05
5.597741E+03	1.001722E-03	2.525747E-05
5.607719E+03	9.881818E-04	2.488854E-05
5.617697E+03	9.728529E-04	2.448165E-05
5.627675E+03	9.544465E-04	2.400378E-05
5.637654E+03	9.315361E-04	2.341850E-05
5.647632E+03	9.028377E-04	2.269287E-05
5.657610E+03	8.675389E-04	2.180575E-05
5.667588E+03	8.255089E-04	2.075299E-05
5.677566E+03	7.775450E-04	1.955369E-05
5.687544E+03	7.252469E-04	1.824709E-05
5.697522E+03	6.709217E-04	1.689030E-05
5.707501E+03	6.171721E-04	1.554806E-05
5.717479E+03	5.665797E-04	1.428483E-05
5.727457E+03	5.213931E-04	1.315700E-05
5.737435E+03	4.833665E-04	1.220881E-05
5.747413E+03	4.537084E-04	1.147095E-05
5.757391E+03	4.332225E-04	1.096416E-05
5.767369E+03	4.224480E-04	1.070260E-05
5.777348E+03	4.218217E-04	1.069796E-05
5.787326E+03	4.318273E-04	1.096322E-05
5.797304E+03	4.530803E-04	1.151474E-05
5.807282E+03	4.862699E-04	1.237080E-05
5.817260E+03	5.320567E-04	1.354896E-05
5.827238E+03	5.908271E-04	1.505978E-05
5.837216E+03	6.623570E-04	1.689815E-05
5.847195E+03	7.454409E-04	1.903375E-05
5.857173E+03	8.375162E-04	2.140130E-05
5.867151E+03	9.345771E-04	2.389831E-05
5.877129E+03	1.031313E-03	2.638847E-05
5.887107E+03	1.121598E-03	2.871419E-05
5.897085E+03	1.199420E-03	3.072044E-05
5.907064E+03	1.259684E-03	3.227565E-05
5.917042E+03	1.299131E-03	3.329518E-05
5.927020E+03	1.316616E-03	3.374888E-05
5.936998E+03	1.313130E-03	3.366159E-05
5.946976E+03	1.291440E-03	3.310415E-05
5.956954E+03	1.255375E-03	3.217482E-05
5.966932E+03	1.209250E-03	3.098461E-05
5.976911E+03	1.157317E-03	2.964297E-05
5.986889E+03	1.103400E-03	2.824842E-05
5.996867E+03	1.050703E-03	2.688347E-05
6.006845E+03	1.001763E-03	2.561335E-05
6.016823E+03	9.584861E-04	2.448706E-05
6.026801E+03	9.222574E-04	2.353995E-05
6.036779E+03	8.940541E-04	2.279682E-05
6.046758E+03	8.745912E-04	2.227553E-05
6.056736E+03	8.643851E-04	2.198870E-05
6.066714E+03	8.639164E-04	2.194783E-05
6.076692E+03	8.736600E-04	2.216409E-05
6.086670E+03	8.940712E-04	2.264797E-05
6.096648E+03	9.256467E-04	2.341081E-05
6.106626E+03	9.687242E-04	2.445974E-05
6.116605E+03	1.023388E-03	2.579539E-05
6.126583E+03	1.089054E-03	2.740143E-05
6.136561E+03	1.164059E-03	2.923455E-05
6.146539E+03	1.245089E-03	3.121029E-05
6.156517E+03	1.326726E-03	3.319229E-05
6.166495E+03	1.401586E-03	3.499616E-05
6.176474E+03	1.462000E-03	3.643198E-05
6.186452E+03	1.503697E-03	3.739600E-05
6.196430E+03	1.527591E-03	3.791409E-05
6.206408E+03	1.537480E-03	3.808338E-05
6.216386E+03	1.537522E-03	3.800920E-05
6.226364E+03	1.530910E-03	3.777222E-05
6.236342E+03	1.519532E-03	3.742035E-05
6.246321E+03	1.504202E-03	3.697469E-05
6.256299E+03	1.484825E-03	3.643386E-05
6.266277E+03	1.460858E-03	3.578544E-05
6.276255E+03	1.431660E-03	3.501468E-05
6.286233E+03	1.396839E-03	3.411285E-05
6.296211E+03	1.356439E-03	3.308180E-05
6.306189E+03	1.311144E-03	3.193882E-05
6.316168E+03	1.262305E-03	3.071719E-05
6.326146E+03	1.211895E-03	2.946502E-05
6.336124E+03	1.162342E-03	2.824113E-05
6.346102E+03	1.116329E-03	2.711037E-05
6.356080E+03	1.076720E-03	2.614184E-05
6.366058E+03	1.046308E-03	2.540289E-05
6.376036E+03	1.027756E-03	2.495770E-05
6.386015E+03	1.023620E-03	2.486825E-05
6.395993E+03	1.036422E-03	2.519618E-05
6.405971E+03	1.068741E-03	2.600528E-05
6.415949E+03	1.123322E-03	2.736426E-05
6.425927E+03	1.203182E-03	2.934938E-05
6.435905E+03	1.311592E-03	3.204437E-05
6.445884E+03	1.451943E-03	3.553725E-05
6.455862E+03	1.627576E-03	3.991648E-05
6.465840E+03	1.841631E-03	4.526723E-05
6.475818E+03	2.097223E-03	5.167599E-05
6.485796E+03	2.398166E-03	5.924853E-05
6.495774E+03	2.749932E-03	6.813405E-05
6.505752E+03	3.160319E-03	7.854259E-05
6.515731E+03	3.636011E-03	9.066055E-05
6.525709E+03	4.172932E-03	1.044091E-04
6.535687E+03	4.747343E-03	1.192162E-04
6.545665E+03	5.316158E-03	1.340143E-04
6.555643E+03	5.825848E-03	1.474539E-04
6.565621E+03	6.223917E-03	1.581881E-04
6.575599E+03	6.469789E-03	1.651488E-04
6.585578E+03	6.542741E-03	1.677552E-04
6.595556E+03	6.443570E-03	1.659678E-04
6.605534E+03	6.191762E-03	1.602272E-04
6.615512E+03	5.819560E-03	1.513124E-04
6.625490E+03	5.365165E-03	1.401722E-04
6.635468E+03	4.866740E-03	1.277727E-04
6.645446E+03	4.357695E-03	1.149738E-04
6.655425E+03	3.864636E-03	1.024728E-04
6.665403E+03	3.406016E-03	9.076443E-05
6.675381E+03	2.992832E-03	8.015433E-05
6.685359E+03	2.629783E-03	7.078513E-05
6.695337E+03	2.316906E-03	6.267665E-05
6.705315E+03	2.051083E-03	5.576346E-05
6.715294E+03	1.827516E-03	4.993287E-05
6.725272E+03	1.640733E-03	4.505143E-05
6.735250E+03	1.485205E-03	4.098125E-05
6.745228E+03	1.355830E-03	3.759347E-05
6.755206E+03	1.248121E-03	3.477351E-05
6.765184E+03	1.158207E-03	3.242182E-05
6.775162E+03	1.082893E-03	3.045562E-05
6.785141E+03	1.019529E-03	2.880592E-05
6.795119E+03	9.660161E-04	2.741786E-05
6.805097E+03	9.206790E-04	2.624760E-05
6.815075E+03	8.822143E-04	2.526101E-05
6.825053E+03	8.496538E-04	2.443292E-05
6.835031E+03	8.223106E-04	2.374576E-05
6.845009E+03	7.997017E-04	2.318747E-05
6.854988E+03	7.815111E-04	2.275062E-05
6.864966E+03	7.675315E-04	2.243071E-05
6.874944E+03	7.576526E-04	2.222599E-05
6.884922E+03	7.517850E-04	2.213518E-05
6.894900E+03	7.498224E-04	2.215643E-05
6.904878E+03	7.516550E-04	2.228769E-05
6.914856E+03	7.570669E-04	2.252364E-05
6.924835E+03	7.657963E-04	2.285742E-05
6.934813E+03	7.774700E-04	2.327873E-05
6.944791E+03	7.916603E-04	2.377540E-05
6.954769E+03	8.078256E-04	2.433165E-05
6.964747E+03	8.253607E-04	2.492953E-05
6.974725E+03	8.436499E-04	2.555058E-05
6.984703E+03	8.620728E-04	2.617595E-05
6.994682E+03	8.800062E-04	2.678653E-05
7.004660E+03	8.969357E-04	2.736633E-05
7.014638E+03	9.124576E-04	2.790266E-05
7.024616E+03	9.262719E-04	2.838588E-05
7.034594E+03	9.382921E-04	2.881290E-05
7.044572E+03	9.486228E-04	2.918651E-05
7.054551E+03	9.575293E-04	2.951453E-05
7.064529E+03	9.655287E-04	2.981264E-05
7.074507E+03	9.732671E-04	3.010065E-05
7.084485E+03	9.815260E-04	3.040271E-05
7.094463E+03	9.912174E-04	3.074719E-05
7.104441E+03	1.003254E-03	3.116261E-05
7.114419E+03	1.018490E-03	3.167579E-05
7.124398E+03	1.037761E-03	3.231309E-05
7.134376E+03	1.061711E-03	3.309497E-05
7.144354E+03	1.090880E-03	3.403866E-05
7.154332E+03	1.125556E-03	3.515360E-05
7.164310E+03	1.165836E-03	3.644312E-05
7.174288E+03	1.211528E-03	3.790154E-05
7.184266E+03	1.262178E-03	3.951495E-05
7.194245E+03	1.317039E-03	4.126011E-05
7.204223E+03	1.375074E-03	4.310463E-05
7.214201E+03	1.434857E-03	4.500383E-05
7.224179E+03	1.494748E-03	4.690629E-05
7.234157E+03	1.552667E-03	4.874666E-05
7.244135E+03	1.606409E-03	5.045558E-05
7.254113E+03	1.653581E-03	5.195773E-05
7.264092E+03	1.691754E-03	5.317666E-05
7.274070E+03	1.718857E-03	5.404709E-05
7.284048E+03	1.733111E-03	5.451293E-05
7.294026E+03	1.733538E-03	5.454329E-05
7.304004E+03	1.719918E-03	5.413113E-05
7.313982E+03	1.692861E-03	5.329553E-05
7.323961E+03	1.653790E-03	5.208127E-05
7.333939E+03	1.604762E-03	5.055303E-05
7.343917E+03	1.548132E-03	4.878503E-05
7.353895E+03	1.486402E-03	4.685602E-05
7.363873E+03	1.421875E-03	4.483866E-05
7.373851E+03	1.356589E-03	4.279719E-05
7.383829E+03	1.292140E-03	4.078203E-05
7.393808E+03	1.229643E-03	3.882841E-05
7.403786E+03	1.169899E-03	3.696168E-05
7.413764E+03	1.113244E-03	3.519253E-05
7.423742E+03	1.059789E-03	3.352449E-05
7.433720E+03	1.009388E-03	3.195280E-05
7.443698E+03	9.617870E-04	3.046915E-05
7.453676E+03	9.165963E-04	2.906107E-05
7.463655E+03	8.734200E-04	2.771582E-05
7.473633E+03	8.318478E-04	2.642023E-05
7.483611E+03	7.915447E-04	2.516352E-05
7.493589E+03	7.524720E-04	2.394433E-05
7.503567E+03	7.151366E-04	2.277869E-05
7.513545E+03	6.804972E-04	2.169715E-05
7.523523E+03	6.495432E-04	2.073138E-05
7.533502E+03	6.230197E-04	1.990541E-05
7.543480E+03	6.014013E-04	1.923474E-05
7.553458E+03	5.849564E-04	1.872836E-05
7.563436E+03	5.737600E-04	1.838911E-05
7.573414E+03	5.677432E-04	1.821524E-05
7.583392E+03	5.667129E-04	1.820099E-05
7.593371E+03	5.703991E-04	1.833812E-05
7.603349E+03	5.784345E-04	1.861520E-05
7.613327E+03	5.903575E-04	1.901769E-05
7.623305E+03	6.056534E-04	1.952931E-05
7.633283E+03	6.236855E-04	2.012971E-05
7.643261E+03	6.437738E-04	2.079708E-05
7.653239E+03	6.651563E-04	2.150685E-05
7.663218E+03	6.870658E-04	2.223417E-05
7.673196E+03	7.086767E-04	2.295224E-05
7.683174E+03	7.292312E-04	2.363632E-05
7.693152E+03	7.479754E-04	2.426177E-05
7.703130E+03	7.642684E-04	2.480754E-05
7.713108E+03	7.776147E-04	2.525724E-05
7.723086E+03	7.876232E-04	2.559788E-05
7.733065E+03	7.940634E-04	2.582170E-05
7.743043E+03	7.969010E-04	2.592732E-05
