#wls	flux	fluxerr
1.596504E+03	3.856401E-06	4.011615E-07
1.636416E+03	3.872766E-06	4.019570E-07
1.676329E+03	3.887825E-06	4.025850E-07
1.716241E+03	3.901864E-06	4.030753E-07
1.756154E+03	3.914973E-06	4.034369E-07
1.796067E+03	3.929503E-06	4.039117E-07
1.835979E+03	3.938345E-06	4.037685E-07
1.875892E+03	3.946153E-06	4.034871E-07
1.915804E+03	3.945397E-06	4.022999E-07
1.955717E+03	3.941026E-06	4.007165E-07
1.995630E+03	3.930797E-06	3.985123E-07
2.035542E+03	3.919391E-06	3.961652E-07
2.075455E+03	3.917352E-06	3.947383E-07
2.115367E+03	3.940295E-06	3.957910E-07
2.155280E+03	4.003335E-06	4.008113E-07
2.195193E+03	4.113561E-06	4.104649E-07
2.235105E+03	4.270331E-06	4.246370E-07
2.275018E+03	4.457197E-06	4.416450E-07
2.314930E+03	4.669627E-06	4.610040E-07
2.354843E+03	4.896898E-06	4.816253E-07
2.394755E+03	5.135045E-06	5.030968E-07
2.434668E+03	5.382822E-06	5.252771E-07
2.474581E+03	5.640583E-06	5.481816E-07
2.514493E+03	5.909472E-06	5.719007E-07
2.554406E+03	6.190951E-06	5.965527E-07
2.594318E+03	6.486558E-06	6.222602E-07
2.634231E+03	6.802422E-06	6.495802E-07
2.674144E+03	7.130986E-06	6.777570E-07
2.714056E+03	7.483099E-06	7.077884E-07
2.753969E+03	7.855594E-06	7.393313E-07
2.793881E+03	8.249922E-06	7.724799E-07
2.833794E+03	8.661914E-06	8.067999E-07
2.873707E+03	9.104309E-06	8.434306E-07
2.913619E+03	9.579628E-06	8.825421E-07
2.953532E+03	1.007775E-05	9.231384E-07
2.993444E+03	1.060691E-05	9.659156E-07
3.003423E+03	1.074777E-05	9.772815E-07
3.013401E+03	1.088394E-05	9.881738E-07
3.023379E+03	1.102924E-05	9.998494E-07
3.033357E+03	1.116983E-05	1.011051E-06
3.043335E+03	1.132010E-05	1.023078E-06
3.053313E+03	1.147332E-05	1.035322E-06
3.063291E+03	1.162214E-05	1.047119E-06
3.073270E+03	1.178118E-05	1.059784E-06
3.083248E+03	1.193567E-05	1.071986E-06
3.093226E+03	1.210058E-05	1.085070E-06
3.103204E+03	1.226851E-05	1.098368E-06
3.113182E+03	1.243170E-05	1.111184E-06
3.123160E+03	1.260568E-05	1.124907E-06
3.133138E+03	1.278281E-05	1.138850E-06
3.143117E+03	1.295506E-05	1.152298E-06
3.153095E+03	1.313855E-05	1.166683E-06
3.163073E+03	1.332537E-05	1.181298E-06
3.173051E+03	1.350722E-05	1.195409E-06
3.183029E+03	1.370084E-05	1.210495E-06
3.193007E+03	1.389805E-05	1.225828E-06
3.202985E+03	1.409025E-05	1.240650E-06
3.212964E+03	1.429483E-05	1.256492E-06
3.222942E+03	1.450333E-05	1.272603E-06
3.232920E+03	1.470684E-05	1.288203E-06
3.242898E+03	1.492344E-05	1.304873E-06
3.252876E+03	1.514436E-05	1.321841E-06
3.262854E+03	1.536037E-05	1.338301E-06
3.272832E+03	1.559030E-05	1.355891E-06
3.282811E+03	1.582503E-05	1.373815E-06
3.292789E+03	1.606476E-05	1.392085E-06
3.302767E+03	1.629981E-05	1.409860E-06
3.312745E+03	1.655003E-05	1.428858E-06
3.322723E+03	1.680588E-05	1.448248E-06
3.332701E+03	1.706759E-05	1.468046E-06
3.342680E+03	1.732497E-05	1.487375E-06
3.352658E+03	1.759905E-05	1.508036E-06
3.362636E+03	1.787978E-05	1.529163E-06
3.372614E+03	1.816746E-05	1.550776E-06
3.382592E+03	1.845135E-05	1.571957E-06
3.392570E+03	1.875372E-05	1.594601E-06
3.402548E+03	1.906403E-05	1.617801E-06
3.412527E+03	1.938262E-05	1.641585E-06
3.422505E+03	1.969818E-05	1.664989E-06
3.432483E+03	2.003435E-05	1.690010E-06
3.442461E+03	2.038004E-05	1.715701E-06
3.452439E+03	2.073567E-05	1.742093E-06
3.462417E+03	2.108923E-05	1.768173E-06
3.472395E+03	2.146599E-05	1.796055E-06
3.482374E+03	2.185415E-05	1.824742E-06
3.492352E+03	2.225428E-05	1.854272E-06
3.502330E+03	2.266695E-05	1.884687E-06
3.512308E+03	2.307921E-05	1.914905E-06
3.522286E+03	2.351853E-05	1.947200E-06
3.532264E+03	2.397226E-05	1.980510E-06
3.542242E+03	2.444108E-05	2.014884E-06
3.552221E+03	2.492573E-05	2.050371E-06
3.562199E+03	2.542694E-05	2.087024E-06
3.572177E+03	2.593045E-05	2.123663E-06
3.582155E+03	2.646692E-05	2.162793E-06
3.592133E+03	2.702242E-05	2.203257E-06
3.602111E+03	2.759785E-05	2.245117E-06
3.612090E+03	2.819415E-05	2.288437E-06
3.622068E+03	2.881230E-05	2.333284E-06
3.632046E+03	2.943638E-05	2.378357E-06
3.642024E+03	3.010095E-05	2.426439E-06
3.652002E+03	3.079053E-05	2.476258E-06
3.661980E+03	3.150627E-05	2.527892E-06
3.671958E+03	3.224934E-05	2.581419E-06
3.681937E+03	3.302098E-05	2.636920E-06
3.691915E+03	3.382248E-05	2.694479E-06
3.701893E+03	3.463544E-05	2.752616E-06
3.711871E+03	3.550018E-05	2.814518E-06
3.721849E+03	3.639885E-05	2.878742E-06
3.731827E+03	3.733291E-05	2.945380E-06
3.741805E+03	3.830386E-05	3.014530E-06
3.751784E+03	3.931324E-05	3.086287E-06
3.761762E+03	4.036266E-05	3.160752E-06
3.771740E+03	4.145374E-05	3.238027E-06
3.781718E+03	4.256428E-05	3.316353E-06
3.791696E+03	4.374314E-05	3.399515E-06
3.801674E+03	4.496880E-05	3.485801E-06
3.811652E+03	4.624304E-05	3.575318E-06
3.821631E+03	4.756769E-05	3.668174E-06
3.831609E+03	4.894462E-05	3.764480E-06
3.841587E+03	5.037573E-05	3.864346E-06
3.851565E+03	5.186293E-05	3.967884E-06
3.861543E+03	5.340818E-05	4.075205E-06
3.871521E+03	5.498303E-05	4.184104E-06
3.881500E+03	5.664942E-05	4.299261E-06
3.891478E+03	5.837978E-05	4.418529E-06
3.901456E+03	6.017612E-05	4.542016E-06
3.911434E+03	6.204046E-05	4.669828E-06
3.921412E+03	6.397479E-05	4.802071E-06
3.931390E+03	6.598114E-05	4.938847E-06
3.941368E+03	6.806150E-05	5.080254E-06
3.951347E+03	7.021783E-05	5.226388E-06
3.961325E+03	7.245210E-05	5.377342E-06
3.971303E+03	7.476621E-05	5.533202E-06
3.981281E+03	7.712015E-05	5.690961E-06
3.991259E+03	7.959825E-05	5.856792E-06
4.001237E+03	8.216164E-05	6.027760E-06
4.011215E+03	8.481200E-05	6.203926E-06
4.021194E+03	8.755097E-05	6.385350E-06
4.031172E+03	9.037993E-05	6.572067E-06
4.041150E+03	9.330046E-05	6.764130E-06
4.051128E+03	9.631379E-05	6.961560E-06
4.061106E+03	9.942114E-05	7.164379E-06
4.071084E+03	1.026234E-04	7.372582E-06
4.081062E+03	1.059214E-04	7.586167E-06
4.091041E+03	1.093159E-04	7.805106E-06
4.101019E+03	1.127472E-04	8.025088E-06
4.110997E+03	1.163339E-04	8.254496E-06
4.120975E+03	1.200177E-04	8.489096E-06
4.130953E+03	1.237982E-04	8.728783E-06
4.140931E+03	1.276747E-04	8.973448E-06
4.150910E+03	1.316464E-04	9.222954E-06
4.160888E+03	1.357119E-04	9.477133E-06
4.170866E+03	1.398696E-04	9.735805E-06
4.180844E+03	1.441172E-04	9.998740E-06
4.190822E+03	1.484522E-04	1.026570E-05
4.200800E+03	1.528714E-04	1.053640E-05
4.210778E+03	1.573712E-04	1.081052E-05
4.220757E+03	1.618626E-04	1.108191E-05
4.230735E+03	1.665080E-04	1.136164E-05
4.240713E+03	1.712192E-04	1.164361E-05
4.250691E+03	1.759899E-04	1.192735E-05
4.260669E+03	1.808133E-04	1.221234E-05
4.270647E+03	1.856812E-04	1.249799E-05
4.280625E+03	1.905852E-04	1.278368E-05
4.290604E+03	1.955155E-04	1.306875E-05
4.300582E+03	2.004615E-04	1.335247E-05
4.310560E+03	2.054118E-04	1.363404E-05
4.320538E+03	2.103538E-04	1.391265E-05
4.330516E+03	2.151635E-04	1.418010E-05
4.340494E+03	2.200457E-04	1.444995E-05
4.350472E+03	2.248773E-04	1.471408E-05
4.360451E+03	2.296429E-04	1.497152E-05
4.370429E+03	2.343274E-04	1.522133E-05
4.380407E+03	2.389164E-04	1.546263E-05
4.390385E+03	2.433988E-04	1.569478E-05
4.400363E+03	2.477673E-04	1.591737E-05
4.410341E+03	2.520161E-04	1.613012E-05
4.420320E+03	2.560104E-04	1.632452E-05
4.430298E+03	2.600047E-04	1.651692E-05
4.440276E+03	2.638676E-04	1.669898E-05
4.450254E+03	2.675961E-04	1.687064E-05
4.460232E+03	2.711880E-04	1.703183E-05
4.470210E+03	2.746409E-04	1.718252E-05
4.480188E+03	2.779530E-04	1.732269E-05
4.490167E+03	2.811227E-04	1.745234E-05
4.500145E+03	2.840057E-04	1.756266E-05
4.510123E+03	2.868852E-04	1.767130E-05
4.520101E+03	2.896189E-04	1.776954E-05
4.530079E+03	2.922062E-04	1.785744E-05
4.540057E+03	2.946469E-04	1.793511E-05
4.550035E+03	2.969411E-04	1.800265E-05
4.560014E+03	2.990893E-04	1.806020E-05
4.569992E+03	3.009427E-04	1.809890E-05
4.579970E+03	3.028008E-04	1.813693E-05
4.589948E+03	3.045165E-04	1.816549E-05
4.599926E+03	3.060914E-04	1.818479E-05
4.609904E+03	3.075277E-04	1.819505E-05
4.619882E+03	3.086754E-04	1.818755E-05
4.629861E+03	3.098418E-04	1.818052E-05
4.639839E+03	3.108780E-04	1.816525E-05
4.649817E+03	3.117874E-04	1.814203E-05
4.659795E+03	3.125736E-04	1.811117E-05
4.669773E+03	3.132406E-04	1.807298E-05
4.679751E+03	3.136388E-04	1.801897E-05
4.689729E+03	3.140798E-04	1.796715E-05
4.699708E+03	3.144146E-04	1.790902E-05
4.709686E+03	3.146479E-04	1.784491E-05
4.719664E+03	3.146311E-04	1.776652E-05
4.729642E+03	3.146761E-04	1.769156E-05
4.739620E+03	3.146344E-04	1.761167E-05
4.749598E+03	3.145110E-04	1.752722E-05
4.759577E+03	3.143112E-04	1.743855E-05
4.769555E+03	3.138880E-04	1.733760E-05
4.779533E+03	3.135509E-04	1.724157E-05
4.789511E+03	3.131526E-04	1.714233E-05
4.799489E+03	3.126984E-04	1.704021E-05
4.809467E+03	3.120430E-04	1.692739E-05
4.819445E+03	3.114922E-04	1.682052E-05
4.829424E+03	3.109004E-04	1.671171E-05
4.839402E+03	3.101236E-04	1.659330E-05
4.849380E+03	3.094645E-04	1.648154E-05
4.859358E+03	3.087785E-04	1.636869E-05
4.869336E+03	3.080701E-04	1.625501E-05
4.879314E+03	3.071974E-04	1.613306E-05
4.889292E+03	3.064582E-04	1.601856E-05
4.899271E+03	3.057097E-04	1.590397E-05
4.909249E+03	3.048112E-04	1.578202E-05
4.919227E+03	3.040570E-04	1.566800E-05
4.929205E+03	3.033056E-04	1.555455E-05
4.939183E+03	3.024176E-04	1.543456E-05
4.949161E+03	3.016838E-04	1.532291E-05
4.959139E+03	3.009639E-04	1.521241E-05
4.969118E+03	3.001202E-04	1.509611E-05
4.979096E+03	2.994395E-04	1.498850E-05
4.989074E+03	2.987831E-04	1.488253E-05
4.999052E+03	2.980144E-04	1.477143E-05
5.009030E+03	2.974170E-04	1.466929E-05
5.019008E+03	2.967145E-04	1.456241E-05
5.028987E+03	2.961882E-04	1.446464E-05
5.038965E+03	2.957017E-04	1.436921E-05
5.048943E+03	2.951200E-04	1.426958E-05
5.058921E+03	2.947217E-04	1.417924E-05
5.068899E+03	2.942341E-04	1.408502E-05
5.078877E+03	2.939343E-04	1.400018E-05
5.088855E+03	2.935508E-04	1.391174E-05
5.098834E+03	2.933591E-04	1.383276E-05
5.108812E+03	2.932246E-04	1.375681E-05
5.118790E+03	2.930138E-04	1.367762E-05
5.128768E+03	2.930004E-04	1.360798E-05
5.138746E+03	2.929150E-04	1.353531E-05
5.148724E+03	2.930302E-04	1.347221E-05
5.158702E+03	2.930774E-04	1.340628E-05
5.168681E+03	2.933285E-04	1.334994E-05
5.178659E+03	2.935148E-04	1.329092E-05
5.188637E+03	2.939081E-04	1.324152E-05
5.198615E+03	2.942397E-04	1.318957E-05
5.208593E+03	2.947811E-04	1.314724E-05
5.218571E+03	2.952636E-04	1.310250E-05
5.228549E+03	2.958236E-04	1.306141E-05
5.238528E+03	2.965976E-04	1.302996E-05
5.248506E+03	2.973164E-04	1.299626E-05
5.258484E+03	2.982525E-04	1.297221E-05
5.268462E+03	2.991356E-04	1.294601E-05
5.278440E+03	3.001026E-04	1.292362E-05
5.288418E+03	3.012920E-04	1.291095E-05
5.298397E+03	3.024318E-04	1.289628E-05
5.308375E+03	3.037979E-04	1.289138E-05
5.318353E+03	3.051170E-04	1.288461E-05
5.328331E+03	3.065281E-04	1.288187E-05
5.338309E+03	3.081725E-04	1.288905E-05
5.348287E+03	3.097744E-04	1.289456E-05
5.358265E+03	3.114747E-04	1.290432E-05
5.368244E+03	3.134170E-04	1.292422E-05
5.378222E+03	3.153225E-04	1.294273E-05
5.388200E+03	3.173345E-04	1.296576E-05
5.398178E+03	3.195995E-04	1.299926E-05
5.408156E+03	3.218348E-04	1.303169E-05
5.418134E+03	3.241868E-04	1.306902E-05
5.428112E+03	3.266590E-04	1.311139E-05
5.438091E+03	3.294032E-04	1.316484E-05
5.448069E+03	3.321299E-04	1.321779E-05
5.458047E+03	3.349906E-04	1.327629E-05
5.468025E+03	3.379905E-04	1.334056E-05
5.478003E+03	3.412878E-04	1.341680E-05
5.487981E+03	3.445851E-04	1.349332E-05
5.497959E+03	3.480353E-04	1.357614E-05
5.507938E+03	3.516402E-04	1.366533E-05
5.517916E+03	3.554022E-04	1.376100E-05
5.527894E+03	3.593239E-04	1.386327E-05
5.537872E+03	3.635695E-04	1.397846E-05
5.547850E+03	3.678222E-04	1.409440E-05
5.557828E+03	3.722447E-04	1.421740E-05
5.567807E+03	3.768407E-04	1.434762E-05
5.577785E+03	3.816141E-04	1.448525E-05
5.587763E+03	3.865688E-04	1.463047E-05
5.597741E+03	3.917089E-04	1.478349E-05
5.607719E+03	3.970381E-04	1.494448E-05
5.617697E+03	4.025600E-04	1.511358E-05
5.627675E+03	4.082786E-04	1.529094E-05
5.637654E+03	4.141976E-04	1.547672E-05
5.647632E+03	4.203208E-04	1.567108E-05
5.657610E+03	4.266519E-04	1.587417E-05
5.667588E+03	4.331942E-04	1.608615E-05
5.677566E+03	4.399511E-04	1.630715E-05
5.687544E+03	4.469256E-04	1.653733E-05
5.697522E+03	4.541202E-04	1.677680E-05
5.707501E+03	4.615373E-04	1.702570E-05
5.717479E+03	4.691784E-04	1.728413E-05
5.727457E+03	4.770447E-04	1.755216E-05
5.737435E+03	4.851365E-04	1.782987E-05
5.747413E+03	4.934535E-04	1.811730E-05
5.757391E+03	5.019944E-04	1.841445E-05
5.767369E+03	5.107569E-04	1.872131E-05
5.777348E+03	5.197379E-04	1.903782E-05
5.787326E+03	5.289328E-04	1.936389E-05
5.797304E+03	5.381031E-04	1.969087E-05
5.807282E+03	5.477036E-04	2.003548E-05
5.817260E+03	5.574970E-04	2.038911E-05
5.827238E+03	5.674733E-04	2.075148E-05
5.837216E+03	5.776210E-04	2.112227E-05
5.847195E+03	5.876736E-04	2.149180E-05
5.857173E+03	5.981189E-04	2.187802E-05
5.867151E+03	6.086912E-04	2.227130E-05
5.877129E+03	6.193722E-04	2.267107E-05
5.887107E+03	6.298712E-04	2.306676E-05
5.897085E+03	6.407034E-04	2.347735E-05
5.907064E+03	6.515789E-04	2.389231E-05
5.917042E+03	6.624726E-04	2.431082E-05
5.927020E+03	6.730689E-04	2.472136E-05
5.936998E+03	6.839121E-04	2.514401E-05
5.946976E+03	6.946881E-04	2.556732E-05
5.956954E+03	7.050641E-04	2.597910E-05
5.966932E+03	7.156064E-04	2.640027E-05
5.976911E+03	7.259841E-04	2.681872E-05
5.986889E+03	7.358491E-04	2.722162E-05
5.996867E+03	7.457901E-04	2.763076E-05
6.006845E+03	7.551410E-04	2.802153E-05
6.016823E+03	7.645050E-04	2.841631E-05
6.026801E+03	7.732001E-04	2.878976E-05
6.036779E+03	7.818461E-04	2.916495E-05
6.046758E+03	7.897473E-04	2.951592E-05
6.056736E+03	7.975395E-04	2.986638E-05
6.066714E+03	8.045161E-04	3.018985E-05
6.076692E+03	8.113278E-04	3.051064E-05
6.086670E+03	8.172602E-04	3.080184E-05
6.096648E+03	8.229788E-04	3.108842E-05
6.106626E+03	8.277638E-04	3.134309E-05
6.116605E+03	8.322936E-04	3.159139E-05
6.126583E+03	8.358481E-04	3.180587E-05
6.136561E+03	8.391168E-04	3.201258E-05
6.146539E+03	8.413810E-04	3.218396E-05
6.156517E+03	8.429848E-04	3.233292E-05
6.166495E+03	8.442798E-04	3.247279E-05
6.176474E+03	8.445518E-04	3.257592E-05
6.186452E+03	8.441584E-04	3.265580E-05
6.196430E+03	8.434604E-04	3.272620E-05
6.206408E+03	8.417538E-04	3.275961E-05
6.216386E+03	8.394055E-04	3.276998E-05
6.226364E+03	8.367819E-04	3.277139E-05
6.236342E+03	8.331944E-04	3.273667E-05
6.246321E+03	8.290150E-04	3.268009E-05
6.256299E+03	8.242659E-04	3.260226E-05
6.266277E+03	8.193130E-04	3.251743E-05
6.276255E+03	8.134927E-04	3.239904E-05
6.286233E+03	8.071771E-04	3.226158E-05
6.296211E+03	8.003943E-04	3.210590E-05
6.306189E+03	7.931729E-04	3.193289E-05
6.316168E+03	7.858706E-04	3.175676E-05
6.326146E+03	7.778558E-04	3.155180E-05
6.336124E+03	7.694905E-04	3.133235E-05
6.346102E+03	7.608043E-04	3.109939E-05
6.356080E+03	7.518266E-04	3.085391E-05
6.366058E+03	7.425861E-04	3.059681E-05
6.376036E+03	7.331107E-04	3.032899E-05
6.386015E+03	7.234274E-04	3.005132E-05
6.395993E+03	7.135619E-04	2.976462E-05
6.405971E+03	7.035388E-04	2.946971E-05
6.415949E+03	6.933810E-04	2.916733E-05
6.425927E+03	6.831105E-04	2.885821E-05
6.435905E+03	6.727472E-04	2.854301E-05
6.445884E+03	6.623101E-04	2.822238E-05
6.455862E+03	6.518165E-04	2.789689E-05
6.465840E+03	6.412823E-04	2.756707E-05
6.475818E+03	6.307226E-04	2.723346E-05
6.485796E+03	6.201511E-04	2.689652E-05
6.495774E+03	6.095817E-04	2.655674E-05
6.505752E+03	5.990283E-04	2.621463E-05
6.515731E+03	5.885058E-04	2.587077E-05
6.525709E+03	5.777878E-04	2.551507E-05
6.535687E+03	5.673694E-04	2.516930E-05
6.545665E+03	5.570183E-04	2.482319E-05
6.555643E+03	5.467470E-04	2.447727E-05
6.565621E+03	5.365678E-04	2.413206E-05
6.575599E+03	5.262748E-04	2.377823E-05
6.585578E+03	5.163195E-04	2.343613E-05
6.595556E+03	5.064898E-04	2.309625E-05
6.605534E+03	4.967955E-04	2.275903E-05
6.615512E+03	4.870439E-04	2.241564E-05
6.625490E+03	4.776502E-04	2.208518E-05
6.635468E+03	4.684166E-04	2.175862E-05
6.645446E+03	4.591601E-04	2.142749E-05
6.655425E+03	4.502709E-04	2.111001E-05
6.665403E+03	4.415611E-04	2.079752E-05
6.675381E+03	4.328574E-04	2.048189E-05
6.685359E+03	4.245262E-04	2.018051E-05
6.695337E+03	4.163896E-04	1.988509E-05
6.705315E+03	4.082832E-04	1.958782E-05
6.715294E+03	4.005512E-04	1.930528E-05
6.725272E+03	3.928626E-04	1.902166E-05
6.735250E+03	3.855476E-04	1.875303E-05
6.745228E+03	3.782871E-04	1.848400E-05
6.755206E+03	3.713979E-04	1.823015E-05
6.765184E+03	3.645721E-04	1.797651E-05
6.775162E+03	3.581140E-04	1.773817E-05
6.785141E+03	3.517258E-04	1.750055E-05
6.795119E+03	3.457001E-04	1.727829E-05
6.805097E+03	3.397488E-04	1.705716E-05
6.815075E+03	3.341536E-04	1.685139E-05
6.825053E+03	3.286352E-04	1.664707E-05
6.835031E+03	3.233320E-04	1.645127E-05
6.845009E+03	3.183727E-04	1.627070E-05
6.854988E+03	3.134905E-04	1.609190E-05
6.864966E+03	3.088159E-04	1.592161E-05
6.874944E+03	3.044708E-04	1.576631E-05
6.884922E+03	3.001998E-04	1.561289E-05
6.894900E+03	2.961262E-04	1.546786E-05
6.904878E+03	2.923664E-04	1.533745E-05
6.914856E+03	2.886744E-04	1.520890E-05
6.924835E+03	2.851677E-04	1.508846E-05
6.934813E+03	2.818422E-04	1.497604E-05
6.944791E+03	2.788079E-04	1.487762E-05
6.954769E+03	2.758299E-04	1.478081E-05
6.964747E+03	2.730195E-04	1.469163E-05
6.974725E+03	2.703717E-04	1.460992E-05
6.984703E+03	2.678822E-04	1.453555E-05
6.994682E+03	2.656551E-04	1.447429E-05
7.004660E+03	2.634665E-04	1.441408E-05
7.014638E+03	2.614217E-04	1.436070E-05
7.024616E+03	2.595158E-04	1.431400E-05
7.034594E+03	2.577442E-04	1.427381E-05
7.044572E+03	2.561021E-04	1.423994E-05
7.054551E+03	2.545848E-04	1.421221E-05
7.064529E+03	2.531876E-04	1.419045E-05
7.074507E+03	2.519060E-04	1.417448E-05
7.084485E+03	2.507353E-04	1.416411E-05
7.094463E+03	2.496713E-04	1.415916E-05
7.104441E+03	2.487093E-04	1.415945E-05
7.114419E+03	2.478454E-04	1.416481E-05
7.124398E+03	2.470750E-04	1.417505E-05
7.134376E+03	2.463943E-04	1.419000E-05
7.144354E+03	2.457992E-04	1.420949E-05
7.154332E+03	2.452859E-04	1.423335E-05
7.164310E+03	2.448506E-04	1.426139E-05
7.174288E+03	2.444897E-04	1.429348E-05
7.184266E+03	2.441997E-04	1.432945E-05
7.194245E+03	2.439773E-04	1.436915E-05
7.204223E+03	2.437191E-04	1.440650E-05
7.214201E+03	2.436226E-04	1.445321E-05
7.224179E+03	2.435844E-04	1.450321E-05
7.234157E+03	2.436022E-04	1.455641E-05
7.244135E+03	2.436731E-04	1.461266E-05
7.254113E+03	2.436947E-04	1.466584E-05
7.264092E+03	2.438651E-04	1.472788E-05
7.274070E+03	2.440822E-04	1.479267E-05
7.284048E+03	2.443442E-04	1.486015E-05
7.294026E+03	2.445488E-04	1.492408E-05
7.304004E+03	2.448956E-04	1.499668E-05
7.313982E+03	2.452829E-04	1.507175E-05
7.323961E+03	2.457095E-04	1.514927E-05
7.333939E+03	2.460733E-04	1.522293E-05
7.343917E+03	2.465759E-04	1.530520E-05
7.353895E+03	2.470137E-04	1.538350E-05
7.363873E+03	2.475897E-04	1.547046E-05
7.373851E+03	2.482020E-04	1.555979E-05
7.383829E+03	2.487480E-04	1.564504E-05
7.393808E+03	2.494324E-04	1.573910E-05
7.403786E+03	2.500499E-04	1.582904E-05
7.413764E+03	2.508067E-04	1.592794E-05
7.423742E+03	2.516003E-04	1.602932E-05
7.433720E+03	2.523270E-04	1.612660E-05
7.443698E+03	2.531952E-04	1.623308E-05
7.453676E+03	2.539970E-04	1.633549E-05
7.463655E+03	2.549421E-04	1.644731E-05
7.473633E+03	2.558213E-04	1.655508E-05
7.483611E+03	2.568462E-04	1.667251E-05
7.493589E+03	2.578060E-04	1.678594E-05
7.503567E+03	2.588069E-04	1.690229E-05
7.513545E+03	2.599574E-04	1.702866E-05
7.523523E+03	2.610440E-04	1.715113E-05
7.533502E+03	2.622826E-04	1.728390E-05
7.543480E+03	2.634582E-04	1.741281E-05
7.553458E+03	2.646792E-04	1.754505E-05
7.563436E+03	2.660564E-04	1.768798E-05
7.573414E+03	2.673709E-04	1.782712E-05
7.583392E+03	2.687330E-04	1.796978E-05
7.593371E+03	2.702550E-04	1.812353E-05
7.603349E+03	2.717140E-04	1.827348E-05
7.613327E+03	2.732218E-04	1.842712E-05
7.623305E+03	2.748923E-04	1.859218E-05
7.633283E+03	2.764985E-04	1.875336E-05
7.643261E+03	2.781536E-04	1.891833E-05
7.653239E+03	2.798572E-04	1.908707E-05
7.663218E+03	2.817259E-04	1.926759E-05
7.673196E+03	2.835262E-04	1.944397E-05
7.683174E+03	2.853735E-04	1.962411E-05
7.693152E+03	2.872670E-04	1.980796E-05
7.703130E+03	2.892055E-04	1.999549E-05
7.713108E+03	2.913090E-04	2.019503E-05
7.723086E+03	2.933349E-04	2.038979E-05
7.733065E+03	2.954017E-04	2.058802E-05
7.743043E+03	2.975079E-04	2.078961E-05
