#wls	flux	fluxerr
1.594277E+03	2.630769E-05	1.725234E-06
1.634133E+03	2.686479E-05	1.754446E-06
1.673990E+03	2.743780E-05	1.784209E-06
1.713847E+03	2.803729E-05	1.815181E-06
1.753704E+03	2.865307E-05	1.846667E-06
1.793561E+03	2.929585E-05	1.879322E-06
1.833418E+03	2.995510E-05	1.912434E-06
1.873275E+03	3.064175E-05	1.946665E-06
1.913132E+03	3.135612E-05	1.981989E-06
1.952989E+03	3.208719E-05	2.017667E-06
1.992846E+03	3.283481E-05	2.053655E-06
2.032703E+03	3.362223E-05	2.091360E-06
2.072560E+03	3.442687E-05	2.129323E-06
2.112416E+03	3.524893E-05	2.167515E-06
2.152273E+03	3.610103E-05	2.206664E-06
2.192130E+03	3.698448E-05	2.246791E-06
2.231987E+03	3.790108E-05	2.287946E-06
2.271844E+03	3.884056E-05	2.329446E-06
2.311701E+03	3.981827E-05	2.372150E-06
2.351558E+03	4.082515E-05	2.415449E-06
2.391415E+03	4.189180E-05	2.461071E-06
2.431272E+03	4.299799E-05	2.507732E-06
2.471129E+03	4.416361E-05	2.556497E-06
2.510986E+03	4.538285E-05	2.606921E-06
2.550842E+03	4.669185E-05	2.660952E-06
2.590699E+03	4.807227E-05	2.717394E-06
2.630556E+03	4.954775E-05	2.777429E-06
2.670413E+03	5.112827E-05	2.841433E-06
2.710270E+03	5.280887E-05	2.908932E-06
2.750127E+03	5.463007E-05	2.981941E-06
2.789984E+03	5.658850E-05	3.060010E-06
2.829841E+03	5.868069E-05	3.142684E-06
2.869698E+03	6.093633E-05	3.231268E-06
2.909555E+03	6.337177E-05	3.326294E-06
2.949412E+03	6.600568E-05	3.428367E-06
2.989269E+03	6.885944E-05	3.538185E-06
2.999233E+03	6.960719E-05	3.566794E-06
3.009197E+03	7.038777E-05	3.596828E-06
3.019161E+03	7.116497E-05	3.626425E-06
3.029125E+03	7.195745E-05	3.656535E-06
3.039090E+03	7.278444E-05	3.688123E-06
3.049054E+03	7.360892E-05	3.719302E-06
3.059018E+03	7.446907E-05	3.751996E-06
3.068982E+03	7.532731E-05	3.784300E-06
3.078947E+03	7.622247E-05	3.818158E-06
3.088911E+03	7.711636E-05	3.851646E-06
3.098875E+03	7.804851E-05	3.886730E-06
3.108839E+03	7.900003E-05	3.922455E-06
3.118803E+03	7.997140E-05	3.958833E-06
3.128768E+03	8.096322E-05	3.995885E-06
3.138732E+03	8.197603E-05	4.033625E-06
3.148696E+03	8.301039E-05	4.072070E-06
3.158660E+03	8.406692E-05	4.111239E-06
3.168625E+03	8.514623E-05	4.151150E-06
3.178589E+03	8.624891E-05	4.191820E-06
3.188553E+03	8.739712E-05	4.234309E-06
3.198517E+03	8.854873E-05	4.276561E-06
3.208482E+03	8.972567E-05	4.319627E-06
3.218446E+03	9.095078E-05	4.364590E-06
3.228410E+03	9.218069E-05	4.409351E-06
3.238374E+03	9.346063E-05	4.456063E-06
3.248338E+03	9.476922E-05	4.503684E-06
3.258303E+03	9.608411E-05	4.551140E-06
3.268267E+03	9.745200E-05	4.600631E-06
3.278231E+03	9.885083E-05	4.651091E-06
3.288195E+03	1.002814E-04	4.702543E-06
3.298160E+03	1.017446E-04	4.755006E-06
3.308124E+03	1.032411E-04	4.808503E-06
3.318088E+03	1.047719E-04	4.863054E-06
3.328052E+03	1.063378E-04	4.918678E-06
3.338017E+03	1.079397E-04	4.975400E-06
3.347981E+03	1.096041E-04	5.034415E-06
3.357945E+03	1.112810E-04	5.093404E-06
3.367909E+03	1.129966E-04	5.153553E-06
3.377873E+03	1.147783E-04	5.216089E-06
3.387838E+03	1.165745E-04	5.278632E-06
3.397802E+03	1.184393E-04	5.343625E-06
3.407766E+03	1.203474E-04	5.409885E-06
3.417730E+03	1.222718E-04	5.476181E-06
3.427695E+03	1.242690E-04	5.545024E-06
3.437659E+03	1.263124E-04	5.615193E-06
3.447623E+03	1.284030E-04	5.686710E-06
3.457587E+03	1.305420E-04	5.759594E-06
3.467551E+03	1.327303E-04	5.833865E-06
3.477516E+03	1.349691E-04	5.909540E-06
3.487480E+03	1.372592E-04	5.986638E-06
3.497444E+03	1.396019E-04	6.065176E-06
3.507408E+03	1.419982E-04	6.145169E-06
3.517373E+03	1.444809E-04	6.228008E-06
3.527337E+03	1.469879E-04	6.310974E-06
3.537301E+03	1.495517E-04	6.395442E-06
3.547265E+03	1.522064E-04	6.482836E-06
3.557230E+03	1.549209E-04	6.571784E-06
3.567194E+03	1.576621E-04	6.660855E-06
3.577158E+03	1.604989E-04	6.752929E-06
3.587122E+03	1.633985E-04	6.846586E-06
3.597086E+03	1.663264E-04	6.940344E-06
3.607051E+03	1.693544E-04	7.037171E-06
3.617015E+03	1.724482E-04	7.135597E-06
3.626979E+03	1.756088E-04	7.235624E-06
3.636943E+03	1.788371E-04	7.337250E-06
3.646908E+03	1.821340E-04	7.440475E-06
3.656872E+03	1.855003E-04	7.545293E-06
3.666836E+03	1.889764E-04	7.653303E-06
3.676800E+03	1.924845E-04	7.761305E-06
3.686765E+03	1.960643E-04	7.870874E-06
3.696729E+03	1.997165E-04	7.981996E-06
3.706693E+03	2.034836E-04	8.096327E-06
3.716657E+03	2.072827E-04	8.210520E-06
3.726621E+03	2.111991E-04	8.327915E-06
3.736586E+03	2.151911E-04	8.446814E-06
3.746550E+03	2.192144E-04	8.565442E-06
3.756514E+03	2.233578E-04	8.687240E-06
3.766478E+03	2.275776E-04	8.810444E-06
3.776443E+03	2.318269E-04	8.933213E-06
3.786407E+03	2.361986E-04	9.059087E-06
3.796371E+03	2.406464E-04	9.186235E-06
3.806335E+03	2.451701E-04	9.314605E-06
3.816299E+03	2.497690E-04	9.444136E-06
3.826264E+03	2.544430E-04	9.574776E-06
3.836228E+03	2.591911E-04	9.706455E-06
3.846192E+03	2.640644E-04	9.841036E-06
3.856156E+03	2.689586E-04	9.974586E-06
3.866121E+03	2.739241E-04	1.010895E-05
3.876085E+03	2.790135E-04	1.024603E-05
3.886049E+03	2.841173E-04	1.038175E-05
3.896013E+03	2.892877E-04	1.051802E-05
3.905978E+03	2.945792E-04	1.065676E-05
3.915942E+03	2.998767E-04	1.079378E-05
3.925906E+03	3.052926E-04	1.093309E-05
3.935870E+03	3.107673E-04	1.107253E-05
3.945834E+03	3.162376E-04	1.120981E-05
3.955799E+03	3.218200E-04	1.134906E-05
3.965763E+03	3.274516E-04	1.148801E-05
3.975727E+03	3.331286E-04	1.162652E-05
3.985691E+03	3.387835E-04	1.176223E-05
3.995656E+03	3.445383E-04	1.189935E-05
4.005620E+03	3.503258E-04	1.203556E-05
4.015584E+03	3.561409E-04	1.217065E-05
4.025548E+03	3.619781E-04	1.230444E-05
4.035513E+03	3.678324E-04	1.243676E-05
4.045477E+03	3.737664E-04	1.256972E-05
4.055441E+03	3.796369E-04	1.269850E-05
4.065405E+03	3.855059E-04	1.282521E-05
4.075369E+03	3.913661E-04	1.294961E-05
4.085334E+03	3.972108E-04	1.307152E-05
4.095298E+03	4.031054E-04	1.319310E-05
4.105262E+03	4.088972E-04	1.330936E-05
4.115226E+03	4.146505E-04	1.342246E-05
4.125191E+03	4.204328E-04	1.353461E-05
4.135155E+03	4.260861E-04	1.364076E-05
4.145119E+03	4.317539E-04	1.374557E-05
4.155083E+03	4.372747E-04	1.384393E-05
4.165047E+03	4.427952E-04	1.394057E-05
4.175012E+03	4.482303E-04	1.403284E-05
4.184976E+03	4.534926E-04	1.411810E-05
4.194940E+03	4.587334E-04	1.420113E-05
4.204904E+03	4.637855E-04	1.427684E-05
4.214869E+03	4.688034E-04	1.435007E-05
4.224833E+03	4.737003E-04	1.441822E-05
4.234797E+03	4.784700E-04	1.448121E-05
4.244761E+03	4.831065E-04	1.453894E-05
4.254726E+03	4.875198E-04	1.458882E-05
4.264690E+03	4.918710E-04	1.463578E-05
4.274654E+03	4.960691E-04	1.467720E-05
4.284618E+03	5.001058E-04	1.471293E-05
4.294582E+03	5.039705E-04	1.474278E-05
4.304547E+03	5.076498E-04	1.476649E-05
4.314511E+03	5.111279E-04	1.478371E-05
4.324475E+03	5.143859E-04	1.479403E-05
4.334439E+03	5.174054E-04	1.479707E-05
4.344404E+03	5.201723E-04	1.479258E-05
4.354368E+03	5.226858E-04	1.478069E-05
4.364332E+03	5.249704E-04	1.476223E-05
4.374296E+03	5.270907E-04	1.473917E-05
4.384261E+03	5.291595E-04	1.471475E-05
4.394225E+03	5.313363E-04	1.469342E-05
4.404189E+03	5.338182E-04	1.468061E-05
4.414153E+03	5.368227E-04	1.468215E-05
4.424117E+03	5.406620E-04	1.470634E-05
4.434082E+03	5.453801E-04	1.475404E-05
4.444046E+03	5.512721E-04	1.483285E-05
4.454010E+03	5.585272E-04	1.494737E-05
4.463974E+03	5.673111E-04	1.510150E-05
4.473939E+03	5.777610E-04	1.529828E-05
4.483903E+03	5.900739E-04	1.554229E-05
4.493867E+03	6.041236E-04	1.582955E-05
4.503831E+03	6.200144E-04	1.616216E-05
4.513795E+03	6.376998E-04	1.653830E-05
4.523760E+03	6.570686E-04	1.695449E-05
4.533724E+03	6.780428E-04	1.740821E-05
4.543688E+03	7.001502E-04	1.788693E-05
4.553652E+03	7.231507E-04	1.838427E-05
4.563617E+03	7.466209E-04	1.888935E-05
4.573581E+03	7.700622E-04	1.938963E-05
4.583545E+03	7.930350E-04	1.987428E-05
4.593509E+03	8.146874E-04	2.032238E-05
4.603474E+03	8.345055E-04	2.072181E-05
4.613438E+03	8.518606E-04	2.105782E-05
4.623402E+03	8.661600E-04	2.131679E-05
4.633366E+03	8.768829E-04	2.148708E-05
4.643330E+03	8.836135E-04	2.155980E-05
4.653295E+03	8.862078E-04	2.153278E-05
4.663259E+03	8.842834E-04	2.139808E-05
4.673223E+03	8.780498E-04	2.116210E-05
4.683187E+03	8.677900E-04	2.083287E-05
4.693152E+03	8.540025E-04	2.042341E-05
4.703116E+03	8.373860E-04	1.995125E-05
4.713080E+03	8.187871E-04	1.943714E-05
4.723044E+03	7.991367E-04	1.890350E-05
4.733008E+03	7.793900E-04	1.837299E-05
4.742973E+03	7.604627E-04	1.786699E-05
4.752937E+03	7.431680E-04	1.740423E-05
4.762901E+03	7.281739E-04	1.699981E-05
4.772865E+03	7.159876E-04	1.666493E-05
4.782830E+03	7.068540E-04	1.640459E-05
4.792794E+03	7.011815E-04	1.622757E-05
4.802758E+03	6.989331E-04	1.613231E-05
4.812722E+03	7.000598E-04	1.611702E-05
4.822687E+03	7.044099E-04	1.617760E-05
4.832651E+03	7.116352E-04	1.630552E-05
4.842615E+03	7.216136E-04	1.649756E-05
4.852579E+03	7.338449E-04	1.674191E-05
4.862543E+03	7.477658E-04	1.702550E-05
4.872508E+03	7.630917E-04	1.734167E-05
4.882472E+03	7.790888E-04	1.767368E-05
4.892436E+03	7.954634E-04	1.801488E-05
4.902400E+03	8.115062E-04	1.834924E-05
4.912365E+03	8.270134E-04	1.867228E-05
4.922329E+03	8.413897E-04	1.897068E-05
4.932293E+03	8.544687E-04	1.924085E-05
4.942257E+03	8.661706E-04	1.948115E-05
4.952222E+03	8.761254E-04	1.968339E-05
4.962186E+03	8.843854E-04	1.984890E-05
4.972150E+03	8.909269E-04	1.997726E-05
4.982114E+03	8.957590E-04	2.006876E-05
4.992078E+03	8.989143E-04	2.012421E-05
5.002043E+03	9.004516E-04	2.014499E-05
5.012007E+03	9.004616E-04	2.013315E-05
5.021971E+03	8.990772E-04	2.009166E-05
5.031935E+03	8.964840E-04	2.002469E-05
5.041900E+03	8.929290E-04	1.993771E-05
5.051864E+03	8.885980E-04	1.983483E-05
5.061828E+03	8.840959E-04	1.972952E-05
5.071792E+03	8.797000E-04	1.962788E-05
5.081756E+03	8.757063E-04	1.953646E-05
5.091721E+03	8.727587E-04	1.946957E-05
5.101685E+03	8.709878E-04	1.943005E-05
5.111649E+03	8.708164E-04	1.942730E-05
5.121613E+03	8.725803E-04	1.946877E-05
5.131578E+03	8.761641E-04	1.955187E-05
5.141542E+03	8.816928E-04	1.967939E-05
5.151506E+03	8.890633E-04	1.984902E-05
5.161470E+03	8.980654E-04	2.005609E-05
5.171435E+03	9.083960E-04	2.029385E-05
5.181399E+03	9.196777E-04	2.055391E-05
5.191363E+03	9.314846E-04	2.082675E-05
5.201327E+03	9.432450E-04	2.109959E-05
5.211291E+03	9.547676E-04	2.136817E-05
5.221256E+03	9.655264E-04	2.162067E-05
5.231220E+03	9.750470E-04	2.184644E-05
5.241184E+03	9.833092E-04	2.204497E-05
5.251148E+03	9.898589E-04	2.220600E-05
5.261113E+03	9.947004E-04	2.232955E-05
5.271077E+03	9.977749E-04	2.241420E-05
5.281041E+03	9.990773E-04	2.245972E-05
5.291005E+03	9.986415E-04	2.246677E-05
5.300970E+03	9.965300E-04	2.243665E-05
5.310934E+03	9.928271E-04	2.237114E-05
5.320898E+03	9.876347E-04	2.227242E-05
5.330862E+03	9.810714E-04	2.214305E-05
5.340826E+03	9.731502E-04	2.198323E-05
5.350791E+03	9.642807E-04	2.180210E-05
5.360755E+03	9.543967E-04	2.159808E-05
5.370719E+03	9.438287E-04	2.137856E-05
5.380683E+03	9.329240E-04	2.115136E-05
5.390648E+03	9.216934E-04	2.091665E-05
5.400612E+03	9.105224E-04	2.068316E-05
5.410576E+03	8.996865E-04	2.045714E-05
5.420540E+03	8.893504E-04	2.024231E-05
5.430504E+03	8.800050E-04	2.004990E-05
5.440469E+03	8.717745E-04	1.988277E-05
5.450433E+03	8.647394E-04	1.974283E-05
5.460397E+03	8.592320E-04	1.963775E-05
5.470361E+03	8.550467E-04	1.956291E-05
5.480326E+03	8.521827E-04	1.951840E-05
5.490290E+03	8.505139E-04	1.950141E-05
5.500254E+03	8.494920E-04	1.949943E-05
5.510218E+03	8.488183E-04	1.950566E-05
5.520183E+03	8.479566E-04	1.950777E-05
5.530147E+03	8.466999E-04	1.950096E-05
5.540111E+03	8.445734E-04	1.947423E-05
5.550075E+03	8.411797E-04	1.941832E-05
5.560039E+03	8.365252E-04	1.933325E-05
5.570004E+03	8.302997E-04	1.921172E-05
5.579968E+03	8.225977E-04	1.905576E-05
5.589932E+03	8.134898E-04	1.886689E-05
5.599896E+03	8.031054E-04	1.864795E-05
5.609861E+03	7.916086E-04	1.840266E-05
5.619825E+03	7.791737E-04	1.813494E-05
5.629789E+03	7.659643E-04	1.784854E-05
5.639753E+03	7.520292E-04	1.754449E-05
5.649718E+03	7.376620E-04	1.722959E-05
5.659682E+03	7.227636E-04	1.690148E-05
5.669646E+03	7.074899E-04	1.656374E-05
5.679610E+03	6.919052E-04	1.621785E-05
5.689574E+03	6.760963E-04	1.586582E-05
5.699539E+03	6.601928E-04	1.551065E-05
5.709503E+03	6.443878E-04	1.515689E-05
5.719467E+03	6.288721E-04	1.480903E-05
5.729431E+03	6.141423E-04	1.447880E-05
5.739396E+03	6.004610E-04	1.417246E-05
5.749360E+03	5.883653E-04	1.390278E-05
5.759324E+03	5.784105E-04	1.368305E-05
5.769288E+03	5.709433E-04	1.352162E-05
5.779252E+03	5.664238E-04	1.342962E-05
5.789217E+03	5.653934E-04	1.342013E-05
5.799181E+03	5.681190E-04	1.349977E-05
5.809145E+03	5.747799E-04	1.367310E-05
5.819109E+03	5.856539E-04	1.394703E-05
5.829074E+03	6.006253E-04	1.431914E-05
5.839038E+03	6.196454E-04	1.478858E-05
5.849002E+03	6.424445E-04	1.534922E-05
5.858966E+03	6.685903E-04	1.599100E-05
5.868931E+03	6.974868E-04	1.669990E-05
5.878895E+03	7.283053E-04	1.745626E-05
5.888859E+03	7.603573E-04	1.824371E-05
5.898823E+03	7.925517E-04	1.903612E-05
5.908787E+03	8.241644E-04	1.981611E-05
5.918752E+03	8.541851E-04	2.055930E-05
5.928716E+03	8.820454E-04	2.125189E-05
5.938680E+03	9.073046E-04	2.188309E-05
5.948644E+03	9.296735E-04	2.244573E-05
5.958609E+03	9.494634E-04	2.294712E-05
5.968573E+03	9.669318E-04	2.339333E-05
5.978537E+03	9.825669E-04	2.379600E-05
5.988501E+03	9.972784E-04	2.417708E-05
5.998466E+03	1.012010E-03	2.455942E-05
6.008430E+03	1.027798E-03	2.496819E-05
6.018394E+03	1.045719E-03	2.542971E-05
6.028358E+03	1.066849E-03	2.597032E-05
6.038322E+03	1.092087E-03	2.661223E-05
6.048287E+03	1.122623E-03	2.738477E-05
6.058251E+03	1.159002E-03	2.830171E-05
6.068215E+03	1.201959E-03	2.938151E-05
6.078179E+03	1.251840E-03	3.063319E-05
6.088144E+03	1.308632E-03	3.205700E-05
6.098108E+03	1.371849E-03	3.364167E-05
6.108072E+03	1.440411E-03	3.536125E-05
6.118036E+03	1.512357E-03	3.716807E-05
6.128000E+03	1.585316E-03	3.900418E-05
6.137965E+03	1.656324E-03	4.079673E-05
6.147929E+03	1.721577E-03	4.245194E-05
6.157893E+03	1.778141E-03	4.389695E-05
6.167857E+03	1.823737E-03	4.507487E-05
6.177822E+03	1.856885E-03	4.594819E-05
6.187786E+03	1.877813E-03	4.652162E-05
6.197750E+03	1.887099E-03	4.680846E-05
6.207714E+03	1.887113E-03	4.686661E-05
6.217679E+03	1.879716E-03	4.674153E-05
6.227643E+03	1.867250E-03	4.649089E-05
6.237607E+03	1.851372E-03	4.615556E-05
6.247571E+03	1.832976E-03	4.575757E-05
6.257535E+03	1.813086E-03	4.532222E-05
6.267500E+03	1.791710E-03	4.484966E-05
6.277464E+03	1.768645E-03	4.433460E-05
6.287428E+03	1.744020E-03	4.378010E-05
6.297392E+03	1.717816E-03	4.318554E-05
6.307357E+03	1.690180E-03	4.255445E-05
6.317321E+03	1.661501E-03	4.189642E-05
6.327285E+03	1.632447E-03	4.122817E-05
6.337249E+03	1.603795E-03	4.056927E-05
6.347214E+03	1.577151E-03	3.996030E-05
6.357178E+03	1.553630E-03	3.942971E-05
6.367142E+03	1.535086E-03	3.902498E-05
6.377106E+03	1.523344E-03	3.879308E-05
6.387070E+03	1.520335E-03	3.878413E-05
6.397035E+03	1.528069E-03	3.905064E-05
6.406999E+03	1.548440E-03	3.964255E-05
6.416963E+03	1.583907E-03	4.062466E-05
6.426927E+03	1.636239E-03	4.204460E-05
6.436892E+03	1.707701E-03	4.396317E-05
6.446856E+03	1.800256E-03	4.643386E-05
6.456820E+03	1.915581E-03	4.950326E-05
6.466784E+03	2.054828E-03	5.320478E-05
6.476748E+03	2.218300E-03	5.755007E-05
6.486713E+03	2.404780E-03	6.251149E-05
6.496677E+03	2.612182E-03	6.803850E-05
6.506641E+03	2.835300E-03	7.399882E-05
6.516605E+03	3.067517E-03	8.022222E-05
6.526570E+03	3.299758E-03	8.647259E-05
6.536534E+03	3.521150E-03	9.246479E-05
6.546498E+03	3.719775E-03	9.788371E-05
6.556462E+03	3.883772E-03	1.024131E-04
6.566427E+03	4.002109E-03	1.057558E-04
6.576391E+03	4.067150E-03	1.077023E-04
6.586355E+03	4.074771E-03	1.081341E-04
6.596319E+03	4.023456E-03	1.070011E-04
6.606283E+03	3.917070E-03	1.043963E-04
6.616248E+03	3.762480E-03	1.004933E-04
6.626212E+03	3.568705E-03	9.552497E-05
6.636176E+03	3.347389E-03	8.979666E-05
6.646140E+03	3.108810E-03	8.357952E-05
6.656105E+03	2.863998E-03	7.716742E-05
6.666069E+03	2.621101E-03	7.077898E-05
6.676033E+03	2.387413E-03	6.461164E-05
6.685997E+03	2.167905E-03	5.880167E-05
6.695961E+03	1.965701E-03	5.343628E-05
6.705926E+03	1.782154E-03	4.855528E-05
6.715890E+03	1.618014E-03	4.418235E-05
6.725854E+03	1.472502E-03	4.029962E-05
6.735818E+03	1.344335E-03	3.687515E-05
6.745783E+03	1.232233E-03	3.387686E-05
6.755747E+03	1.134594E-03	3.126349E-05
6.765711E+03	1.049812E-03	2.899330E-05
6.775675E+03	9.763568E-04	2.702629E-05
6.785640E+03	9.128276E-04	2.532567E-05
6.795604E+03	8.578753E-04	2.385576E-05
6.805568E+03	8.106028E-04	2.259314E-05
6.815532E+03	7.698706E-04	2.150741E-05
6.825496E+03	7.349606E-04	2.057969E-05
6.835461E+03	7.051766E-04	1.979154E-05
6.845425E+03	6.799241E-04	1.912721E-05
6.855389E+03	6.586946E-04	1.857322E-05
6.865353E+03	6.410514E-04	1.811802E-05
6.875318E+03	6.266161E-04	1.775157E-05
6.885282E+03	6.149908E-04	1.746320E-05
6.895246E+03	6.060302E-04	1.724933E-05
6.905210E+03	5.993452E-04	1.709940E-05
6.915175E+03	5.947882E-04	1.700962E-05
6.925139E+03	5.921696E-04	1.697502E-05
6.935103E+03	5.913252E-04	1.699126E-05
6.945067E+03	5.921110E-04	1.705455E-05
6.955031E+03	5.943990E-04	1.716157E-05
6.964996E+03	5.980037E-04	1.730724E-05
6.974960E+03	6.029503E-04	1.749259E-05
6.984924E+03	6.089913E-04	1.771072E-05
6.994888E+03	6.160834E-04	1.796061E-05
7.004853E+03	6.241109E-04	1.823911E-05
7.014817E+03	6.329553E-04	1.854299E-05
7.024781E+03	6.424965E-04	1.886890E-05
7.034745E+03	6.526185E-04	1.921361E-05
7.044709E+03	6.632150E-04	1.957412E-05
7.054674E+03	6.741218E-04	1.994572E-05
7.064638E+03	6.854322E-04	2.033125E-05
7.074602E+03	6.969668E-04	2.072552E-05
7.084566E+03	7.089057E-04	2.113397E-05
7.094531E+03	7.211575E-04	2.155399E-05
7.104495E+03	7.339253E-04	2.199177E-05
7.114459E+03	7.473815E-04	2.245264E-05
7.124423E+03	7.617402E-04	2.294326E-05
7.134388E+03	7.771548E-04	2.346850E-05
7.144352E+03	7.940566E-04	2.404173E-05
7.154316E+03	8.125053E-04	2.466515E-05
7.164280E+03	8.328877E-04	2.535096E-05
7.174244E+03	8.551456E-04	2.609792E-05
7.184209E+03	8.794056E-04	2.691041E-05
7.194173E+03	9.055739E-04	2.778614E-05
7.204137E+03	9.334074E-04	2.871818E-05
7.214101E+03	9.625003E-04	2.969450E-05
7.224066E+03	9.922842E-04	3.069794E-05
7.234030E+03	1.022045E-03	3.170660E-05
7.243994E+03	1.050954E-03	3.269486E-05
7.253958E+03	1.078001E-03	3.363098E-05
7.263923E+03	1.102423E-03	3.449076E-05
7.273887E+03	1.123547E-03	3.525248E-05
7.283851E+03	1.140451E-03	3.588629E-05
7.293815E+03	1.152793E-03	3.638036E-05
7.303779E+03	1.160322E-03	3.672555E-05
7.313744E+03	1.163004E-03	3.691949E-05
7.323708E+03	1.160995E-03	3.696579E-05
7.333672E+03	1.154592E-03	3.687262E-05
7.343636E+03	1.144037E-03	3.664653E-05
7.353601E+03	1.130005E-03	3.630795E-05
7.363565E+03	1.112608E-03	3.585945E-05
7.373529E+03	1.092433E-03	3.531897E-05
7.383493E+03	1.069480E-03	3.468563E-05
7.393457E+03	1.044085E-03	3.396944E-05
7.403422E+03	1.016423E-03	3.317533E-05
7.413386E+03	9.866792E-04	3.230854E-05
7.423350E+03	9.550809E-04	3.137579E-05
7.433314E+03	9.219268E-04	3.038623E-05
7.443279E+03	8.875982E-04	2.935186E-05
7.453243E+03	8.525471E-04	2.828711E-05
7.463207E+03	8.171662E-04	2.720468E-05
7.473171E+03	7.821390E-04	2.612713E-05
7.483136E+03	7.477287E-04	2.506324E-05
7.493100E+03	7.144576E-04	2.403066E-05
7.503064E+03	6.827933E-04	2.304542E-05
7.513028E+03	6.528954E-04	2.211337E-05
7.522992E+03	6.251164E-04	2.124698E-05
7.532957E+03	5.996833E-04	2.045465E-05
7.542921E+03	5.767953E-04	1.974395E-05
7.552885E+03	5.566270E-04	1.912171E-05
7.562849E+03	5.393226E-04	1.859383E-05
7.572814E+03	5.249274E-04	1.816286E-05
7.582778E+03	5.136372E-04	1.783664E-05
7.592742E+03	5.053496E-04	1.761272E-05
7.602706E+03	5.001621E-04	1.749561E-05
7.612671E+03	4.978775E-04	1.747955E-05
7.622635E+03	4.984278E-04	1.756324E-05
7.632599E+03	5.016914E-04	1.774346E-05
7.642563E+03	5.073105E-04	1.800858E-05
7.652527E+03	5.150565E-04	1.835136E-05
7.662492E+03	5.245951E-04	1.876071E-05
7.672456E+03	5.355531E-04	1.922395E-05
7.682420E+03	5.475319E-04	1.972730E-05
7.692384E+03	5.600513E-04	2.025381E-05
7.702349E+03	5.728378E-04	2.079379E-05
7.712313E+03	5.854310E-04	2.133060E-05
7.722277E+03	5.973922E-04	2.184811E-05
7.732241E+03	6.085395E-04	2.233940E-05
