#wls	flux	fluxerr
1.588878E+03	2.114428E-04	1.153382E-05
1.628600E+03	2.007092E-04	1.092976E-05
1.668322E+03	1.898612E-04	1.032106E-05
1.708044E+03	1.790036E-04	9.713497E-06
1.747766E+03	1.682054E-04	9.110877E-06
1.787488E+03	1.575390E-04	8.517174E-06
1.827210E+03	1.470798E-04	7.936469E-06
1.866931E+03	1.369295E-04	7.374258E-06
1.906653E+03	1.271569E-04	6.834196E-06
1.946375E+03	1.178053E-04	6.318548E-06
1.986097E+03	1.089835E-04	5.833069E-06
2.025819E+03	1.007234E-04	5.379332E-06
2.065541E+03	9.309163E-05	4.960764E-06
2.105263E+03	8.610959E-05	4.578328E-06
2.144985E+03	7.982611E-05	4.234429E-06
2.184707E+03	7.427750E-05	3.930778E-06
2.224429E+03	6.946387E-05	3.667145E-06
2.264151E+03	6.540770E-05	3.444467E-06
2.303873E+03	6.210152E-05	3.262084E-06
2.343595E+03	5.958009E-05	3.121543E-06
2.383317E+03	5.780929E-05	3.020760E-06
2.423039E+03	5.681946E-05	2.961017E-06
2.462761E+03	5.660059E-05	2.941470E-06
2.502483E+03	5.716879E-05	2.962624E-06
2.542205E+03	5.854267E-05	3.025087E-06
2.581927E+03	6.077336E-05	3.131124E-06
2.621648E+03	6.394838E-05	3.284820E-06
2.661370E+03	6.818362E-05	3.491646E-06
2.701092E+03	7.368499E-05	3.761581E-06
2.740814E+03	8.072660E-05	4.107919E-06
2.780536E+03	8.961572E-05	4.545440E-06
2.820258E+03	1.007665E-04	5.094090E-06
2.859980E+03	1.146734E-04	5.777559E-06
2.899702E+03	1.319012E-04	6.622677E-06
2.939424E+03	1.531012E-04	7.660173E-06
2.979146E+03	1.790815E-04	8.928074E-06
2.989076E+03	1.864232E-04	9.285696E-06
2.999007E+03	1.941454E-04	9.661561E-06
3.008937E+03	2.022376E-04	1.005509E-05
3.018868E+03	2.107125E-04	1.046686E-05
3.028798E+03	2.196105E-04	1.089882E-05
3.038729E+03	2.289184E-04	1.135026E-05
3.048659E+03	2.387077E-04	1.182465E-05
3.058590E+03	2.489356E-04	1.231981E-05
3.068520E+03	2.596142E-04	1.283627E-05
3.078451E+03	2.708194E-04	1.337771E-05
3.088381E+03	2.825015E-04	1.394160E-05
3.098312E+03	2.947393E-04	1.453176E-05
3.108242E+03	3.074769E-04	1.514533E-05
3.118173E+03	3.207587E-04	1.578444E-05
3.128103E+03	3.346321E-04	1.645134E-05
3.138034E+03	3.490298E-04	1.714263E-05
3.147964E+03	3.640349E-04	1.786229E-05
3.157895E+03	3.796125E-04	1.860854E-05
3.167825E+03	3.957630E-04	1.938129E-05
3.177756E+03	4.125283E-04	2.018252E-05
3.187686E+03	4.299062E-04	2.101202E-05
3.197617E+03	4.477955E-04	2.186474E-05
3.207547E+03	4.663238E-04	2.274685E-05
3.217478E+03	4.853791E-04	2.365276E-05
3.227408E+03	5.049879E-04	2.458369E-05
3.237339E+03	5.251235E-04	2.553826E-05
3.247269E+03	5.457527E-04	2.651476E-05
3.257200E+03	5.668358E-04	2.751119E-05
3.267130E+03	5.883262E-04	2.852521E-05
3.277061E+03	6.101693E-04	2.955411E-05
3.286991E+03	6.323038E-04	3.059486E-05
3.296922E+03	6.547221E-04	3.164704E-05
3.306852E+03	6.773513E-04	3.270708E-05
3.316783E+03	7.000464E-04	3.376794E-05
3.326713E+03	7.227158E-04	3.482521E-05
3.336643E+03	7.453949E-04	3.588055E-05
3.346574E+03	7.678503E-04	3.692277E-05
3.356504E+03	7.900413E-04	3.794991E-05
3.366435E+03	8.119275E-04	3.896008E-05
3.376365E+03	8.332564E-04	3.994120E-05
3.386296E+03	8.540535E-04	4.089459E-05
3.396226E+03	8.742065E-04	4.181493E-05
3.406157E+03	8.935324E-04	4.269359E-05
3.416087E+03	9.119249E-04	4.352559E-05
3.426018E+03	9.294329E-04	4.431342E-05
3.435948E+03	9.458255E-04	4.504622E-05
3.445879E+03	9.611815E-04	4.572788E-05
3.455809E+03	9.753065E-04	4.634934E-05
3.465740E+03	9.883240E-04	4.691664E-05
3.475670E+03	1.000234E-03	4.742996E-05
3.485601E+03	1.010985E-03	4.788703E-05
3.495531E+03	1.020694E-03	4.829352E-05
3.505462E+03	1.029417E-03	4.865234E-05
3.515392E+03	1.037232E-03	4.896719E-05
3.525323E+03	1.044225E-03	4.924240E-05
3.535253E+03	1.050499E-03	4.948285E-05
3.545184E+03	1.056235E-03	4.969721E-05
3.555114E+03	1.061486E-03	4.988805E-05
3.565045E+03	1.066519E-03	5.006804E-05
3.574975E+03	1.071341E-03	5.023740E-05
3.584906E+03	1.076167E-03	5.040637E-05
3.594836E+03	1.081218E-03	5.058522E-05
3.604767E+03	1.086593E-03	5.077854E-05
3.614697E+03	1.092528E-03	5.099725E-05
3.624628E+03	1.099134E-03	5.124652E-05
3.634558E+03	1.106720E-03	5.154058E-05
3.644489E+03	1.115350E-03	5.188226E-05
3.654419E+03	1.125340E-03	5.228605E-05
3.664350E+03	1.136888E-03	5.276092E-05
3.674280E+03	1.150074E-03	5.331031E-05
3.684211E+03	1.165283E-03	5.395178E-05
3.694141E+03	1.182659E-03	5.469167E-05
3.704071E+03	1.202410E-03	5.553917E-05
3.714002E+03	1.224742E-03	5.650341E-05
3.723932E+03	1.249856E-03	5.759323E-05
3.733863E+03	1.278067E-03	5.882268E-05
3.743793E+03	1.309445E-03	6.019441E-05
3.753724E+03	1.344224E-03	6.171861E-05
3.763654E+03	1.382563E-03	6.340206E-05
3.773585E+03	1.424598E-03	6.525030E-05
3.783515E+03	1.470497E-03	6.727041E-05
3.793446E+03	1.520270E-03	6.946220E-05
3.803376E+03	1.574072E-03	7.183202E-05
3.813307E+03	1.631754E-03	7.437241E-05
3.823237E+03	1.693298E-03	7.708185E-05
3.833168E+03	1.758554E-03	7.995284E-05
3.843098E+03	1.827294E-03	8.297440E-05
3.853029E+03	1.899280E-03	8.613505E-05
3.862959E+03	1.974044E-03	8.941307E-05
3.872890E+03	2.051171E-03	9.278910E-05
3.882820E+03	2.130082E-03	9.623657E-05
3.892751E+03	2.210035E-03	9.972171E-05
3.902681E+03	2.290357E-03	1.032139E-04
3.912612E+03	2.370311E-03	1.066799E-04
3.922542E+03	2.448879E-03	1.100739E-04
3.932473E+03	2.525241E-03	1.133594E-04
3.942403E+03	2.598493E-03	1.164962E-04
3.952334E+03	2.667752E-03	1.194453E-04
3.962264E+03	2.732260E-03	1.221733E-04
3.972195E+03	2.791092E-03	1.246399E-04
3.982125E+03	2.843746E-03	1.268236E-04
3.992056E+03	2.889520E-03	1.286942E-04
4.001986E+03	2.928104E-03	1.302391E-04
4.011917E+03	2.959347E-03	1.314528E-04
4.021847E+03	2.983028E-03	1.323269E-04
4.031778E+03	2.999262E-03	1.328678E-04
4.041708E+03	3.008399E-03	1.330923E-04
4.051639E+03	3.010862E-03	1.330203E-04
4.061569E+03	3.007052E-03	1.326708E-04
4.071500E+03	2.997765E-03	1.320800E-04
4.081430E+03	2.983577E-03	1.312741E-04
4.091360E+03	2.965322E-03	1.302908E-04
4.101291E+03	2.943712E-03	1.291619E-04
4.111221E+03	2.919456E-03	1.279194E-04
4.121152E+03	2.893440E-03	1.266022E-04
4.131082E+03	2.866190E-03	1.252339E-04
4.141013E+03	2.838452E-03	1.238472E-04
4.150943E+03	2.810850E-03	1.224694E-04
4.160874E+03	2.783902E-03	1.211229E-04
4.170804E+03	2.758070E-03	1.198279E-04
4.180735E+03	2.733812E-03	1.186038E-04
4.190665E+03	2.711470E-03	1.174654E-04
4.200596E+03	2.691386E-03	1.164270E-04
4.210526E+03	2.673794E-03	1.154984E-04
4.220457E+03	2.658937E-03	1.146894E-04
4.230387E+03	2.646917E-03	1.140042E-04
4.240318E+03	2.637905E-03	1.134494E-04
4.250248E+03	2.631992E-03	1.130283E-04
4.260179E+03	2.629285E-03	1.127451E-04
4.270109E+03	2.629771E-03	1.125986E-04
4.280040E+03	2.633445E-03	1.125878E-04
4.289970E+03	2.640262E-03	1.127104E-04
4.299901E+03	2.650131E-03	1.129618E-04
4.309831E+03	2.662865E-03	1.133335E-04
4.319762E+03	2.678276E-03	1.138168E-04
4.329692E+03	2.696099E-03	1.144002E-04
4.339623E+03	2.716065E-03	1.150716E-04
4.349553E+03	2.737998E-03	1.158232E-04
4.359484E+03	2.761731E-03	1.166476E-04
4.369414E+03	2.787627E-03	1.175597E-04
4.379345E+03	2.816184E-03	1.185801E-04
4.389275E+03	2.848010E-03	1.197339E-04
4.399206E+03	2.883751E-03	1.210473E-04
4.409136E+03	2.923931E-03	1.225417E-04
4.419067E+03	2.968933E-03	1.242322E-04
4.428997E+03	3.019217E-03	1.261371E-04
4.438928E+03	3.075034E-03	1.282657E-04
4.448858E+03	3.136659E-03	1.306283E-04
4.458788E+03	3.204081E-03	1.332234E-04
4.468719E+03	3.277237E-03	1.360472E-04
4.478649E+03	3.355776E-03	1.390839E-04
4.488580E+03	3.439148E-03	1.423096E-04
4.498510E+03	3.526470E-03	1.456869E-04
4.508441E+03	3.616798E-03	1.491760E-04
4.518371E+03	3.708708E-03	1.527177E-04
4.528302E+03	3.800642E-03	1.562475E-04
4.538232E+03	3.890935E-03	1.596970E-04
4.548163E+03	3.977607E-03	1.629855E-04
4.558093E+03	4.058641E-03	1.660310E-04
4.568024E+03	4.132032E-03	1.687530E-04
4.577954E+03	4.195874E-03	1.710751E-04
4.587885E+03	4.248396E-03	1.729272E-04
4.597815E+03	4.288205E-03	1.742549E-04
4.607746E+03	4.314178E-03	1.750154E-04
4.617676E+03	4.325566E-03	1.751812E-04
4.627607E+03	4.321968E-03	1.747389E-04
4.637537E+03	4.303428E-03	1.736935E-04
4.647468E+03	4.270446E-03	1.720682E-04
4.657398E+03	4.223743E-03	1.698951E-04
4.667329E+03	4.164586E-03	1.672278E-04
4.677259E+03	4.094398E-03	1.641261E-04
4.687190E+03	4.014926E-03	1.606620E-04
4.697120E+03	3.928133E-03	1.569161E-04
4.707051E+03	3.836096E-03	1.529727E-04
4.716981E+03	3.741051E-03	1.489220E-04
4.726912E+03	3.645239E-03	1.448536E-04
4.736842E+03	3.550996E-03	1.408605E-04
4.746773E+03	3.460492E-03	1.370282E-04
4.756703E+03	3.375958E-03	1.334443E-04
4.766634E+03	3.299408E-03	1.301869E-04
4.776564E+03	3.232789E-03	1.273311E-04
4.786495E+03	3.177994E-03	1.249492E-04
4.796425E+03	3.136671E-03	1.231035E-04
4.806356E+03	3.110389E-03	1.218527E-04
4.816286E+03	3.100442E-03	1.212440E-04
4.826216E+03	3.108044E-03	1.213215E-04
4.836147E+03	3.134136E-03	1.221182E-04
4.846077E+03	3.179309E-03	1.236530E-04
4.856008E+03	3.243817E-03	1.259318E-04
4.865938E+03	3.327249E-03	1.289346E-04
4.875869E+03	3.428573E-03	1.326174E-04
4.885799E+03	3.545829E-03	1.369007E-04
4.895730E+03	3.676152E-03	1.416707E-04
4.905660E+03	3.815481E-03	1.467684E-04
4.915591E+03	3.958846E-03	1.520010E-04
4.925521E+03	4.100411E-03	1.571440E-04
4.935452E+03	4.233810E-03	1.619543E-04
4.945382E+03	4.352889E-03	1.661986E-04
4.955313E+03	4.452220E-03	1.696732E-04
4.965243E+03	4.528118E-03	1.722422E-04
4.975174E+03	4.578704E-03	1.738392E-04
4.985104E+03	4.604422E-03	1.744866E-04
4.995035E+03	4.607699E-03	1.742814E-04
5.004965E+03	4.592521E-03	1.733790E-04
5.014896E+03	4.563789E-03	1.719680E-04
5.024826E+03	4.526672E-03	1.702458E-04
5.034757E+03	4.486225E-03	1.684041E-04
5.044687E+03	4.446791E-03	1.666060E-04
5.054618E+03	4.411992E-03	1.649871E-04
5.064548E+03	4.384355E-03	1.636406E-04
5.074479E+03	4.365609E-03	1.626294E-04
5.084409E+03	4.356719E-03	1.619875E-04
5.094340E+03	4.357759E-03	1.617157E-04
5.104270E+03	4.368369E-03	1.617983E-04
5.114201E+03	4.387877E-03	1.622087E-04
5.124131E+03	4.415253E-03	1.629069E-04
5.134062E+03	4.449440E-03	1.638524E-04
5.143992E+03	4.489586E-03	1.650124E-04
5.153923E+03	4.535032E-03	1.663615E-04
5.163853E+03	4.585215E-03	1.678781E-04
5.173784E+03	4.639958E-03	1.695547E-04
5.183714E+03	4.699293E-03	1.713916E-04
5.193644E+03	4.763228E-03	1.733881E-04
5.203575E+03	4.832011E-03	1.755524E-04
5.213505E+03	4.905689E-03	1.778853E-04
5.223436E+03	4.984194E-03	1.803831E-04
5.233366E+03	5.067178E-03	1.830326E-04
5.243297E+03	5.154010E-03	1.858101E-04
5.253227E+03	5.243817E-03	1.886834E-04
5.263158E+03	5.335311E-03	1.916057E-04
5.273088E+03	5.427060E-03	1.945256E-04
5.283019E+03	5.517582E-03	1.973899E-04
5.292949E+03	5.605511E-03	2.001503E-04
5.302880E+03	5.689596E-03	2.027630E-04
5.312810E+03	5.769020E-03	2.051995E-04
5.322741E+03	5.843438E-03	2.074490E-04
5.332671E+03	5.913110E-03	2.095215E-04
5.342602E+03	5.978651E-03	2.114400E-04
5.352532E+03	6.041369E-03	2.132516E-04
5.362463E+03	6.102758E-03	2.150097E-04
5.372393E+03	6.164576E-03	2.167763E-04
5.382324E+03	6.228569E-03	2.186129E-04
5.392254E+03	6.296261E-03	2.205725E-04
5.402185E+03	6.368642E-03	2.226891E-04
5.412115E+03	6.446215E-03	2.249795E-04
5.422046E+03	6.528470E-03	2.274250E-04
5.431976E+03	6.614200E-03	2.299830E-04
5.441907E+03	6.701479E-03	2.325860E-04
5.451837E+03	6.787229E-03	2.351273E-04
5.461768E+03	6.867806E-03	2.374814E-04
5.471698E+03	6.938544E-03	2.394883E-04
5.481629E+03	6.994411E-03	2.409768E-04
5.491559E+03	7.030785E-03	2.417908E-04
5.501490E+03	7.043839E-03	2.418028E-04
5.511420E+03	7.030539E-03	2.409130E-04
5.521351E+03	6.989086E-03	2.390651E-04
5.531281E+03	6.918402E-03	2.362270E-04
5.541212E+03	6.818549E-03	2.324064E-04
5.551142E+03	6.690338E-03	2.276358E-04
5.561072E+03	6.535329E-03	2.219733E-04
5.571003E+03	6.355877E-03	2.155031E-04
5.580933E+03	6.155203E-03	2.083386E-04
5.590864E+03	5.937540E-03	2.006261E-04
5.600794E+03	5.708082E-03	1.925436E-04
5.610725E+03	5.473315E-03	1.843111E-04
5.620655E+03	5.240602E-03	1.761770E-04
5.630586E+03	5.017807E-03	1.684043E-04
5.640516E+03	4.812741E-03	1.612530E-04
5.650447E+03	4.632581E-03	1.549597E-04
5.660377E+03	4.483611E-03	1.497300E-04
5.670308E+03	4.370984E-03	1.457303E-04
5.680238E+03	4.298596E-03	1.430843E-04
5.690169E+03	4.269390E-03	1.418831E-04
5.700099E+03	4.285331E-03	1.421850E-04
5.710030E+03	4.347443E-03	1.440166E-04
5.719960E+03	4.455825E-03	1.473740E-04
5.729891E+03	4.609674E-03	1.522238E-04
5.739821E+03	4.807117E-03	1.584971E-04
5.749752E+03	5.044756E-03	1.660759E-04
5.759682E+03	5.317617E-03	1.747908E-04
5.769613E+03	5.619061E-03	1.844190E-04
5.779543E+03	5.940770E-03	1.946841E-04
5.789474E+03	6.273186E-03	2.052708E-04
5.799404E+03	6.605968E-03	2.158403E-04
5.809335E+03	6.928775E-03	2.260555E-04
5.819265E+03	7.231936E-03	2.356034E-04
5.829196E+03	7.506835E-03	2.442069E-04
5.839126E+03	7.746554E-03	2.516458E-04
5.849057E+03	7.946123E-03	2.577642E-04
5.858987E+03	8.102238E-03	2.624609E-04
5.868918E+03	8.213674E-03	2.657024E-04
5.878848E+03	8.280708E-03	2.675040E-04
5.888779E+03	8.305225E-03	2.679325E-04
5.898709E+03	8.289875E-03	2.670790E-04
5.908640E+03	8.238622E-03	2.650761E-04
5.918570E+03	8.155825E-03	2.620685E-04
5.928500E+03	8.046399E-03	2.582179E-04
5.938431E+03	7.915554E-03	2.536944E-04
5.948361E+03	7.768570E-03	2.486695E-04
5.958292E+03	7.610623E-03	2.433104E-04
5.968222E+03	7.446841E-03	2.377819E-04
5.978153E+03	7.282133E-03	2.322411E-04
5.988083E+03	7.120770E-03	2.268238E-04
5.998014E+03	6.966656E-03	2.216536E-04
6.007944E+03	6.822930E-03	2.168293E-04
6.017875E+03	6.691884E-03	2.124222E-04
6.027805E+03	6.575300E-03	2.084874E-04
6.037736E+03	6.473909E-03	2.050461E-04
6.047666E+03	6.387971E-03	2.021049E-04
6.057597E+03	6.317273E-03	1.996553E-04
6.067527E+03	6.261408E-03	1.976830E-04
6.077458E+03	6.219586E-03	1.961613E-04
6.087388E+03	6.190996E-03	1.950635E-04
6.097319E+03	6.174625E-03	1.943562E-04
6.107249E+03	6.169254E-03	1.940002E-04
6.117180E+03	6.173560E-03	1.939528E-04
6.127110E+03	6.185715E-03	1.941559E-04
6.137041E+03	6.203728E-03	1.945464E-04
6.146971E+03	6.225436E-03	1.950562E-04
6.156902E+03	6.248310E-03	1.956058E-04
6.166832E+03	6.270006E-03	1.961221E-04
6.176763E+03	6.288166E-03	1.965314E-04
6.186693E+03	6.301013E-03	1.967787E-04
6.196624E+03	6.307059E-03	1.968179E-04
6.206554E+03	6.305677E-03	1.966298E-04
6.216485E+03	6.296701E-03	1.962098E-04
6.226415E+03	6.280586E-03	1.955724E-04
6.236346E+03	6.258526E-03	1.947551E-04
6.246276E+03	6.231837E-03	1.937992E-04
6.256207E+03	6.202203E-03	1.927571E-04
6.266137E+03	6.171300E-03	1.916809E-04
6.276068E+03	6.140358E-03	1.906087E-04
6.285998E+03	6.110313E-03	1.895695E-04
6.295929E+03	6.081720E-03	1.885803E-04
6.305859E+03	6.054606E-03	1.876417E-04
6.315789E+03	6.028241E-03	1.867310E-04
6.325720E+03	6.001448E-03	1.858116E-04
6.335650E+03	5.972196E-03	1.848204E-04
6.345581E+03	5.937962E-03	1.836795E-04
6.355511E+03	5.896225E-03	1.823111E-04
6.365442E+03	5.844805E-03	1.806478E-04
6.375372E+03	5.782142E-03	1.786417E-04
6.385303E+03	5.707882E-03	1.762822E-04
6.395233E+03	5.623234E-03	1.736068E-04
6.405164E+03	5.530749E-03	1.706943E-04
6.415094E+03	5.434443E-03	1.676687E-04
6.425025E+03	5.339407E-03	1.646871E-04
6.434955E+03	5.251515E-03	1.619301E-04
6.444886E+03	5.176639E-03	1.595786E-04
6.454816E+03	5.120239E-03	1.578003E-04
6.464747E+03	5.087290E-03	1.567479E-04
6.474677E+03	5.081590E-03	1.565379E-04
6.484608E+03	5.105685E-03	1.572480E-04
6.494538E+03	5.160669E-03	1.589114E-04
6.504469E+03	5.246019E-03	1.615114E-04
6.514399E+03	5.359254E-03	1.649714E-04
6.524330E+03	5.496143E-03	1.691608E-04
6.534260E+03	5.650879E-03	1.739007E-04
6.544191E+03	5.816603E-03	1.789801E-04
6.554121E+03	5.985552E-03	1.841601E-04
6.564052E+03	6.149819E-03	1.891977E-04
6.573982E+03	6.301982E-03	1.938648E-04
6.583913E+03	6.435725E-03	1.979673E-04
6.593843E+03	6.546178E-03	2.013556E-04
6.603774E+03	6.630302E-03	2.039366E-04
6.613704E+03	6.686969E-03	2.056757E-04
6.623635E+03	6.716465E-03	2.065817E-04
6.633565E+03	6.720673E-03	2.067127E-04
6.643496E+03	6.702091E-03	2.061454E-04
6.653426E+03	6.663589E-03	2.049680E-04
6.663357E+03	6.607957E-03	2.032662E-04
6.673287E+03	6.537476E-03	2.011100E-04
6.683217E+03	6.454116E-03	1.985599E-04
6.693148E+03	6.359134E-03	1.956543E-04
6.703078E+03	6.253686E-03	1.924287E-04
6.713009E+03	6.138564E-03	1.889071E-04
6.722939E+03	6.014441E-03	1.851100E-04
6.732870E+03	5.882160E-03	1.810631E-04
6.742800E+03	5.743209E-03	1.768121E-04
6.752731E+03	5.599183E-03	1.724057E-04
6.762661E+03	5.452517E-03	1.679187E-04
6.772592E+03	5.306238E-03	1.634440E-04
6.782522E+03	5.163800E-03	1.590881E-04
6.792453E+03	5.029120E-03	1.549715E-04
6.802383E+03	4.906354E-03	1.512222E-04
6.812314E+03	4.799758E-03	1.479717E-04
6.822244E+03	4.713539E-03	1.453498E-04
6.832175E+03	4.651393E-03	1.434709E-04
6.842105E+03	4.616649E-03	1.424384E-04
6.852036E+03	4.611910E-03	1.423330E-04
6.861966E+03	4.638566E-03	1.431988E-04
6.871897E+03	4.696918E-03	1.450457E-04
6.881827E+03	4.785788E-03	1.478385E-04
6.891758E+03	4.902629E-03	1.514994E-04
6.901688E+03	5.043549E-03	1.559093E-04
6.911619E+03	5.203095E-03	1.609005E-04
6.921549E+03	5.374633E-03	1.662686E-04
6.931480E+03	5.550795E-03	1.717863E-04
6.941410E+03	5.723604E-03	1.772070E-04
6.951341E+03	5.885340E-03	1.822918E-04
6.961271E+03	6.029426E-03	1.868367E-04
6.971202E+03	6.150534E-03	1.906760E-04
6.981132E+03	6.245242E-03	1.937028E-04
6.991063E+03	6.312061E-03	1.958699E-04
7.000993E+03	6.351644E-03	1.971965E-04
7.010924E+03	6.366020E-03	1.977444E-04
7.020854E+03	6.358526E-03	1.976164E-04
7.030785E+03	6.333287E-03	1.969394E-04
7.040715E+03	6.294762E-03	1.958514E-04
7.050645E+03	6.247370E-03	1.944893E-04
7.060576E+03	6.195340E-03	1.929843E-04
7.070506E+03	6.142214E-03	1.914465E-04
7.080437E+03	6.091189E-03	1.899755E-04
7.090367E+03	6.044890E-03	1.886534E-04
7.100298E+03	6.005209E-03	1.875395E-04
7.110228E+03	5.973517E-03	1.866770E-04
7.120159E+03	5.950649E-03	1.860926E-04
7.130089E+03	5.936949E-03	1.857975E-04
7.140020E+03	5.932360E-03	1.857908E-04
7.149950E+03	5.936182E-03	1.860512E-04
7.159881E+03	5.947755E-03	1.865585E-04
7.169811E+03	5.965657E-03	1.872689E-04
7.179742E+03	5.988603E-03	1.881424E-04
7.189672E+03	6.014877E-03	1.891258E-04
7.199603E+03	6.042745E-03	1.901647E-04
7.209533E+03	6.070184E-03	1.911957E-04
7.219464E+03	6.095218E-03	1.921567E-04
7.229394E+03	6.115741E-03	1.929810E-04
7.239325E+03	6.129632E-03	1.936014E-04
7.249255E+03	6.135157E-03	1.939626E-04
7.259186E+03	6.130872E-03	1.940183E-04
7.269116E+03	6.115756E-03	1.937351E-04
7.279047E+03	6.089642E-03	1.931070E-04
7.288977E+03	6.052768E-03	1.921402E-04
7.298908E+03	6.006018E-03	1.908618E-04
7.308838E+03	5.950759E-03	1.893143E-04
7.318769E+03	5.888444E-03	1.875430E-04
7.328699E+03	5.820797E-03	1.856021E-04
7.338630E+03	5.749339E-03	1.835393E-04
7.348560E+03	5.675477E-03	1.813992E-04
7.358491E+03	5.600485E-03	1.792221E-04
7.368421E+03	5.525292E-03	1.770375E-04
7.378352E+03	5.450351E-03	1.748598E-04
7.388282E+03	5.376083E-03	1.727025E-04
7.398213E+03	5.302624E-03	1.705698E-04
7.408143E+03	5.229874E-03	1.684585E-04
7.418073E+03	5.157657E-03	1.663629E-04
7.428004E+03	5.085529E-03	1.642686E-04
7.437934E+03	5.012971E-03	1.621586E-04
7.447865E+03	4.939420E-03	1.600146E-04
7.457795E+03	4.864334E-03	1.578186E-04
7.467726E+03	4.787156E-03	1.555521E-04
7.477656E+03	4.707729E-03	1.532096E-04
7.487587E+03	4.625910E-03	1.507859E-04
7.497517E+03	4.542269E-03	1.482990E-04
7.507448E+03	4.457608E-03	1.457746E-04
7.517378E+03	4.373239E-03	1.432551E-04
7.527309E+03	4.290618E-03	1.407881E-04
7.537239E+03	4.211696E-03	1.384377E-04
7.547170E+03	4.138519E-03	1.362715E-04
7.557100E+03	4.073417E-03	1.343672E-04
7.567031E+03	4.018723E-03	1.328029E-04
7.576961E+03	3.977026E-03	1.316661E-04
7.586892E+03	3.950691E-03	1.310374E-04
7.596822E+03	3.941449E-03	1.309770E-04
7.606753E+03	3.950403E-03	1.315247E-04
7.616683E+03	3.977629E-03	1.326864E-04
7.626614E+03	4.022561E-03	1.344469E-04
7.636544E+03	4.083920E-03	1.367667E-04
7.646475E+03	4.159877E-03	1.395878E-04
7.656405E+03	4.248160E-03	1.428368E-04
7.666336E+03	4.346257E-03	1.464318E-04
7.676266E+03	4.451303E-03	1.502782E-04
7.686197E+03	4.560435E-03	1.542807E-04
7.696127E+03	4.670699E-03	1.583402E-04
7.706058E+03	4.779351E-03	1.623639E-04
