#wls	flux	fluxerr
1.588878E+03	3.322706E-05	8.046597E-06
1.628600E+03	3.188160E-05	7.666469E-06
1.668322E+03	3.056554E-05	7.296904E-06
1.708044E+03	2.929017E-05	6.940546E-06
1.747766E+03	2.805604E-05	6.597426E-06
1.787488E+03	2.687340E-05	6.269831E-06
1.827210E+03	2.574692E-05	5.958669E-06
1.866931E+03	2.468086E-05	5.664713E-06
1.906653E+03	2.367907E-05	5.388598E-06
1.946375E+03	2.274495E-05	5.130816E-06
1.986097E+03	2.188147E-05	4.891724E-06
2.025819E+03	2.109462E-05	4.672307E-06
2.065541E+03	2.038285E-05	4.471830E-06
2.105263E+03	1.975119E-05	4.290991E-06
2.144985E+03	1.920089E-05	4.129611E-06
2.184707E+03	1.873012E-05	3.986824E-06
2.224429E+03	1.834600E-05	3.863652E-06
2.264151E+03	1.804659E-05	3.759145E-06
2.303873E+03	1.783598E-05	3.673591E-06
2.343595E+03	1.771287E-05	3.606126E-06
2.383317E+03	1.768192E-05	3.557070E-06
2.423039E+03	1.774552E-05	3.526236E-06
2.462761E+03	1.790674E-05	3.513514E-06
2.502483E+03	1.817208E-05	3.519411E-06
2.542205E+03	1.854367E-05	3.543503E-06
2.581927E+03	1.902998E-05	3.586521E-06
2.621648E+03	1.964082E-05	3.649321E-06
2.661370E+03	2.038184E-05	3.731869E-06
2.701092E+03	2.126275E-05	3.834770E-06
2.740814E+03	2.230076E-05	3.959822E-06
2.780536E+03	2.350315E-05	4.106859E-06
2.820258E+03	2.489435E-05	4.278545E-06
2.859980E+03	2.648577E-05	4.475022E-06
2.899702E+03	2.830111E-05	4.698297E-06
2.939424E+03	3.036839E-05	4.950750E-06
2.979146E+03	3.271747E-05	5.234679E-06
2.989076E+03	3.335191E-05	5.310750E-06
2.999007E+03	3.400891E-05	5.389348E-06
3.008937E+03	3.468512E-05	5.469888E-06
3.018868E+03	3.538540E-05	5.553085E-06
3.028798E+03	3.610639E-05	5.638352E-06
3.038729E+03	3.685319E-05	5.726431E-06
3.048659E+03	3.762242E-05	5.816733E-06
3.058590E+03	3.841943E-05	5.910026E-06
3.068520E+03	3.924542E-05	6.006421E-06
3.078451E+03	4.009700E-05	6.105332E-06
3.088381E+03	4.098001E-05	6.207576E-06
3.098312E+03	4.189113E-05	6.312572E-06
3.108242E+03	4.283654E-05	6.421178E-06
3.118173E+03	4.381298E-05	6.532819E-06
3.128103E+03	4.482705E-05	6.648394E-06
3.138034E+03	4.587559E-05	6.767341E-06
3.147964E+03	4.697087E-05	6.891373E-06
3.157895E+03	4.809956E-05	7.018425E-06
3.167825E+03	4.927976E-05	7.151039E-06
3.177756E+03	5.050347E-05	7.287928E-06
3.187686E+03	5.177326E-05	7.429350E-06
3.197617E+03	5.310344E-05	7.577227E-06
3.207547E+03	5.448024E-05	7.729453E-06
3.217478E+03	5.592454E-05	7.888851E-06
3.227408E+03	5.742856E-05	8.054158E-06
3.237339E+03	5.900250E-05	8.226643E-06
3.247269E+03	6.064471E-05	8.405898E-06
3.257200E+03	6.236641E-05	8.593292E-06
3.267130E+03	6.417313E-05	8.789378E-06
3.277061E+03	6.607089E-05	8.994757E-06
3.286991E+03	6.805923E-05	9.209131E-06
3.296922E+03	7.015182E-05	9.434106E-06
3.306852E+03	7.234895E-05	9.669452E-06
3.316783E+03	7.466580E-05	9.916913E-06
3.326713E+03	7.711120E-05	1.017735E-05
3.336643E+03	7.969472E-05	1.045168E-05
3.346574E+03	8.241851E-05	1.073982E-05
3.356504E+03	8.530140E-05	1.104386E-05
3.366435E+03	8.835519E-05	1.136489E-05
3.376365E+03	9.158375E-05	1.170297E-05
3.386296E+03	9.500915E-05	1.206045E-05
3.396226E+03	9.864585E-05	1.243864E-05
3.406157E+03	1.024998E-04	1.283773E-05
3.416087E+03	1.066065E-04	1.326157E-05
3.426018E+03	1.109637E-04	1.370923E-05
3.435948E+03	1.155998E-04	1.418354E-05
3.445879E+03	1.205233E-04	1.468481E-05
3.455809E+03	1.257650E-04	1.521601E-05
3.465740E+03	1.313465E-04	1.577891E-05
3.475670E+03	1.372905E-04	1.637533E-05
3.485601E+03	1.436204E-04	1.700710E-05
3.495531E+03	1.503476E-04	1.767453E-05
3.505462E+03	1.575101E-04	1.838104E-05
3.515392E+03	1.651347E-04	1.912857E-05
3.525323E+03	1.732340E-04	1.991737E-05
3.535253E+03	1.818506E-04	2.075108E-05
3.545184E+03	1.910142E-04	2.163168E-05
3.555114E+03	2.007557E-04	2.256123E-05
3.565045E+03	2.111066E-04	2.354172E-05
3.574975E+03	2.220804E-04	2.457305E-05
3.584906E+03	2.337278E-04	2.565916E-05
3.594836E+03	2.460821E-04	2.680192E-05
3.604767E+03	2.591780E-04	2.800321E-05
3.614697E+03	2.730270E-04	2.926236E-05
3.624628E+03	2.876848E-04	3.058330E-05
3.634558E+03	3.031856E-04	3.196754E-05
3.644489E+03	3.195636E-04	3.341647E-05
3.654419E+03	3.368253E-04	3.492846E-05
3.664350E+03	3.550562E-04	3.651003E-05
3.674280E+03	3.742315E-04	3.815614E-05
3.684211E+03	3.943766E-04	3.986689E-05
3.694141E+03	4.155793E-04	4.164860E-05
3.704071E+03	4.377999E-04	4.349460E-05
3.714002E+03	4.610902E-04	4.540737E-05
3.723932E+03	4.854674E-04	4.738585E-05
3.733863E+03	5.109049E-04	4.942470E-05
3.743793E+03	5.374454E-04	5.152531E-05
3.753724E+03	5.650903E-04	5.368503E-05
3.763654E+03	5.938342E-04	5.590058E-05
3.773585E+03	6.236184E-04	5.816371E-05
3.783515E+03	6.544645E-04	6.047386E-05
3.793446E+03	6.863429E-04	6.282569E-05
3.803376E+03	7.191624E-04	6.520841E-05
3.813307E+03	7.529216E-04	6.761962E-05
3.823237E+03	7.875604E-04	7.005174E-05
3.833168E+03	8.229486E-04	7.249124E-05
3.843098E+03	8.590574E-04	7.493389E-05
3.853029E+03	8.957915E-04	7.736989E-05
3.862959E+03	9.330425E-04	7.978860E-05
3.872890E+03	9.706264E-04	8.217343E-05
3.882820E+03	1.008406E-03	8.451240E-05
3.892751E+03	1.046307E-03	8.679907E-05
3.902681E+03	1.084181E-03	8.902140E-05
3.912612E+03	1.121874E-03	9.116736E-05
3.922542E+03	1.159148E-03	9.321870E-05
3.932473E+03	1.195840E-03	9.516383E-05
3.942403E+03	1.231865E-03	9.699813E-05
3.952334E+03	1.267071E-03	9.871185E-05
3.962264E+03	1.301227E-03	1.002898E-04
3.972195E+03	1.334281E-03	1.017310E-04
3.982125E+03	1.366023E-03	1.030231E-04
3.992056E+03	1.396348E-03	1.041620E-04
4.001986E+03	1.425255E-03	1.051517E-04
4.011917E+03	1.452684E-03	1.059919E-04
4.021847E+03	1.478501E-03	1.066771E-04
4.031778E+03	1.502689E-03	1.072107E-04
4.041708E+03	1.525348E-03	1.076042E-04
4.051639E+03	1.546416E-03	1.078577E-04
4.061569E+03	1.565946E-03	1.079792E-04
4.071500E+03	1.584109E-03	1.079847E-04
4.081430E+03	1.600903E-03	1.078779E-04
4.091360E+03	1.616438E-03	1.076701E-04
4.101291E+03	1.630934E-03	1.073792E-04
4.111221E+03	1.644332E-03	1.070045E-04
4.121152E+03	1.656967E-03	1.065708E-04
4.131082E+03	1.668986E-03	1.060898E-04
4.141013E+03	1.680349E-03	1.055610E-04
4.150943E+03	1.691397E-03	1.050079E-04
4.160874E+03	1.702187E-03	1.044353E-04
4.170804E+03	1.712769E-03	1.038476E-04
4.180735E+03	1.723481E-03	1.032662E-04
4.190665E+03	1.734458E-03	1.026998E-04
4.200596E+03	1.745636E-03	1.021447E-04
4.210526E+03	1.757234E-03	1.016141E-04
4.220457E+03	1.769359E-03	1.011141E-04
4.230387E+03	1.782106E-03	1.006500E-04
4.240318E+03	1.795561E-03	1.002263E-04
4.250248E+03	1.809789E-03	9.984626E-05
4.260179E+03	1.824843E-03	9.951233E-05
4.270109E+03	1.840756E-03	9.922588E-05
4.280040E+03	1.857544E-03	9.898737E-05
4.289970E+03	1.875106E-03	9.879115E-05
4.299901E+03	1.893616E-03	9.864614E-05
4.309831E+03	1.912835E-03	9.853985E-05
4.319762E+03	1.932802E-03	9.847441E-05
4.329692E+03	1.953339E-03	9.844115E-05
4.339623E+03	1.974558E-03	9.844626E-05
4.349553E+03	1.996178E-03	9.847641E-05
4.359484E+03	2.018267E-03	9.853598E-05
4.369414E+03	2.040802E-03	9.862484E-05
4.379345E+03	2.064074E-03	9.875797E-05
4.389275E+03	2.088321E-03	9.894739E-05
4.399206E+03	2.113679E-03	9.920005E-05
4.409136E+03	2.140472E-03	9.953140E-05
4.419067E+03	2.168773E-03	9.994497E-05
4.428997E+03	2.198818E-03	1.004517E-04
4.438928E+03	2.230571E-03	1.010500E-04
4.448858E+03	2.264141E-03	1.017449E-04
4.458788E+03	2.299345E-03	1.025272E-04
4.468719E+03	2.336144E-03	1.033939E-04
4.478649E+03	2.374191E-03	1.043286E-04
4.488580E+03	2.413280E-03	1.053213E-04
4.498510E+03	2.452777E-03	1.063440E-04
4.508441E+03	2.492548E-03	1.073907E-04
4.518371E+03	2.531700E-03	1.084230E-04
4.528302E+03	2.569872E-03	1.094257E-04
4.538232E+03	2.606319E-03	1.103677E-04
4.548163E+03	2.640406E-03	1.112232E-04
4.558093E+03	2.671638E-03	1.119721E-04
4.568024E+03	2.699326E-03	1.125868E-04
4.577954E+03	2.722972E-03	1.130478E-04
4.587885E+03	2.742174E-03	1.133395E-04
4.597815E+03	2.756766E-03	1.134563E-04
4.607746E+03	2.766458E-03	1.133871E-04
4.617676E+03	2.771087E-03	1.131262E-04
4.627607E+03	2.770984E-03	1.126879E-04
4.637537E+03	2.766343E-03	1.120804E-04
4.647468E+03	2.757217E-03	1.113061E-04
4.657398E+03	2.744103E-03	1.103852E-04
4.667329E+03	2.727561E-03	1.093400E-04
4.677259E+03	2.707839E-03	1.081801E-04
4.687190E+03	2.685683E-03	1.069348E-04
4.697120E+03	2.661381E-03	1.056148E-04
4.707051E+03	2.635683E-03	1.042492E-04
4.716981E+03	2.608974E-03	1.028522E-04
4.726912E+03	2.581730E-03	1.014415E-04
4.736842E+03	2.554290E-03	1.000293E-04
4.746773E+03	2.527282E-03	9.863911E-05
4.756703E+03	2.500967E-03	9.727985E-05
4.766634E+03	2.475678E-03	9.596315E-05
4.776564E+03	2.451714E-03	9.469923E-05
4.786495E+03	2.429231E-03	9.349278E-05
4.796425E+03	2.408659E-03	9.235894E-05
4.806356E+03	2.390086E-03	9.129959E-05
4.816286E+03	2.373671E-03	9.031920E-05
4.826216E+03	2.359436E-03	8.941716E-05
4.836147E+03	2.347661E-03	8.860247E-05
4.846077E+03	2.338292E-03	8.787145E-05
4.856008E+03	2.331237E-03	8.721899E-05
4.865938E+03	2.326640E-03	8.664882E-05
4.875869E+03	2.324216E-03	8.614869E-05
4.885799E+03	2.324009E-03	8.571864E-05
4.895730E+03	2.325633E-03	8.534288E-05
4.905660E+03	2.328942E-03	8.501455E-05
4.915591E+03	2.333744E-03	8.472540E-05
4.925521E+03	2.339544E-03	8.445621E-05
4.935452E+03	2.346105E-03	8.419754E-05
4.945382E+03	2.353100E-03	8.393687E-05
4.955313E+03	2.360217E-03	8.366259E-05
4.965243E+03	2.367184E-03	8.336471E-05
4.975174E+03	2.373779E-03	8.303541E-05
4.985104E+03	2.379847E-03	8.266934E-05
4.995035E+03	2.385306E-03	8.226400E-05
5.004965E+03	2.390151E-03	8.181960E-05
5.014896E+03	2.394448E-03	8.133883E-05
5.024826E+03	2.398231E-03	8.082334E-05
5.034757E+03	2.401855E-03	8.028558E-05
5.044687E+03	2.405425E-03	7.972927E-05
5.054618E+03	2.409047E-03	7.915820E-05
5.064548E+03	2.413097E-03	7.858482E-05
5.074479E+03	2.417635E-03	7.801106E-05
5.084409E+03	2.422681E-03	7.743748E-05
5.094340E+03	2.428488E-03	7.687203E-05
5.104270E+03	2.434876E-03	7.630891E-05
5.114201E+03	2.441997E-03	7.575274E-05
5.124131E+03	2.449579E-03	7.519513E-05
5.134062E+03	2.457693E-03	7.463844E-05
5.143992E+03	2.466007E-03	7.407286E-05
5.153923E+03	2.474547E-03	7.349983E-05
5.163853E+03	2.482954E-03	7.290944E-05
5.173784E+03	2.491245E-03	7.230330E-05
5.183714E+03	2.499058E-03	7.167228E-05
5.193644E+03	2.506419E-03	7.101869E-05
5.203575E+03	2.512977E-03	7.033453E-05
5.213505E+03	2.518775E-03	6.962315E-05
5.223436E+03	2.523574E-03	6.888033E-05
5.233366E+03	2.527147E-03	6.810254E-05
5.243297E+03	2.529559E-03	6.729453E-05
5.253227E+03	2.530608E-03	6.645392E-05
5.263158E+03	2.530196E-03	6.558152E-05
5.273088E+03	2.528252E-03	6.467893E-05
5.283019E+03	2.524726E-03	6.374847E-05
5.292949E+03	2.519601E-03	6.279343E-05
5.302880E+03	2.512896E-03	6.181802E-05
5.312810E+03	2.504767E-03	6.082973E-05
5.322741E+03	2.495134E-03	5.983018E-05
5.332671E+03	2.484336E-03	5.883108E-05
5.342602E+03	2.472391E-03	5.783606E-05
5.352532E+03	2.459733E-03	5.685834E-05
5.362463E+03	2.446556E-03	5.590513E-05
5.372393E+03	2.433182E-03	5.498617E-05
5.382324E+03	2.419960E-03	5.411152E-05
5.392254E+03	2.407349E-03	5.329316E-05
5.402185E+03	2.395549E-03	5.253695E-05
5.412115E+03	2.385124E-03	5.185650E-05
5.422046E+03	2.376372E-03	5.125920E-05
5.431976E+03	2.369668E-03	5.075385E-05
5.441907E+03	2.365333E-03	5.034798E-05
5.451837E+03	2.363611E-03	5.004692E-05
5.461768E+03	2.364072E-03	4.983917E-05
5.471698E+03	2.366108E-03	4.970852E-05
5.481629E+03	2.368543E-03	4.962716E-05
5.491559E+03	2.370332E-03	4.957016E-05
5.501490E+03	2.370254E-03	4.950894E-05
5.511420E+03	2.367592E-03	4.942534E-05
5.521351E+03	2.361553E-03	4.929946E-05
5.531281E+03	2.351729E-03	4.911921E-05
5.541212E+03	2.337670E-03	4.887143E-05
5.551142E+03	2.319486E-03	4.855453E-05
5.561072E+03	2.297227E-03	4.816561E-05
5.571003E+03	2.271281E-03	4.770893E-05
5.580933E+03	2.242015E-03	4.718843E-05
5.590864E+03	2.209988E-03	4.661235E-05
5.600794E+03	2.175834E-03	4.599084E-05
5.610725E+03	2.140315E-03	4.533710E-05
5.620655E+03	2.104049E-03	4.466169E-05
5.630586E+03	2.067736E-03	4.397731E-05
5.640516E+03	2.032136E-03	4.329828E-05
5.650447E+03	1.997819E-03	4.263531E-05
5.660377E+03	1.965473E-03	4.200185E-05
5.670308E+03	1.935591E-03	4.140745E-05
5.680238E+03	1.908688E-03	4.086228E-05
5.690169E+03	1.885293E-03	4.037696E-05
5.700099E+03	1.865733E-03	3.995774E-05
5.710030E+03	1.850405E-03	3.961244E-05
5.719960E+03	1.839501E-03	3.934427E-05
5.729891E+03	1.833202E-03	3.915613E-05
5.739821E+03	1.831676E-03	3.905043E-05
5.749752E+03	1.834865E-03	3.902452E-05
5.759682E+03	1.842758E-03	3.907647E-05
5.769613E+03	1.855106E-03	3.919915E-05
5.779543E+03	1.871702E-03	3.938604E-05
5.789474E+03	1.892104E-03	3.962553E-05
5.799404E+03	1.915915E-03	3.990686E-05
5.809335E+03	1.942511E-03	4.021453E-05
5.819265E+03	1.971340E-03	4.053460E-05
5.829196E+03	2.001717E-03	4.085063E-05
5.839126E+03	2.032764E-03	4.114258E-05
5.849057E+03	2.063953E-03	4.139797E-05
5.858987E+03	2.094377E-03	4.159729E-05
5.868918E+03	2.123300E-03	4.172512E-05
5.878848E+03	2.150102E-03	4.176916E-05
5.888779E+03	2.174154E-03	4.171772E-05
5.898709E+03	2.194831E-03	4.156011E-05
5.908640E+03	2.211777E-03	4.129166E-05
5.918570E+03	2.224600E-03	4.090781E-05
5.928500E+03	2.233207E-03	4.041036E-05
5.938431E+03	2.237493E-03	3.980140E-05
5.948361E+03	2.237750E-03	3.909066E-05
5.958292E+03	2.233999E-03	3.828323E-05
5.968222E+03	2.226897E-03	3.739539E-05
5.978153E+03	2.216801E-03	3.643801E-05
5.988083E+03	2.204419E-03	3.542743E-05
5.998014E+03	2.190363E-03	3.437791E-05
6.007944E+03	2.175464E-03	3.330644E-05
6.017875E+03	2.160497E-03	3.222818E-05
6.027805E+03	2.146161E-03	3.115636E-05
6.037736E+03	2.133312E-03	3.010555E-05
6.047666E+03	2.122701E-03	2.908791E-05
6.057597E+03	2.114972E-03	2.811333E-05
6.067527E+03	2.110899E-03	2.719289E-05
6.077458E+03	2.111140E-03	2.633560E-05
6.087388E+03	2.116327E-03	2.554999E-05
6.097319E+03	2.126981E-03	2.484343E-05
6.107249E+03	2.143757E-03	2.422542E-05
6.117180E+03	2.167205E-03	2.370519E-05
6.127110E+03	2.197759E-03	2.329221E-05
6.137041E+03	2.236064E-03	2.300026E-05
6.146971E+03	2.282385E-03	2.284168E-05
6.156902E+03	2.337180E-03	2.283400E-05
6.166832E+03	2.400658E-03	2.299564E-05
6.176763E+03	2.473119E-03	2.334951E-05
6.186693E+03	2.554736E-03	2.392056E-05
6.196624E+03	2.645016E-03	2.473024E-05
6.206554E+03	2.743464E-03	2.580134E-05
6.216485E+03	2.848475E-03	2.713936E-05
6.226415E+03	2.957904E-03	2.873652E-05
6.236346E+03	3.069512E-03	3.057930E-05
6.246276E+03	3.180780E-03	3.264569E-05
6.256207E+03	3.289115E-03	3.490640E-05
6.266137E+03	3.391969E-03	3.732575E-05
6.276068E+03	3.486805E-03	3.986136E-05
6.285998E+03	3.571747E-03	4.247186E-05
6.295929E+03	3.644739E-03	4.510834E-05
6.305859E+03	3.704561E-03	4.772714E-05
6.315789E+03	3.750325E-03	5.028565E-05
6.325720E+03	3.781635E-03	5.274563E-05
6.335650E+03	3.798560E-03	5.507462E-05
6.345581E+03	3.801441E-03	5.724448E-05
6.355511E+03	3.791406E-03	5.924058E-05
6.365442E+03	3.769263E-03	6.104619E-05
6.375372E+03	3.736569E-03	6.265975E-05
6.385303E+03	3.694388E-03	6.407549E-05
6.395233E+03	3.644227E-03	6.529886E-05
6.405164E+03	3.587394E-03	6.633593E-05
6.415094E+03	3.525113E-03	6.719493E-05
6.425025E+03	3.458486E-03	6.788531E-05
6.434955E+03	3.388500E-03	6.841734E-05
6.444886E+03	3.316017E-03	6.880151E-05
6.454816E+03	3.241786E-03	6.904847E-05
6.464747E+03	3.166455E-03	6.916872E-05
6.474677E+03	3.090583E-03	6.917263E-05
6.484608E+03	3.014532E-03	6.906764E-05
6.494538E+03	2.938952E-03	6.886900E-05
6.504469E+03	2.864079E-03	6.858364E-05
6.514399E+03	2.790214E-03	6.822078E-05
6.524330E+03	2.717613E-03	6.778929E-05
6.534260E+03	2.646388E-03	6.729498E-05
6.544191E+03	2.576929E-03	6.675117E-05
6.554121E+03	2.509272E-03	6.616272E-05
6.564052E+03	2.443539E-03	6.553673E-05
6.573982E+03	2.379823E-03	6.487986E-05
6.583913E+03	2.318199E-03	6.419839E-05
6.593843E+03	2.258639E-03	6.349576E-05
6.603774E+03	2.201373E-03	6.278268E-05
6.613704E+03	2.146350E-03	6.206206E-05
6.623635E+03	2.093686E-03	6.134149E-05
6.633565E+03	2.043242E-03	6.062112E-05
6.643496E+03	1.995126E-03	5.990816E-05
6.653426E+03	1.949360E-03	5.920724E-05
6.663357E+03	1.905960E-03	5.852278E-05
6.673287E+03	1.865014E-03	5.786125E-05
6.683217E+03	1.826383E-03	5.722196E-05
6.693148E+03	1.790223E-03	5.661329E-05
6.703078E+03	1.756399E-03	5.603431E-05
6.713009E+03	1.725059E-03	5.549287E-05
6.722939E+03	1.696137E-03	5.498993E-05
6.732870E+03	1.669641E-03	5.452861E-05
6.742800E+03	1.645581E-03	5.411186E-05
6.752731E+03	1.623967E-03	5.374254E-05
6.762661E+03	1.604813E-03	5.342337E-05
6.772592E+03	1.588132E-03	5.315699E-05
6.782522E+03	1.573944E-03	5.294596E-05
6.792453E+03	1.562267E-03	5.279267E-05
6.802383E+03	1.553185E-03	5.270150E-05
6.812314E+03	1.546593E-03	5.267029E-05
6.822244E+03	1.542637E-03	5.270512E-05
6.832175E+03	1.541273E-03	5.280552E-05
6.842105E+03	1.542517E-03	5.297276E-05
6.852036E+03	1.546379E-03	5.320769E-05
6.861966E+03	1.552866E-03	5.351086E-05
6.871897E+03	1.561972E-03	5.388217E-05
6.881827E+03	1.573686E-03	5.432110E-05
6.891758E+03	1.587985E-03	5.482652E-05
6.901688E+03	1.604836E-03	5.539668E-05
6.911619E+03	1.624258E-03	5.603151E-05
6.921549E+03	1.646067E-03	5.672361E-05
6.931480E+03	1.670328E-03	5.747408E-05
6.941410E+03	1.696906E-03	5.827686E-05
6.951341E+03	1.725648E-03	5.912520E-05
6.961271E+03	1.756612E-03	6.001933E-05
6.971202E+03	1.789640E-03	6.095207E-05
6.981132E+03	1.824644E-03	6.191835E-05
6.991063E+03	1.861530E-03	6.291298E-05
7.000993E+03	1.900203E-03	6.393055E-05
7.010924E+03	1.940564E-03	6.496544E-05
7.020854E+03	1.982505E-03	6.601175E-05
7.030785E+03	2.025908E-03	6.706322E-05
7.040715E+03	2.070639E-03	6.811311E-05
7.050645E+03	2.116639E-03	6.915709E-05
7.060576E+03	2.163565E-03	7.018172E-05
7.070506E+03	2.211309E-03	7.118143E-05
7.080437E+03	2.259651E-03	7.214718E-05
7.090367E+03	2.308440E-03	7.307236E-05
7.100298E+03	2.357207E-03	7.394061E-05
7.110228E+03	2.405735E-03	7.474411E-05
7.120159E+03	2.453682E-03	7.547147E-05
7.130089E+03	2.500671E-03	7.611097E-05
7.140020E+03	2.546402E-03	7.665379E-05
7.149950E+03	2.590230E-03	7.708150E-05
7.159881E+03	2.631799E-03	7.738537E-05
7.169811E+03	2.670625E-03	7.755379E-05
7.179742E+03	2.706216E-03	7.757595E-05
7.189672E+03	2.738073E-03	7.744199E-05
7.199603E+03	2.765701E-03	7.714334E-05
7.209533E+03	2.788621E-03	7.667314E-05
7.219464E+03	2.806383E-03	7.602649E-05
7.229394E+03	2.818463E-03	7.519772E-05
7.239325E+03	2.824746E-03	7.419326E-05
7.249255E+03	2.824712E-03	7.300974E-05
7.259186E+03	2.818403E-03	7.165936E-05
7.269116E+03	2.805478E-03	7.014506E-05
7.279047E+03	2.786056E-03	6.848206E-05
7.288977E+03	2.760250E-03	6.668543E-05
7.298908E+03	2.728282E-03	6.477290E-05
7.308838E+03	2.690374E-03	6.276190E-05
7.318769E+03	2.647191E-03	6.067969E-05
7.328699E+03	2.599044E-03	5.854432E-05
7.338630E+03	2.546772E-03	5.638484E-05
7.348560E+03	2.490838E-03	5.422063E-05
7.358491E+03	2.431988E-03	5.207589E-05
7.368421E+03	2.371200E-03	4.997823E-05
7.378352E+03	2.309155E-03	4.794727E-05
7.388282E+03	2.246547E-03	4.600139E-05
7.398213E+03	2.184253E-03	4.416125E-05
7.408143E+03	2.123026E-03	4.244349E-05
7.418073E+03	2.063486E-03	4.086091E-05
7.428004E+03	2.006480E-03	3.942963E-05
7.437934E+03	1.952435E-03	3.815675E-05
7.447865E+03	1.901975E-03	3.705263E-05
7.457795E+03	1.855473E-03	3.612242E-05
7.467726E+03	1.813449E-03	3.537412E-05
7.477656E+03	1.775995E-03	3.480759E-05
7.487587E+03	1.743314E-03	3.442493E-05
7.497517E+03	1.715315E-03	3.422058E-05
7.507448E+03	1.691894E-03	3.418849E-05
7.517378E+03	1.672699E-03	3.431838E-05
7.527309E+03	1.657196E-03	3.459665E-05
7.537239E+03	1.644601E-03	3.500455E-05
7.547170E+03	1.634138E-03	3.552296E-05
7.557100E+03	1.624945E-03	3.613002E-05
7.567031E+03	1.616437E-03	3.680887E-05
7.576961E+03	1.608457E-03	3.755172E-05
7.586892E+03	1.601243E-03	3.836017E-05
7.596822E+03	1.595217E-03	3.924128E-05
7.606753E+03	1.590451E-03	4.019473E-05
7.616683E+03	1.587125E-03	4.122376E-05
7.626614E+03	1.585189E-03	4.232634E-05
7.636544E+03	1.584647E-03	4.350232E-05
7.646475E+03	1.585367E-03	4.474805E-05
7.656405E+03	1.587089E-03	4.605628E-05
7.666336E+03	1.589653E-03	4.742215E-05
7.676266E+03	1.592733E-03	4.883544E-05
7.686197E+03	1.596194E-03	5.029119E-05
7.696127E+03	1.599546E-03	5.177263E-05
7.706058E+03	1.602728E-03	5.327577E-05
