#wls	flux	fluxerr
1.588878E+03	1.715791E-05	5.585929E-06
1.628600E+03	1.669852E-05	5.395144E-06
1.668322E+03	1.625026E-05	5.209443E-06
1.708044E+03	1.581519E-05	5.029447E-06
1.747766E+03	1.539798E-05	4.856580E-06
1.787488E+03	1.500030E-05	4.691278E-06
1.827210E+03	1.462124E-05	4.533151E-06
1.866931E+03	1.426501E-05	4.383391E-06
1.906653E+03	1.393067E-05	4.241567E-06
1.946375E+03	1.362214E-05	4.108720E-06
1.986097E+03	1.334072E-05	3.985062E-06
2.025819E+03	1.308770E-05	3.870769E-06
2.065541E+03	1.286213E-05	3.765347E-06
2.105263E+03	1.266535E-05	3.668964E-06
2.144985E+03	1.250294E-05	3.582979E-06
2.184707E+03	1.237185E-05	3.506233E-06
2.224429E+03	1.227557E-05	3.439420E-06
2.264151E+03	1.221551E-05	3.382605E-06
2.303873E+03	1.219326E-05	3.335871E-06
2.343595E+03	1.220854E-05	3.298770E-06
2.383317E+03	1.226541E-05	3.271997E-06
2.423039E+03	1.236621E-05	3.255725E-06
2.462761E+03	1.251364E-05	3.250180E-06
2.502483E+03	1.271090E-05	3.255659E-06
2.542205E+03	1.296179E-05	3.272551E-06
2.581927E+03	1.326866E-05	3.300809E-06
2.621648E+03	1.364116E-05	3.342125E-06
2.661370E+03	1.408136E-05	3.396199E-06
2.701092E+03	1.460150E-05	3.465089E-06
2.740814E+03	1.520638E-05	3.548902E-06
2.780536E+03	1.591217E-05	3.650258E-06
2.820258E+03	1.672787E-05	3.769871E-06
2.859980E+03	1.767299E-05	3.910602E-06
2.899702E+03	1.877154E-05	4.075936E-06
2.939424E+03	2.004397E-05	4.268163E-06
2.979146E+03	2.152562E-05	4.492285E-06
2.989076E+03	2.193192E-05	4.553627E-06
2.999007E+03	2.235769E-05	4.618052E-06
3.008937E+03	2.280038E-05	4.684969E-06
3.018868E+03	2.325724E-05	4.753758E-06
3.028798E+03	2.373618E-05	4.825978E-06
3.038729E+03	2.423461E-05	4.901029E-06
3.048659E+03	2.474972E-05	4.978278E-06
3.058590E+03	2.529001E-05	5.059367E-06
3.068520E+03	2.585285E-05	5.143685E-06
3.078451E+03	2.643940E-05	5.231383E-06
3.088381E+03	2.705086E-05	5.322616E-06
3.098312E+03	2.768852E-05	5.417548E-06
3.108242E+03	2.835804E-05	5.517188E-06
3.118173E+03	2.905239E-05	5.620067E-06
3.128103E+03	2.977731E-05	5.727199E-06
3.138034E+03	3.053443E-05	5.838788E-06
3.147964E+03	3.133018E-05	5.955944E-06
3.157895E+03	3.215710E-05	6.077122E-06
3.167825E+03	3.302669E-05	6.204370E-06
3.177756E+03	3.393125E-05	6.336102E-06
3.187686E+03	3.488300E-05	6.474459E-06
3.197617E+03	3.587935E-05	6.618799E-06
3.207547E+03	3.691730E-05	6.768411E-06
3.217478E+03	3.801031E-05	6.925600E-06
3.227408E+03	3.915586E-05	7.089714E-06
3.237339E+03	4.035690E-05	7.261097E-06
3.247269E+03	4.161658E-05	7.440114E-06
3.257200E+03	4.293826E-05	7.627150E-06
3.267130E+03	4.432548E-05	7.822610E-06
3.277061E+03	4.578198E-05	8.026914E-06
3.286991E+03	4.731173E-05	8.240507E-06
3.296922E+03	4.892614E-05	8.465095E-06
3.306852E+03	5.061553E-05	8.698715E-06
3.316783E+03	5.239157E-05	8.943087E-06
3.326713E+03	5.426717E-05	9.200089E-06
3.336643E+03	5.623204E-05	9.467626E-06
3.346574E+03	5.829941E-05	9.747591E-06
3.356504E+03	6.048392E-05	1.004204E-05
3.366435E+03	6.278364E-05	1.035024E-05
3.376365E+03	6.519573E-05	1.067130E-05
3.386296E+03	6.774562E-05	1.100895E-05
3.396226E+03	7.043152E-05	1.136240E-05
3.406157E+03	7.325055E-05	1.173069E-05
3.416087E+03	7.623146E-05	1.211792E-05
3.426018E+03	7.937254E-05	1.252322E-05
3.435948E+03	8.268264E-05	1.294740E-05
3.445879E+03	8.617099E-05	1.339128E-05
3.455809E+03	8.984725E-05	1.385570E-05
3.465740E+03	9.372151E-05	1.434152E-05
3.475670E+03	9.780419E-05	1.484960E-05
3.485601E+03	1.021062E-04	1.538083E-05
3.495531E+03	1.066389E-04	1.593609E-05
3.505462E+03	1.114295E-04	1.651860E-05
3.515392E+03	1.164593E-04	1.712466E-05
3.525323E+03	1.217558E-04	1.775740E-05
3.535253E+03	1.273317E-04	1.841771E-05
3.545184E+03	1.332188E-04	1.910910E-05
3.555114E+03	1.393937E-04	1.982715E-05
3.565045E+03	1.459084E-04	2.057812E-05
3.574975E+03	1.527366E-04	2.135710E-05
3.584906E+03	1.599340E-04	2.217068E-05
3.594836E+03	1.674708E-04	2.301342E-05
3.604767E+03	1.754067E-04	2.389224E-05
3.614697E+03	1.837076E-04	2.480108E-05
3.624628E+03	1.924373E-04	2.574713E-05
3.634558E+03	2.015845E-04	2.672739E-05
3.644489E+03	2.111332E-04	2.773823E-05
3.654419E+03	2.211524E-04	2.878719E-05
3.664350E+03	2.316261E-04	2.987051E-05
3.674280E+03	2.425647E-04	3.098792E-05
3.684211E+03	2.539780E-04	3.213898E-05
3.694141E+03	2.658382E-04	3.331853E-05
3.704071E+03	2.782236E-04	3.453468E-05
3.714002E+03	2.911049E-04	3.578200E-05
3.723932E+03	3.044860E-04	3.705920E-05
3.733863E+03	3.183689E-04	3.836479E-05
3.743793E+03	3.327534E-04	3.969698E-05
3.753724E+03	3.476370E-04	4.105375E-05
3.763654E+03	3.630148E-04	4.243281E-05
3.773585E+03	3.788793E-04	4.383162E-05
3.783515E+03	3.952200E-04	4.524733E-05
3.793446E+03	4.120237E-04	4.667683E-05
3.803376E+03	4.292741E-04	4.811678E-05
3.813307E+03	4.469516E-04	4.956357E-05
3.823237E+03	4.650338E-04	5.101336E-05
3.833168E+03	4.834950E-04	5.246209E-05
3.843098E+03	5.023061E-04	5.390550E-05
3.853029E+03	5.215050E-04	5.534656E-05
3.862959E+03	5.409203E-04	5.676616E-05
3.872890E+03	5.605817E-04	5.816686E-05
3.882820E+03	5.804495E-04	5.954399E-05
3.892751E+03	6.004816E-04	6.089287E-05
3.902681E+03	6.206346E-04	6.220885E-05
3.912612E+03	6.408633E-04	6.348742E-05
3.922542E+03	6.612090E-04	6.473269E-05
3.932473E+03	6.814541E-04	6.592359E-05
3.942403E+03	7.016369E-04	6.706458E-05
3.952334E+03	7.217123E-04	6.815203E-05
3.962264E+03	7.416361E-04	6.918266E-05
3.972195E+03	7.613661E-04	7.015359E-05
3.982125E+03	7.809640E-04	7.107162E-05
3.992056E+03	8.001918E-04	7.191636E-05
4.001986E+03	8.191150E-04	7.269544E-05
4.011917E+03	8.377033E-04	7.340784E-05
4.021847E+03	8.559306E-04	7.405304E-05
4.031778E+03	8.737748E-04	7.463102E-05
4.041708E+03	8.912187E-04	7.514227E-05
4.051639E+03	9.082493E-04	7.558773E-05
4.061569E+03	9.248578E-04	7.596877E-05
4.071500E+03	9.410406E-04	7.628722E-05
4.081430E+03	9.567976E-04	7.654526E-05
4.091360E+03	9.721338E-04	7.674544E-05
4.101291E+03	9.870561E-04	7.689050E-05
4.111221E+03	1.001577E-03	7.698359E-05
4.121152E+03	1.015711E-03	7.702788E-05
4.131082E+03	1.029475E-03	7.702685E-05
4.141013E+03	1.042888E-03	7.698402E-05
4.150943E+03	1.055970E-03	7.690288E-05
4.160874E+03	1.068743E-03	7.678707E-05
4.170804E+03	1.081231E-03	7.664018E-05
4.180735E+03	1.093454E-03	7.646563E-05
4.190665E+03	1.105296E-03	7.625732E-05
4.200596E+03	1.117055E-03	7.603774E-05
4.210526E+03	1.128612E-03	7.580039E-05
4.220457E+03	1.139987E-03	7.554838E-05
4.230387E+03	1.151052E-03	7.527516E-05
4.240318E+03	1.162107E-03	7.500230E-05
4.250248E+03	1.172877E-03	7.471354E-05
4.260179E+03	1.183663E-03	7.443006E-05
4.270109E+03	1.194179E-03	7.413546E-05
4.280040E+03	1.204728E-03	7.385045E-05
4.289970E+03	1.215015E-03	7.355871E-05
4.299901E+03	1.225345E-03	7.328048E-05
4.309831E+03	1.235418E-03	7.299963E-05
4.319762E+03	1.245384E-03	7.272709E-05
4.329692E+03	1.255248E-03	7.246490E-05
4.339623E+03	1.265166E-03	7.222384E-05
4.349553E+03	1.274831E-03	7.198819E-05
4.359484E+03	1.284401E-03	7.176887E-05
4.369414E+03	1.293874E-03	7.156749E-05
4.379345E+03	1.303238E-03	7.138529E-05
4.389275E+03	1.312482E-03	7.122346E-05
4.399206E+03	1.321594E-03	7.108311E-05
4.409136E+03	1.330563E-03	7.096536E-05
4.419067E+03	1.339207E-03	7.086230E-05
4.428997E+03	1.347832E-03	7.079184E-05
4.438928E+03	1.356254E-03	7.074505E-05
4.448858E+03	1.364285E-03	7.071195E-05
4.458788E+03	1.372223E-03	7.070776E-05
4.468719E+03	1.379872E-03	7.072171E-05
4.478649E+03	1.387023E-03	7.074271E-05
4.488580E+03	1.393801E-03	7.077647E-05
4.498510E+03	1.400328E-03	7.082836E-05
4.508441E+03	1.406220E-03	7.087808E-05
4.518371E+03	1.411594E-03	7.093064E-05
4.528302E+03	1.416404E-03	7.098259E-05
4.538232E+03	1.420598E-03	7.103027E-05
4.548163E+03	1.424135E-03	7.107037E-05
4.558093E+03	1.426975E-03	7.109949E-05
4.568024E+03	1.429084E-03	7.111469E-05
4.577954E+03	1.430434E-03	7.111305E-05
4.587885E+03	1.431011E-03	7.109235E-05
4.597815E+03	1.430633E-03	7.104208E-05
4.607746E+03	1.429645E-03	7.097771E-05
4.617676E+03	1.427719E-03	7.088135E-05
4.627607E+03	1.425213E-03	7.076926E-05
4.637537E+03	1.421827E-03	7.062484E-05
4.647468E+03	1.417770E-03	7.045686E-05
4.657398E+03	1.413259E-03	7.027465E-05
4.667329E+03	1.408020E-03	7.006303E-05
4.677259E+03	1.402286E-03	6.983212E-05
4.687190E+03	1.396128E-03	6.958402E-05
4.697120E+03	1.389620E-03	6.932116E-05
4.707051E+03	1.382838E-03	6.904606E-05
4.716981E+03	1.375702E-03	6.875354E-05
4.726912E+03	1.368613E-03	6.846251E-05
4.736842E+03	1.361485E-03	6.816765E-05
4.746773E+03	1.354236E-03	6.786400E-05
4.756703E+03	1.347251E-03	6.756993E-05
4.766634E+03	1.340285E-03	6.727238E-05
4.776564E+03	1.333557E-03	6.698161E-05
4.786495E+03	1.327121E-03	6.669967E-05
4.796425E+03	1.321028E-03	6.642854E-05
4.806356E+03	1.315321E-03	6.616978E-05
4.816286E+03	1.310036E-03	6.592473E-05
4.826216E+03	1.305202E-03	6.569437E-05
4.836147E+03	1.300842E-03	6.547944E-05
4.846077E+03	1.296970E-03	6.528025E-05
4.856008E+03	1.293450E-03	6.508948E-05
4.865938E+03	1.290580E-03	6.492186E-05
4.875869E+03	1.288062E-03	6.476201E-05
4.885799E+03	1.286184E-03	6.462409E-05
4.895730E+03	1.284638E-03	6.449230E-05
4.905660E+03	1.283555E-03	6.437290E-05
4.915591E+03	1.282917E-03	6.426473E-05
4.925521E+03	1.282699E-03	6.416626E-05
4.935452E+03	1.282880E-03	6.407610E-05
4.945382E+03	1.283433E-03	6.399275E-05
4.955313E+03	1.284188E-03	6.390742E-05
4.965243E+03	1.285410E-03	6.383314E-05
4.975174E+03	1.286931E-03	6.376131E-05
4.985104E+03	1.288578E-03	6.368321E-05
4.995035E+03	1.290477E-03	6.360496E-05
5.004965E+03	1.292753E-03	6.353255E-05
5.014896E+03	1.295095E-03	6.345053E-05
5.024826E+03	1.297630E-03	6.336508E-05
5.034757E+03	1.300342E-03	6.327542E-05
5.044687E+03	1.303216E-03	6.318072E-05
5.054618E+03	1.306235E-03	6.308018E-05
5.064548E+03	1.309384E-03	6.297313E-05
5.074479E+03	1.312500E-03	6.285174E-05
5.084409E+03	1.315863E-03	6.272958E-05
5.094340E+03	1.319157E-03	6.259168E-05
5.104270E+03	1.322660E-03	6.245147E-05
5.114201E+03	1.326055E-03	6.229411E-05
5.124131E+03	1.329468E-03	6.212584E-05
5.134062E+03	1.332876E-03	6.194592E-05
5.143992E+03	1.336252E-03	6.175346E-05
5.153923E+03	1.339569E-03	6.154763E-05
5.163853E+03	1.342800E-03	6.132765E-05
5.173784E+03	1.345918E-03	6.109279E-05
5.183714E+03	1.348892E-03	6.084233E-05
5.193644E+03	1.351545E-03	6.056888E-05
5.203575E+03	1.354152E-03	6.028563E-05
5.213505E+03	1.356386E-03	5.997872E-05
5.223436E+03	1.358374E-03	5.965471E-05
5.233366E+03	1.360249E-03	5.932035E-05
5.243297E+03	1.361689E-03	5.896254E-05
5.253227E+03	1.362836E-03	5.858849E-05
5.263158E+03	1.363681E-03	5.819890E-05
5.273088E+03	1.364220E-03	5.779472E-05
5.283019E+03	1.364453E-03	5.737717E-05
5.292949E+03	1.364237E-03	5.694135E-05
5.302880E+03	1.363886E-03	5.650167E-05
5.312810E+03	1.363112E-03	5.604737E-05
5.322741E+03	1.362240E-03	5.559298E-05
5.332671E+03	1.360987E-03	5.512824E-05
5.342602E+03	1.359685E-03	5.466772E-05
5.352532E+03	1.358057E-03	5.420150E-05
5.362463E+03	1.356283E-03	5.373791E-05
5.372393E+03	1.354388E-03	5.327917E-05
5.382324E+03	1.352397E-03	5.282726E-05
5.392254E+03	1.350326E-03	5.238398E-05
5.402185E+03	1.348189E-03	5.195079E-05
5.412115E+03	1.345840E-03	5.152322E-05
5.422046E+03	1.343572E-03	5.111344E-05
5.431976E+03	1.341074E-03	5.071055E-05
5.441907E+03	1.338614E-03	5.032567E-05
5.451837E+03	1.335865E-03	4.994730E-05
5.461768E+03	1.333083E-03	4.958564E-05
5.471698E+03	1.329960E-03	4.922828E-05
5.481629E+03	1.326623E-03	4.887883E-05
5.491559E+03	1.323049E-03	4.853516E-05
5.501490E+03	1.319213E-03	4.819511E-05
5.511420E+03	1.315089E-03	4.785647E-05
5.521351E+03	1.310656E-03	4.751713E-05
5.531281E+03	1.305750E-03	4.716994E-05
5.541212E+03	1.300651E-03	4.682374E-05
5.551142E+03	1.295214E-03	4.647205E-05
5.561072E+03	1.289306E-03	4.610882E-05
5.571003E+03	1.283237E-03	4.574397E-05
5.580933E+03	1.276754E-03	4.536728E-05
5.590864E+03	1.270048E-03	4.498441E-05
5.600794E+03	1.263314E-03	4.460109E-05
5.610725E+03	1.256339E-03	4.420870E-05
5.620655E+03	1.249334E-03	4.381368E-05
5.630586E+03	1.242379E-03	4.341778E-05
5.640516E+03	1.235557E-03	4.302288E-05
5.650447E+03	1.228951E-03	4.263089E-05
5.660377E+03	1.222508E-03	4.223910E-05
5.670308E+03	1.216577E-03	4.185859E-05
5.680238E+03	1.211098E-03	4.148634E-05
5.690169E+03	1.206005E-03	4.111920E-05
5.700099E+03	1.201623E-03	4.076734E-05
5.710030E+03	1.197736E-03	4.042249E-05
5.719960E+03	1.194646E-03	4.009394E-05
5.729891E+03	1.192117E-03	3.977284E-05
5.739821E+03	1.190295E-03	3.946311E-05
5.749752E+03	1.189184E-03	3.916395E-05
5.759682E+03	1.188771E-03	3.887404E-05
5.769613E+03	1.189036E-03	3.859171E-05
5.779543E+03	1.189945E-03	3.831499E-05
5.789474E+03	1.191454E-03	3.804154E-05
5.799404E+03	1.193511E-03	3.776880E-05
5.809335E+03	1.196054E-03	3.749404E-05
5.819265E+03	1.199015E-03	3.721436E-05
5.829196E+03	1.202192E-03	3.692282E-05
5.839126E+03	1.205773E-03	3.662468E-05
5.849057E+03	1.209552E-03	3.631310E-05
5.858987E+03	1.213324E-03	3.598161E-05
5.868918E+03	1.217151E-03	3.563188E-05
5.878848E+03	1.221105E-03	3.526591E-05
5.888779E+03	1.224865E-03	3.487438E-05
5.898709E+03	1.228520E-03	3.446010E-05
5.908640E+03	1.232173E-03	3.402623E-05
5.918570E+03	1.235536E-03	3.356519E-05
5.928500E+03	1.238739E-03	3.308124E-05
5.938431E+03	1.241792E-03	3.257529E-05
5.948361E+03	1.244722E-03	3.204887E-05
5.958292E+03	1.247567E-03	3.150385E-05
5.968222E+03	1.250383E-03	3.094264E-05
5.978153E+03	1.253100E-03	3.036464E-05
5.988083E+03	1.256074E-03	2.977962E-05
5.998014E+03	1.259257E-03	2.918756E-05
6.007944E+03	1.262749E-03	2.859202E-05
6.017875E+03	1.266519E-03	2.799370E-05
6.027805E+03	1.270953E-03	2.740275E-05
6.037736E+03	1.275890E-03	2.681718E-05
6.047666E+03	1.281720E-03	2.624717E-05
6.057597E+03	1.288275E-03	2.569128E-05
6.067527E+03	1.295804E-03	2.515709E-05
6.077458E+03	1.304552E-03	2.465218E-05
6.087388E+03	1.314325E-03	2.417629E-05
6.097319E+03	1.325347E-03	2.373785E-05
6.107249E+03	1.337683E-03	2.334296E-05
6.117180E+03	1.351387E-03	2.299842E-05
6.127110E+03	1.366639E-03	2.271415E-05
6.137041E+03	1.383152E-03	2.249328E-05
6.146971E+03	1.401060E-03	2.234719E-05
6.156902E+03	1.420321E-03	2.228529E-05
6.166832E+03	1.440711E-03	2.231498E-05
6.176763E+03	1.462442E-03	2.245108E-05
6.186693E+03	1.485231E-03	2.270080E-05
6.196624E+03	1.508916E-03	2.307306E-05
6.206554E+03	1.533309E-03	2.357500E-05
6.216485E+03	1.558027E-03	2.420492E-05
6.226415E+03	1.583170E-03	2.496425E-05
6.236346E+03	1.608310E-03	2.584435E-05
6.246276E+03	1.632989E-03	2.683412E-05
6.256207E+03	1.657269E-03	2.792933E-05
6.266137E+03	1.680494E-03	2.911243E-05
6.276068E+03	1.702727E-03	3.037686E-05
6.285998E+03	1.723308E-03	3.170240E-05
6.295929E+03	1.742146E-03	3.307791E-05
6.305859E+03	1.759179E-03	3.449250E-05
6.315789E+03	1.773796E-03	3.592408E-05
6.325720E+03	1.785997E-03	3.736181E-05
6.335650E+03	1.795825E-03	3.879597E-05
6.345581E+03	1.802769E-03	4.020492E-05
6.355511E+03	1.806954E-03	4.158044E-05
6.365442E+03	1.808349E-03	4.291124E-05
6.375372E+03	1.806961E-03	4.418728E-05
6.385303E+03	1.802839E-03	4.539988E-05
6.395233E+03	1.796063E-03	4.654166E-05
6.405164E+03	1.786745E-03	4.760670E-05
6.415094E+03	1.775023E-03	4.859048E-05
6.425025E+03	1.761056E-03	4.948979E-05
6.434955E+03	1.745019E-03	5.030270E-05
6.444886E+03	1.727102E-03	5.102854E-05
6.454816E+03	1.707496E-03	5.166757E-05
6.464747E+03	1.686405E-03	5.222124E-05
6.474677E+03	1.663842E-03	5.268582E-05
6.484608E+03	1.640373E-03	5.307582E-05
6.494538E+03	1.616007E-03	5.338903E-05
6.504469E+03	1.590751E-03	5.362352E-05
6.514399E+03	1.565136E-03	5.379554E-05
6.524330E+03	1.539149E-03	5.390386E-05
6.534260E+03	1.512780E-03	5.394747E-05
6.544191E+03	1.486511E-03	5.394333E-05
6.554121E+03	1.460144E-03	5.388461E-05
6.564052E+03	1.434129E-03	5.378841E-05
6.573982E+03	1.408258E-03	5.364787E-05
6.583913E+03	1.382946E-03	5.347986E-05
6.593843E+03	1.357977E-03	5.327741E-05
6.603774E+03	1.333736E-03	5.305709E-05
6.613704E+03	1.309999E-03	5.281169E-05
6.623635E+03	1.286983E-03	5.255152E-05
6.633565E+03	1.264882E-03	5.228651E-05
6.643496E+03	1.243468E-03	5.200911E-05
6.653426E+03	1.222926E-03	5.172892E-05
6.663357E+03	1.203294E-03	5.144950E-05
6.673287E+03	1.184738E-03	5.117998E-05
6.683217E+03	1.167021E-03	5.091209E-05
6.693148E+03	1.150302E-03	5.065460E-05
6.703078E+03	1.134600E-03	5.041019E-05
6.713009E+03	1.119934E-03	5.018153E-05
6.722939E+03	1.106318E-03	4.997105E-05
6.732870E+03	1.093763E-03	4.978089E-05
6.742800E+03	1.082278E-03	4.961313E-05
6.752731E+03	1.071871E-03	4.946961E-05
6.762661E+03	1.062548E-03	4.935206E-05
6.772592E+03	1.054311E-03	4.926198E-05
6.782522E+03	1.047162E-03	4.920072E-05
6.792453E+03	1.041102E-03	4.916943E-05
6.802383E+03	1.036129E-03	4.916913E-05
6.812314E+03	1.032241E-03	4.920070E-05
6.822244E+03	1.029319E-03	4.925924E-05
6.832175E+03	1.027585E-03	4.935623E-05
6.842105E+03	1.026919E-03	4.948652E-05
6.852036E+03	1.027312E-03	4.965022E-05
6.861966E+03	1.028638E-03	4.984174E-05
6.871897E+03	1.031114E-03	5.007186E-05
6.881827E+03	1.034610E-03	5.033464E-05
6.891758E+03	1.038993E-03	5.062375E-05
6.901688E+03	1.044477E-03	5.094959E-05
6.911619E+03	1.050924E-03	5.130550E-05
6.921549E+03	1.058191E-03	5.168439E-05
6.931480E+03	1.066487E-03	5.209628E-05
6.941410E+03	1.075546E-03	5.252784E-05
6.951341E+03	1.085570E-03	5.298877E-05
6.961271E+03	1.096283E-03	5.346507E-05
6.971202E+03	1.107762E-03	5.396018E-05
6.981132E+03	1.120089E-03	5.447759E-05
6.991063E+03	1.132964E-03	5.500219E-05
7.000993E+03	1.146587E-03	5.554316E-05
7.010924E+03	1.160641E-03	5.608468E-05
7.020854E+03	1.175190E-03	5.662933E-05
7.030785E+03	1.190166E-03	5.717334E-05
7.040715E+03	1.205629E-03	5.771909E-05
7.050645E+03	1.221230E-03	5.824951E-05
7.060576E+03	1.237016E-03	5.876651E-05
7.070506E+03	1.252896E-03	5.926559E-05
7.080437E+03	1.268775E-03	5.974208E-05
7.090367E+03	1.284549E-03	6.019112E-05
7.100298E+03	1.300112E-03	6.060792E-05
7.110228E+03	1.315354E-03	6.098758E-05
7.120159E+03	1.330160E-03	6.132539E-05
7.130089E+03	1.344413E-03	6.161661E-05
7.140020E+03	1.357995E-03	6.185676E-05
7.149950E+03	1.370788E-03	6.204164E-05
7.159881E+03	1.382673E-03	6.216726E-05
7.169811E+03	1.393538E-03	6.223018E-05
7.179742E+03	1.403269E-03	6.222736E-05
7.189672E+03	1.411765E-03	6.215634E-05
7.199603E+03	1.418767E-03	6.200829E-05
7.209533E+03	1.424511E-03	6.179618E-05
7.219464E+03	1.428761E-03	6.151260E-05
7.229394E+03	1.431457E-03	6.115803E-05
7.239325E+03	1.432391E-03	6.072691E-05
7.249255E+03	1.431857E-03	6.023525E-05
7.259186E+03	1.429680E-03	5.967911E-05
7.269116E+03	1.425704E-03	5.905566E-05
7.279047E+03	1.420277E-03	5.838308E-05
7.288977E+03	1.413118E-03	5.765345E-05
7.298908E+03	1.404611E-03	5.688612E-05
7.308838E+03	1.394513E-03	5.607478E-05
7.318769E+03	1.383078E-03	5.523316E-05
7.328699E+03	1.370569E-03	5.437507E-05
7.338630E+03	1.356794E-03	5.349588E-05
7.348560E+03	1.342040E-03	5.260988E-05
7.358491E+03	1.326596E-03	5.173097E-05
7.368421E+03	1.310300E-03	5.085522E-05
7.378352E+03	1.293451E-03	4.999638E-05
7.388282E+03	1.276193E-03	4.916180E-05
7.398213E+03	1.258812E-03	4.836407E-05
7.408143E+03	1.241157E-03	4.759864E-05
7.418073E+03	1.223501E-03	4.687709E-05
7.428004E+03	1.205968E-03	4.620490E-05
7.437934E+03	1.188667E-03	4.558690E-05
7.447865E+03	1.171698E-03	4.502729E-05
7.457795E+03	1.155150E-03	4.452972E-05
7.467726E+03	1.139096E-03	4.409714E-05
7.477656E+03	1.123473E-03	4.372696E-05
7.487587E+03	1.108591E-03	4.343113E-05
7.497517E+03	1.094363E-03	4.320499E-05
7.507448E+03	1.080823E-03	4.304769E-05
7.517378E+03	1.067995E-03	4.295811E-05
7.527309E+03	1.055777E-03	4.293006E-05
7.537239E+03	1.044426E-03	4.297206E-05
7.547170E+03	1.033830E-03	4.307789E-05
7.557100E+03	1.023872E-03	4.324109E-05
7.567031E+03	1.014780E-03	4.346985E-05
7.576961E+03	1.006261E-03	4.375047E-05
7.586892E+03	9.984783E-04	4.408874E-05
7.596822E+03	9.911304E-04	4.447032E-05
7.606753E+03	9.842652E-04	4.489606E-05
7.616683E+03	9.779326E-04	4.536718E-05
7.626614E+03	9.718425E-04	4.586920E-05
7.636544E+03	9.660514E-04	4.640344E-05
7.646475E+03	9.606175E-04	4.697164E-05
7.656405E+03	9.552649E-04	4.755921E-05
7.666336E+03	9.500558E-04	4.816782E-05
7.676266E+03	9.449436E-04	4.879387E-05
7.686197E+03	9.398850E-04	4.943381E-05
7.696127E+03	9.348376E-04	5.008409E-05
7.706058E+03	9.297623E-04	5.074120E-05
