#wls	flux	fluxerr
1.588878E+03	1.667782E-05	5.476872E-06
1.628600E+03	1.624469E-05	5.294126E-06
1.668322E+03	1.582225E-05	5.116260E-06
1.708044E+03	1.541513E-05	4.944722E-06
1.747766E+03	1.502238E-05	4.779142E-06
1.787488E+03	1.464834E-05	4.620828E-06
1.827210E+03	1.429455E-05	4.470155E-06
1.866931E+03	1.395767E-05	4.325964E-06
1.906653E+03	1.364652E-05	4.190870E-06
1.946375E+03	1.335769E-05	4.063653E-06
1.986097E+03	1.309487E-05	3.945270E-06
2.025819E+03	1.285710E-05	3.835244E-06
2.065541E+03	1.264791E-05	3.734421E-06
2.105263E+03	1.246638E-05	3.642296E-06
2.144985E+03	1.231592E-05	3.559629E-06
2.184707E+03	1.219782E-05	3.486506E-06
2.224429E+03	1.211338E-05	3.423008E-06
2.264151E+03	1.206207E-05	3.368659E-06
2.303873E+03	1.204753E-05	3.324146E-06
2.343595E+03	1.207156E-05	3.289587E-06
2.383317E+03	1.213421E-05	3.264593E-06
2.423039E+03	1.223986E-05	3.249914E-06
2.462761E+03	1.239130E-05	3.245805E-06
2.502483E+03	1.259177E-05	3.252587E-06
2.542205E+03	1.284513E-05	3.270675E-06
2.581927E+03	1.315383E-05	3.300053E-06
2.621648E+03	1.352539E-05	3.341910E-06
2.661370E+03	1.396635E-05	3.397062E-06
2.701092E+03	1.448459E-05	3.466519E-06
2.740814E+03	1.508965E-05	3.551538E-06
2.780536E+03	1.579056E-05	3.653083E-06
2.820258E+03	1.660638E-05	3.774224E-06
2.859980E+03	1.754923E-05	3.916136E-06
2.899702E+03	1.864290E-05	4.082315E-06
2.939424E+03	1.991370E-05	4.276360E-06
2.979146E+03	2.139436E-05	4.502728E-06
2.989076E+03	2.179968E-05	4.564525E-06
2.999007E+03	2.222449E-05	4.629439E-06
3.008937E+03	2.266624E-05	4.696873E-06
3.018868E+03	2.312216E-05	4.766196E-06
3.028798E+03	2.360018E-05	4.838987E-06
3.038729E+03	2.409770E-05	4.914637E-06
3.048659E+03	2.461569E-05	4.993274E-06
3.058590E+03	2.515514E-05	5.075029E-06
3.068520E+03	2.571714E-05	5.160042E-06
3.078451E+03	2.630283E-05	5.248462E-06
3.088381E+03	2.691340E-05	5.340444E-06
3.098312E+03	2.755014E-05	5.436152E-06
3.108242E+03	2.821872E-05	5.536608E-06
3.118173E+03	2.891204E-05	5.640313E-06
3.128103E+03	2.963583E-05	5.748292E-06
3.138034E+03	3.039172E-05	5.860750E-06
3.147964E+03	3.118615E-05	5.978808E-06
3.157895E+03	3.201156E-05	6.100891E-06
3.167825E+03	3.287950E-05	6.229071E-06
3.177756E+03	3.378214E-05	6.361726E-06
3.187686E+03	3.473177E-05	6.501031E-06
3.197617E+03	3.572571E-05	6.646319E-06
3.207547E+03	3.676084E-05	6.796858E-06
3.217478E+03	3.785070E-05	6.954981E-06
3.227408E+03	3.899262E-05	7.120009E-06
3.237339E+03	4.018952E-05	7.292285E-06
3.247269E+03	4.144447E-05	7.472162E-06
3.257200E+03	4.276073E-05	7.660016E-06
3.267130E+03	4.414176E-05	7.856240E-06
3.277061E+03	4.559120E-05	8.061244E-06
3.286991E+03	4.711292E-05	8.275462E-06
3.296922E+03	4.871101E-05	8.499343E-06
3.306852E+03	5.038977E-05	8.733358E-06
3.316783E+03	5.215380E-05	8.978003E-06
3.326713E+03	5.400789E-05	9.233789E-06
3.336643E+03	5.596544E-05	9.502661E-06
3.346574E+03	5.801553E-05	9.782405E-06
3.356504E+03	6.017183E-05	1.007497E-05
3.366435E+03	6.244949E-05	1.038249E-05
3.376365E+03	6.483677E-05	1.070258E-05
3.386296E+03	6.735900E-05	1.103899E-05
3.396226E+03	7.000372E-05	1.138920E-05
3.406157E+03	7.279842E-05	1.175720E-05
3.416087E+03	7.574088E-05	1.214210E-05
3.426018E+03	7.882767E-05	1.254279E-05
3.435948E+03	8.208976E-05	1.296364E-05
3.445879E+03	8.552485E-05	1.340366E-05
3.455809E+03	8.912923E-05	1.386162E-05
3.465740E+03	9.293776E-05	1.434228E-05
3.475670E+03	9.694791E-05	1.484452E-05
3.485601E+03	1.011700E-04	1.536914E-05
3.495531E+03	1.056146E-04	1.591698E-05
3.505462E+03	1.102926E-04	1.648884E-05
3.515392E+03	1.152155E-04	1.708556E-05
3.525323E+03	1.203948E-04	1.770795E-05
3.535253E+03	1.258426E-04	1.835681E-05
3.545184E+03	1.315708E-04	1.903292E-05
3.555114E+03	1.375920E-04	1.973701E-05
3.565045E+03	1.439188E-04	2.046981E-05
3.574975E+03	1.505639E-04	2.123200E-05
3.584906E+03	1.575625E-04	2.202733E-05
3.594836E+03	1.648837E-04	2.285022E-05
3.604767E+03	1.725616E-04	2.370420E-05
3.614697E+03	1.806090E-04	2.458968E-05
3.624628E+03	1.890649E-04	2.551060E-05
3.634558E+03	1.978893E-04	2.646011E-05
3.644489E+03	2.071192E-04	2.744177E-05
3.654419E+03	2.167963E-04	2.845960E-05
3.664350E+03	2.268711E-04	2.950553E-05
3.674280E+03	2.374157E-04	3.058742E-05
3.684211E+03	2.483734E-04	3.169635E-05
3.694141E+03	2.598198E-04	3.284040E-05
3.704071E+03	2.716902E-04	3.400969E-05
3.714002E+03	2.840634E-04	3.521251E-05
3.723932E+03	2.968652E-04	3.643797E-05
3.733863E+03	3.101780E-04	3.769455E-05
3.743793E+03	3.239166E-04	3.897023E-05
3.753724E+03	3.381667E-04	4.027372E-05
3.763654E+03	3.528317E-04	4.159186E-05
3.773585E+03	3.679998E-04	4.293353E-05
3.783515E+03	3.836148E-04	4.429052E-05
3.793446E+03	3.996094E-04	4.565363E-05
3.803376E+03	4.160763E-04	4.703210E-05
3.813307E+03	4.329452E-04	4.841649E-05
3.823237E+03	4.501340E-04	4.979644E-05
3.833168E+03	4.677401E-04	5.118163E-05
3.843098E+03	4.856786E-04	5.256154E-05
3.853029E+03	5.038519E-04	5.392476E-05
3.862959E+03	5.223640E-04	5.528167E-05
3.872890E+03	5.411150E-04	5.662086E-05
3.882820E+03	5.599936E-04	5.793022E-05
3.892751E+03	5.791117E-04	5.922102E-05
3.902681E+03	5.983570E-04	6.048139E-05
3.912612E+03	6.176060E-04	6.169885E-05
3.922542E+03	6.369821E-04	6.288593E-05
3.932473E+03	6.563632E-04	6.403065E-05
3.942403E+03	6.757081E-04	6.512942E-05
3.952334E+03	6.948831E-04	6.617007E-05
3.962264E+03	7.140325E-04	6.716720E-05
3.972195E+03	7.330273E-04	6.810941E-05
3.982125E+03	7.517309E-04	6.898518E-05
3.992056E+03	7.703076E-04	6.981095E-05
4.001986E+03	7.886281E-04	7.057613E-05
4.011917E+03	8.065570E-04	7.127019E-05
4.021847E+03	8.242812E-04	7.191140E-05
4.031778E+03	8.416746E-04	7.249020E-05
4.041708E+03	8.586054E-04	7.299718E-05
4.051639E+03	8.752849E-04	7.345227E-05
4.061569E+03	8.914737E-04	7.383722E-05
4.071500E+03	9.073985E-04	7.417291E-05
4.081430E+03	9.229407E-04	7.445140E-05
4.091360E+03	9.379782E-04	7.466501E-05
4.101291E+03	9.527589E-04	7.483568E-05
4.111221E+03	9.670420E-04	7.494641E-05
4.121152E+03	9.810887E-04	7.501965E-05
4.131082E+03	9.946549E-04	7.503864E-05
4.141013E+03	1.008014E-03	7.502619E-05
4.150943E+03	1.020919E-03	7.496575E-05
4.160874E+03	1.033518E-03	7.487042E-05
4.170804E+03	1.045961E-03	7.475298E-05
4.180735E+03	1.057998E-03	7.459730E-05
4.190665E+03	1.069779E-03	7.441615E-05
4.200596E+03	1.081461E-03	7.422217E-05
4.210526E+03	1.092784E-03	7.399926E-05
4.220457E+03	1.103899E-03	7.375979E-05
4.230387E+03	1.114966E-03	7.351602E-05
4.240318E+03	1.125710E-03	7.325167E-05
4.250248E+03	1.136287E-03	7.297886E-05
4.260179E+03	1.146704E-03	7.269993E-05
4.270109E+03	1.156973E-03	7.241736E-05
4.280040E+03	1.167100E-03	7.213336E-05
4.289970E+03	1.177092E-03	7.185026E-05
4.299901E+03	1.186954E-03	7.157016E-05
4.309831E+03	1.196692E-03	7.129523E-05
4.319762E+03	1.206311E-03	7.102763E-05
4.329692E+03	1.215817E-03	7.076952E-05
4.339623E+03	1.225214E-03	7.052305E-05
4.349553E+03	1.234352E-03	7.028137E-05
4.359484E+03	1.243542E-03	7.006419E-05
4.369414E+03	1.252624E-03	6.986412E-05
4.379345E+03	1.261433E-03	6.967372E-05
4.389275E+03	1.270269E-03	6.951151E-05
4.399206E+03	1.278797E-03	6.936084E-05
4.409136E+03	1.287322E-03	6.923999E-05
4.419067E+03	1.295502E-03	6.913215E-05
4.428997E+03	1.303639E-03	6.905520E-05
4.438928E+03	1.311384E-03	6.899145E-05
4.448858E+03	1.318876E-03	6.894816E-05
4.458788E+03	1.326254E-03	6.893223E-05
4.468719E+03	1.333157E-03	6.892439E-05
4.478649E+03	1.339718E-03	6.893100E-05
4.488580E+03	1.345900E-03	6.894960E-05
4.498510E+03	1.351669E-03	6.897753E-05
4.508441E+03	1.356985E-03	6.901202E-05
4.518371E+03	1.361810E-03	6.905008E-05
4.528302E+03	1.366109E-03	6.908883E-05
4.538232E+03	1.369844E-03	6.912528E-05
4.548163E+03	1.372815E-03	6.914806E-05
4.558093E+03	1.375329E-03	6.917140E-05
4.568024E+03	1.377196E-03	6.918425E-05
4.577954E+03	1.378230E-03	6.917585E-05
4.587885E+03	1.378755E-03	6.916101E-05
4.597815E+03	1.378433E-03	6.912118E-05
4.607746E+03	1.377604E-03	6.907195E-05
4.617676E+03	1.375945E-03	6.899544E-05
4.627607E+03	1.373643E-03	6.889956E-05
4.637537E+03	1.370728E-03	6.878416E-05
4.647468E+03	1.367403E-03	6.865787E-05
4.657398E+03	1.363377E-03	6.850461E-05
4.667329E+03	1.358865E-03	6.833374E-05
4.677259E+03	1.353923E-03	6.814658E-05
4.687190E+03	1.348445E-03	6.793644E-05
4.697120E+03	1.342821E-03	6.772169E-05
4.707051E+03	1.336950E-03	6.749603E-05
4.716981E+03	1.330899E-03	6.726164E-05
4.726912E+03	1.324573E-03	6.701267E-05
4.736842E+03	1.318355E-03	6.676751E-05
4.746773E+03	1.311992E-03	6.651237E-05
4.756703E+03	1.305858E-03	6.626545E-05
4.766634E+03	1.299697E-03	6.601289E-05
4.776564E+03	1.293719E-03	6.576463E-05
4.786495E+03	1.287970E-03	6.552243E-05
4.796425E+03	1.282496E-03	6.528793E-05
4.806356E+03	1.277333E-03	6.506247E-05
4.816286E+03	1.272513E-03	6.484719E-05
4.826216E+03	1.268065E-03	6.464309E-05
4.836147E+03	1.264009E-03	6.445070E-05
4.846077E+03	1.260360E-03	6.427048E-05
4.856008E+03	1.256979E-03	6.409493E-05
4.865938E+03	1.254173E-03	6.393936E-05
4.875869E+03	1.251642E-03	6.378809E-05
4.885799E+03	1.249682E-03	6.365595E-05
4.895730E+03	1.247987E-03	6.352705E-05
4.905660E+03	1.246695E-03	6.340815E-05
4.915591E+03	1.245939E-03	6.330572E-05
4.925521E+03	1.245409E-03	6.320378E-05
4.935452E+03	1.245234E-03	6.310859E-05
4.945382E+03	1.245396E-03	6.301904E-05
4.955313E+03	1.245875E-03	6.293389E-05
4.965243E+03	1.246502E-03	6.284447E-05
4.975174E+03	1.247552E-03	6.276448E-05
4.985104E+03	1.248860E-03	6.268532E-05
4.995035E+03	1.250256E-03	6.259849E-05
5.004965E+03	1.252018E-03	6.251770E-05
5.014896E+03	1.253834E-03	6.242731E-05
5.024826E+03	1.255981E-03	6.234101E-05
5.034757E+03	1.258147E-03	6.224330E-05
5.044687E+03	1.260466E-03	6.214076E-05
5.054618E+03	1.262919E-03	6.203257E-05
5.064548E+03	1.265492E-03	6.191794E-05
5.074479E+03	1.268168E-03	6.179622E-05
5.084409E+03	1.270931E-03	6.166670E-05
5.094340E+03	1.273764E-03	6.152869E-05
5.104270E+03	1.276500E-03	6.137426E-05
5.114201E+03	1.279416E-03	6.121705E-05
5.124131E+03	1.282345E-03	6.104925E-05
5.134062E+03	1.285115E-03	6.086300E-05
5.143992E+03	1.288004E-03	6.067184E-05
5.153923E+03	1.290690E-03	6.046097E-05
5.163853E+03	1.293299E-03	6.023679E-05
5.173784E+03	1.295810E-03	5.999884E-05
5.183714E+03	1.298197E-03	5.974652E-05
5.193644E+03	1.300440E-03	5.947945E-05
5.203575E+03	1.302518E-03	5.919742E-05
5.213505E+03	1.304411E-03	5.890020E-05
5.223436E+03	1.306102E-03	5.858783E-05
5.233366E+03	1.307576E-03	5.826041E-05
5.243297E+03	1.308668E-03	5.791162E-05
5.253227E+03	1.309674E-03	5.755540E-05
5.263158E+03	1.310284E-03	5.717916E-05
5.273088E+03	1.310799E-03	5.679704E-05
5.283019E+03	1.310918E-03	5.639700E-05
5.292949E+03	1.310797E-03	5.598685E-05
5.302880E+03	1.310445E-03	5.556816E-05
5.312810E+03	1.310026E-03	5.514882E-05
5.322741E+03	1.309251E-03	5.471778E-05
5.332671E+03	1.308287E-03	5.428319E-05
5.342602E+03	1.307003E-03	5.384075E-05
5.352532E+03	1.305717E-03	5.340469E-05
5.362463E+03	1.304298E-03	5.297063E-05
5.372393E+03	1.302759E-03	5.254018E-05
5.382324E+03	1.300965E-03	5.210893E-05
5.392254E+03	1.299222E-03	5.169026E-05
5.402185E+03	1.297237E-03	5.127342E-05
5.412115E+03	1.295152E-03	5.086513E-05
5.422046E+03	1.293109E-03	5.047183E-05
5.431976E+03	1.290792E-03	5.008207E-05
5.441907E+03	1.288325E-03	4.970171E-05
5.451837E+03	1.285684E-03	4.933062E-05
5.461768E+03	1.282848E-03	4.896857E-05
5.471698E+03	1.279804E-03	4.861427E-05
5.481629E+03	1.276545E-03	4.826631E-05
5.491559E+03	1.273062E-03	4.792327E-05
5.501490E+03	1.269348E-03	4.758365E-05
5.511420E+03	1.265251E-03	4.724060E-05
5.521351E+03	1.261054E-03	4.690351E-05
5.531281E+03	1.256465E-03	4.656026E-05
5.541212E+03	1.251771E-03	4.622039E-05
5.551142E+03	1.246695E-03	4.587238E-05
5.561072E+03	1.241393E-03	4.552086E-05
5.571003E+03	1.236027E-03	4.517063E-05
5.580933E+03	1.230345E-03	4.481133E-05
5.590864E+03	1.224525E-03	4.444835E-05
5.600794E+03	1.218612E-03	4.408232E-05
5.610725E+03	1.212658E-03	4.371400E-05
5.620655E+03	1.206719E-03	4.334442E-05
5.630586E+03	1.200853E-03	4.297475E-05
5.640516E+03	1.195126E-03	4.260629E-05
5.650447E+03	1.189462E-03	4.223549E-05
5.660377E+03	1.184197E-03	4.187339E-05
5.670308E+03	1.179255E-03	4.151636E-05
5.680238E+03	1.174559E-03	4.116081E-05
5.690169E+03	1.170428E-03	4.081710E-05
5.700099E+03	1.166639E-03	4.047657E-05
5.710030E+03	1.163367E-03	4.014441E-05
5.719960E+03	1.160770E-03	3.982527E-05
5.729891E+03	1.158606E-03	3.950990E-05
5.739821E+03	1.157018E-03	3.920243E-05
5.749752E+03	1.156009E-03	3.890205E-05
5.759682E+03	1.155571E-03	3.860769E-05
5.769613E+03	1.155691E-03	3.831800E-05
5.779543E+03	1.156340E-03	3.803129E-05
5.789474E+03	1.157488E-03	3.774573E-05
5.799404E+03	1.159095E-03	3.745924E-05
5.809335E+03	1.161115E-03	3.716965E-05
5.819265E+03	1.163500E-03	3.687470E-05
5.829196E+03	1.166061E-03	3.656794E-05
5.839126E+03	1.169010E-03	3.625549E-05
5.849057E+03	1.172026E-03	3.592690E-05
5.858987E+03	1.175323E-03	3.558847E-05
5.868918E+03	1.178581E-03	3.523026E-05
5.878848E+03	1.182026E-03	3.485888E-05
5.888779E+03	1.185348E-03	3.446520E-05
5.898709E+03	1.188652E-03	3.405248E-05
5.908640E+03	1.192051E-03	3.362411E-05
5.918570E+03	1.195262E-03	3.317240E-05
5.928500E+03	1.198421E-03	3.270170E-05
5.938431E+03	1.201538E-03	3.221282E-05
5.948361E+03	1.204634E-03	3.170700E-05
5.958292E+03	1.207744E-03	3.118590E-05
5.968222E+03	1.210912E-03	3.065148E-05
5.978153E+03	1.214190E-03	3.010598E-05
5.988083E+03	1.217644E-03	2.955207E-05
5.998014E+03	1.221346E-03	2.899253E-05
6.007944E+03	1.225372E-03	2.843042E-05
6.017875E+03	1.229667E-03	2.786580E-05
6.027805E+03	1.234596E-03	2.730854E-05
6.037736E+03	1.240111E-03	2.675902E-05
6.047666E+03	1.246154E-03	2.621801E-05
6.057597E+03	1.253098E-03	2.569557E-05
6.067527E+03	1.260740E-03	2.519004E-05
6.077458E+03	1.269442E-03	2.471172E-05
6.087388E+03	1.278985E-03	2.425986E-05
6.097319E+03	1.289569E-03	2.384264E-05
6.107249E+03	1.301391E-03	2.346855E-05
6.117180E+03	1.314188E-03	2.313864E-05
6.127110E+03	1.328121E-03	2.286260E-05
6.137041E+03	1.343342E-03	2.265069E-05
6.146971E+03	1.359527E-03	2.250600E-05
6.156902E+03	1.376782E-03	2.243985E-05
6.166832E+03	1.395043E-03	2.246134E-05
6.176763E+03	1.414220E-03	2.257955E-05
6.186693E+03	1.434199E-03	2.280326E-05
6.196624E+03	1.454846E-03	2.314055E-05
6.206554E+03	1.476000E-03	2.359795E-05
6.216485E+03	1.497485E-03	2.417631E-05
6.226415E+03	1.519108E-03	2.487202E-05
6.236346E+03	1.540481E-03	2.567652E-05
6.246276E+03	1.561726E-03	2.658807E-05
6.256207E+03	1.582438E-03	2.759482E-05
6.266137E+03	1.602377E-03	2.868639E-05
6.276068E+03	1.621119E-03	2.984798E-05
6.285998E+03	1.638799E-03	3.107406E-05
6.295929E+03	1.655014E-03	3.234871E-05
6.305859E+03	1.669366E-03	3.365510E-05
6.315789E+03	1.682050E-03	3.498779E-05
6.325720E+03	1.692525E-03	3.632615E-05
6.335650E+03	1.701044E-03	3.766588E-05
6.345581E+03	1.707118E-03	3.898669E-05
6.355511E+03	1.711070E-03	4.028627E-05
6.365442E+03	1.712470E-03	4.154528E-05
6.375372E+03	1.711512E-03	4.275901E-05
6.385303E+03	1.708416E-03	4.392434E-05
6.395233E+03	1.702846E-03	4.502439E-05
6.405164E+03	1.695076E-03	4.605819E-05
6.415094E+03	1.685212E-03	4.702120E-05
6.425025E+03	1.673564E-03	4.791539E-05
6.434955E+03	1.659887E-03	4.872761E-05
6.444886E+03	1.644522E-03	4.946189E-05
6.454816E+03	1.627627E-03	5.011803E-05
6.464747E+03	1.609368E-03	5.069662E-05
6.474677E+03	1.589907E-03	5.119899E-05
6.484608E+03	1.569413E-03	5.162735E-05
6.494538E+03	1.548049E-03	5.198437E-05
6.504469E+03	1.525975E-03	5.227329E-05
6.514399E+03	1.503346E-03	5.249780E-05
6.524330E+03	1.480308E-03	5.266180E-05
6.534260E+03	1.457002E-03	5.276959E-05
6.544191E+03	1.433559E-03	5.282560E-05
6.554121E+03	1.410102E-03	5.283428E-05
6.564052E+03	1.386586E-03	5.279423E-05
6.573982E+03	1.363436E-03	5.272213E-05
6.583913E+03	1.340587E-03	5.261650E-05
6.593843E+03	1.318127E-03	5.248181E-05
6.603774E+03	1.295987E-03	5.231648E-05
6.613704E+03	1.274539E-03	5.213679E-05
6.623635E+03	1.253696E-03	5.194084E-05
6.633565E+03	1.233372E-03	5.172660E-05
6.643496E+03	1.213907E-03	5.150989E-05
6.653426E+03	1.195064E-03	5.128238E-05
6.663357E+03	1.177158E-03	5.105934E-05
6.673287E+03	1.159953E-03	5.083227E-05
6.683217E+03	1.143747E-03	5.061593E-05
6.693148E+03	1.128302E-03	5.040157E-05
6.703078E+03	1.113901E-03	5.020347E-05
6.713009E+03	1.100303E-03	5.001253E-05
6.722939E+03	1.087783E-03	4.984270E-05
6.732870E+03	1.076099E-03	4.968456E-05
6.742800E+03	1.065390E-03	4.954590E-05
6.752731E+03	1.055784E-03	4.943414E-05
6.762661E+03	1.047045E-03	4.933958E-05
6.772592E+03	1.039297E-03	4.926934E-05
6.782522E+03	1.032666E-03	4.923047E-05
6.792453E+03	1.026909E-03	4.921265E-05
6.802383E+03	1.022147E-03	4.922251E-05
6.812314E+03	1.018379E-03	4.926093E-05
6.822244E+03	1.015598E-03	4.932846E-05
6.832175E+03	1.013800E-03	4.942557E-05
6.842105E+03	1.012978E-03	4.955255E-05
6.852036E+03	1.013240E-03	4.971532E-05
6.861966E+03	1.014340E-03	4.990220E-05
6.871897E+03	1.016383E-03	5.011870E-05
6.881827E+03	1.019355E-03	5.036445E-05
6.891758E+03	1.023239E-03	5.063872E-05
6.901688E+03	1.028015E-03	5.094070E-05
6.911619E+03	1.033542E-03	5.126341E-05
6.921549E+03	1.040037E-03	5.161755E-05
6.931480E+03	1.047352E-03	5.199565E-05
6.941410E+03	1.055458E-03	5.239612E-05
6.951341E+03	1.064323E-03	5.281712E-05
6.961271E+03	1.073910E-03	5.325651E-05
6.971202E+03	1.084181E-03	5.371207E-05
6.981132E+03	1.094963E-03	5.417493E-05
6.991063E+03	1.106463E-03	5.465492E-05
7.000993E+03	1.118504E-03	5.514288E-05
7.010924E+03	1.130898E-03	5.562913E-05
7.020854E+03	1.143848E-03	5.612330E-05
7.030785E+03	1.157158E-03	5.661537E-05
7.040715E+03	1.170622E-03	5.709501E-05
7.050645E+03	1.184438E-03	5.757155E-05
7.060576E+03	1.198392E-03	5.803439E-05
7.070506E+03	1.212259E-03	5.847252E-05
7.080437E+03	1.226233E-03	5.889531E-05
7.090367E+03	1.239939E-03	5.928481E-05
7.100298E+03	1.253567E-03	5.965041E-05
7.110228E+03	1.266730E-03	5.997403E-05
7.120159E+03	1.279473E-03	6.025838E-05
7.130089E+03	1.291843E-03	6.050643E-05
7.140020E+03	1.303437E-03	6.070024E-05
7.149950E+03	1.314304E-03	6.084318E-05
7.159881E+03	1.324500E-03	6.093919E-05
7.169811E+03	1.333616E-03	6.097100E-05
7.179742E+03	1.341716E-03	6.094337E-05
7.189672E+03	1.348712E-03	6.085432E-05
7.199603E+03	1.354685E-03	6.070963E-05
7.209533E+03	1.359247E-03	6.049429E-05
7.219464E+03	1.362496E-03	6.021539E-05
7.229394E+03	1.364384E-03	5.987352E-05
7.239325E+03	1.364874E-03	5.947005E-05
7.249255E+03	1.363945E-03	5.900713E-05
7.259186E+03	1.361591E-03	5.848758E-05
7.269116E+03	1.357817E-03	5.791491E-05
7.279047E+03	1.352648E-03	5.729336E-05
7.288977E+03	1.346119E-03	5.662776E-05
7.298908E+03	1.338283E-03	5.592351E-05
7.308838E+03	1.329206E-03	5.518656E-05
7.318769E+03	1.318968E-03	5.442322E-05
7.328699E+03	1.307657E-03	5.364008E-05
7.338630E+03	1.295220E-03	5.283778E-05
7.348560E+03	1.282074E-03	5.203586E-05
7.358491E+03	1.268176E-03	5.123498E-05
7.368421E+03	1.253647E-03	5.044211E-05
7.378352E+03	1.238459E-03	4.965810E-05
7.388282E+03	1.223029E-03	4.890133E-05
7.398213E+03	1.207325E-03	4.817200E-05
7.408143E+03	1.191322E-03	4.747032E-05
7.418073E+03	1.175414E-03	4.681301E-05
7.428004E+03	1.159423E-03	4.619377E-05
7.437934E+03	1.143723E-03	4.562809E-05
7.447865E+03	1.128127E-03	4.510893E-05
7.457795E+03	1.112984E-03	4.465054E-05
7.467726E+03	1.098096E-03	4.424510E-05
7.477656E+03	1.083659E-03	4.390048E-05
7.487587E+03	1.069850E-03	4.362379E-05
7.497517E+03	1.056460E-03	4.340533E-05
7.507448E+03	1.043652E-03	4.324980E-05
7.517378E+03	1.031582E-03	4.316167E-05
7.527309E+03	1.020025E-03	4.312972E-05
7.537239E+03	1.009123E-03	4.315811E-05
7.547170E+03	9.988916E-04	4.324581E-05
7.557100E+03	9.893293E-04	4.339135E-05
7.567031E+03	9.804240E-04	4.359286E-05
7.576961E+03	9.721372E-04	4.384743E-05
7.586892E+03	9.644171E-04	4.415158E-05
7.596822E+03	9.572044E-04	4.450151E-05
7.606753E+03	9.504404E-04	4.489343E-05
7.616683E+03	9.440675E-04	4.532355E-05
7.626614E+03	9.380320E-04	4.578824E-05
7.636544E+03	9.322800E-04	4.628379E-05
7.646475E+03	9.267613E-04	4.680661E-05
7.656405E+03	9.214295E-04	4.735327E-05
7.666336E+03	9.161295E-04	4.791453E-05
7.676266E+03	9.110404E-04	4.849851E-05
7.686197E+03	9.060118E-04	4.909619E-05
7.696127E+03	9.008980E-04	4.969834E-05
7.706058E+03	8.958838E-04	5.031376E-05
