#wls	flux	fluxerr
1.588878E+03	2.320577E-05	7.178607E-07
1.628600E+03	2.258869E-05	6.975632E-07
1.668322E+03	2.198760E-05	6.777956E-07
1.708044E+03	2.141221E-05	6.588556E-07
1.747766E+03	2.086024E-05	6.406708E-07
1.787488E+03	2.033332E-05	6.232886E-07
1.827210E+03	1.983300E-05	6.067540E-07
1.866931E+03	1.936414E-05	5.912119E-07
1.906653E+03	1.892453E-05	5.765912E-07
1.946375E+03	1.851550E-05	5.629275E-07
1.986097E+03	1.813828E-05	5.502541E-07
2.025819E+03	1.779723E-05	5.386973E-07
2.065541E+03	1.749026E-05	5.281885E-07
2.105263E+03	1.721860E-05	5.187581E-07
2.144985E+03	1.698347E-05	5.104363E-07
2.184707E+03	1.678908E-05	5.033420E-07
2.224429E+03	1.663382E-05	4.974184E-07
2.264151E+03	1.651923E-05	4.927031E-07
2.303873E+03	1.644705E-05	4.892381E-07
2.343595E+03	1.642208E-05	4.871556E-07
2.383317E+03	1.644375E-05	4.864272E-07
2.423039E+03	1.651472E-05	4.871191E-07
2.462761E+03	1.664101E-05	4.893946E-07
2.502483E+03	1.682350E-05	4.932641E-07
2.542205E+03	1.706661E-05	4.988405E-07
2.581927E+03	1.737561E-05	5.062588E-07
2.621648E+03	1.775979E-05	5.157685E-07
2.661370E+03	1.822376E-05	5.274785E-07
2.701092E+03	1.877651E-05	5.416220E-07
2.740814E+03	1.943213E-05	5.585742E-07
2.780536E+03	2.020056E-05	5.785837E-07
2.820258E+03	2.109744E-05	6.020576E-07
2.859980E+03	2.214171E-05	6.294875E-07
2.899702E+03	2.336013E-05	6.615770E-07
2.939424E+03	2.477687E-05	6.989428E-07
2.979146E+03	2.642556E-05	7.424545E-07
2.989076E+03	2.687633E-05	7.543482E-07
2.999007E+03	2.734932E-05	7.668355E-07
3.008937E+03	2.784086E-05	7.798116E-07
3.018868E+03	2.834702E-05	7.931641E-07
3.028798E+03	2.887800E-05	8.071774E-07
3.038729E+03	2.943005E-05	8.217436E-07
3.048659E+03	2.999906E-05	8.367468E-07
3.058590E+03	3.059592E-05	8.524880E-07
3.068520E+03	3.121673E-05	8.688564E-07
3.078451E+03	3.185725E-05	8.857313E-07
3.088381E+03	3.252910E-05	9.034339E-07
3.098312E+03	3.322824E-05	9.218487E-07
3.108242E+03	3.395593E-05	9.410077E-07
3.118173E+03	3.470766E-05	9.607836E-07
3.128103E+03	3.549622E-05	9.815273E-07
3.138034E+03	3.631738E-05	1.003118E-06
3.147964E+03	3.717262E-05	1.025594E-06
3.157895E+03	3.806352E-05	1.048994E-06
3.167825E+03	3.899171E-05	1.073361E-06
3.177756E+03	3.995229E-05	1.098555E-06
3.187686E+03	4.096016E-05	1.124982E-06
3.197617E+03	4.201073E-05	1.152512E-06
3.207547E+03	4.310598E-05	1.181194E-06
3.217478E+03	4.424798E-05	1.211080E-06
3.227408E+03	4.543892E-05	1.242225E-06
3.237339E+03	4.668104E-05	1.274685E-06
3.247269E+03	4.797675E-05	1.308521E-06
3.257200E+03	4.932850E-05	1.343793E-06
3.267130E+03	5.073891E-05	1.380567E-06
3.277061E+03	5.221069E-05	1.418910E-06
3.286991E+03	5.374665E-05	1.458892E-06
3.296922E+03	5.534975E-05	1.500586E-06
3.306852E+03	5.702308E-05	1.544069E-06
3.316783E+03	5.876982E-05	1.589418E-06
3.326713E+03	6.059332E-05	1.636717E-06
3.336643E+03	6.249705E-05	1.686051E-06
3.346574E+03	6.448461E-05	1.737507E-06
3.356504E+03	6.655973E-05	1.791178E-06
3.366435E+03	6.872631E-05	1.847157E-06
3.376365E+03	7.098836E-05	1.905543E-06
3.386296E+03	7.335003E-05	1.966436E-06
3.396226E+03	7.581562E-05	2.029941E-06
3.406157E+03	7.840236E-05	2.096506E-06
3.416087E+03	8.108966E-05	2.165568E-06
3.426018E+03	8.389459E-05	2.237570E-06
3.435948E+03	8.682198E-05	2.312629E-06
3.445879E+03	8.987680E-05	2.390862E-06
3.455809E+03	9.306409E-05	2.472389E-06
3.465740E+03	9.640471E-05	2.557748E-06
3.475670E+03	9.987304E-05	2.646243E-06
3.485601E+03	1.034898E-04	2.738408E-06
3.495531E+03	1.072602E-04	2.834361E-06
3.505462E+03	1.111899E-04	2.934235E-06
3.515392E+03	1.153030E-04	3.038647E-06
3.525323E+03	1.195683E-04	3.146758E-06
3.535253E+03	1.240097E-04	3.259170E-06
3.545184E+03	1.286324E-04	3.376007E-06
3.555114E+03	1.334421E-04	3.497391E-06
3.565045E+03	1.384667E-04	3.624032E-06
3.574975E+03	1.436674E-04	3.754893E-06
3.584906E+03	1.490712E-04	3.890654E-06
3.594836E+03	1.547081E-04	4.032073E-06
3.604767E+03	1.605338E-04	4.177972E-06
3.614697E+03	1.665771E-04	4.329074E-06
3.624628E+03	1.728426E-04	4.485471E-06
3.634558E+03	1.793627E-04	4.647980E-06
3.644489E+03	1.860849E-04	4.815208E-06
3.654419E+03	1.930402E-04	4.987931E-06
3.664350E+03	2.002315E-04	5.166195E-06
3.674280E+03	2.076943E-04	5.350888E-06
3.684211E+03	2.153652E-04	5.540343E-06
3.694141E+03	2.232775E-04	5.735392E-06
3.704071E+03	2.314689E-04	5.936966E-06
3.714002E+03	2.398667E-04	6.143175E-06
3.723932E+03	2.485057E-04	6.354879E-06
3.733863E+03	2.574257E-04	6.573065E-06
3.743793E+03	2.665437E-04	6.795579E-06
3.753724E+03	2.758961E-04	7.023322E-06
3.763654E+03	2.854791E-04	7.256172E-06
3.773585E+03	2.953349E-04	7.495163E-06
3.783515E+03	3.053652E-04	7.737776E-06
3.793446E+03	3.156091E-04	7.984973E-06
3.803376E+03	3.261107E-04	8.237839E-06
3.813307E+03	3.367599E-04	8.493564E-06
3.823237E+03	3.475973E-04	8.753152E-06
3.833168E+03	3.586699E-04	9.017755E-06
3.843098E+03	3.698545E-04	9.284254E-06
3.853029E+03	3.811943E-04	9.553714E-06
3.862959E+03	3.927392E-04	9.827360E-06
3.872890E+03	4.043533E-04	1.010177E-05
3.882820E+03	4.160829E-04	1.037809E-05
3.892751E+03	4.279137E-04	1.065594E-05
3.902681E+03	4.398997E-04	1.093665E-05
3.912612E+03	4.518888E-04	1.121643E-05
3.922542E+03	4.639328E-04	1.149655E-05
3.932473E+03	4.760903E-04	1.177845E-05
3.942403E+03	4.881975E-04	1.205808E-05
3.952334E+03	5.003110E-04	1.233683E-05
3.962264E+03	5.124147E-04	1.261430E-05
3.972195E+03	5.245748E-04	1.289212E-05
3.982125E+03	5.366129E-04	1.316590E-05
3.992056E+03	5.485940E-04	1.343724E-05
4.001986E+03	5.605031E-04	1.370579E-05
4.011917E+03	5.724154E-04	1.397338E-05
4.021847E+03	5.841398E-04	1.423536E-05
4.031778E+03	5.957508E-04	1.449356E-05
4.041708E+03	6.072360E-04	1.474769E-05
4.051639E+03	6.185841E-04	1.499749E-05
4.061569E+03	6.298825E-04	1.524509E-05
4.071500E+03	6.409267E-04	1.548555E-05
4.081430E+03	6.518045E-04	1.572103E-05
4.091360E+03	6.625080E-04	1.595135E-05
4.101291E+03	6.730305E-04	1.617638E-05
4.111221E+03	6.834721E-04	1.639853E-05
4.121152E+03	6.936172E-04	1.661265E-05
4.131082E+03	7.035666E-04	1.682119E-05
4.141013E+03	7.133175E-04	1.702410E-05
4.150943E+03	7.228677E-04	1.722137E-05
4.160874E+03	7.322165E-04	1.741299E-05
4.170804E+03	7.413634E-04	1.759898E-05
4.180735E+03	7.503093E-04	1.777939E-05
4.190665E+03	7.590557E-04	1.795427E-05
4.200596E+03	7.677234E-04	1.812651E-05
4.210526E+03	7.760794E-04	1.829063E-05
4.220457E+03	7.842446E-04	1.844951E-05
4.230387E+03	7.922235E-04	1.860327E-05
4.240318E+03	8.000205E-04	1.875205E-05
4.250248E+03	8.076411E-04	1.889601E-05
4.260179E+03	8.150908E-04	1.903529E-05
4.270109E+03	8.223756E-04	1.917005E-05
4.280040E+03	8.295016E-04	1.930047E-05
4.289970E+03	8.364751E-04	1.942670E-05
4.299901E+03	8.431728E-04	1.954591E-05
4.309831E+03	8.498588E-04	1.966425E-05
4.319762E+03	8.564102E-04	1.977888E-05
4.329692E+03	8.628322E-04	1.988995E-05
4.339623E+03	8.691292E-04	1.999757E-05
4.349553E+03	8.753046E-04	2.010183E-05
4.359484E+03	8.813600E-04	2.020280E-05
4.369414E+03	8.872953E-04	2.030048E-05
4.379345E+03	8.929715E-04	2.039173E-05
4.389275E+03	8.986571E-04	2.048269E-05
4.399206E+03	9.042109E-04	2.057016E-05
4.409136E+03	9.096268E-04	2.065401E-05
4.419067E+03	9.147582E-04	2.073095E-05
4.428997E+03	9.198760E-04	2.080714E-05
4.438928E+03	9.248333E-04	2.087927E-05
4.448858E+03	9.296222E-04	2.094718E-05
4.458788E+03	9.340919E-04	2.100751E-05
4.468719E+03	9.385185E-04	2.106648E-05
4.478649E+03	9.427524E-04	2.112075E-05
4.488580E+03	9.466423E-04	2.116697E-05
4.498510E+03	9.504684E-04	2.121143E-05
4.508441E+03	9.539364E-04	2.124758E-05
4.518371E+03	9.573296E-04	2.128177E-05
4.528302E+03	9.603533E-04	2.130747E-05
4.538232E+03	9.632948E-04	2.133108E-05
4.548163E+03	9.660059E-04	2.134935E-05
4.558093E+03	9.683385E-04	2.135903E-05
4.568024E+03	9.704377E-04	2.136336E-05
4.577954E+03	9.724514E-04	2.136563E-05
4.587885E+03	9.740878E-04	2.135944E-05
4.597815E+03	9.756435E-04	2.135134E-05
4.607746E+03	9.768298E-04	2.133504E-05
4.617676E+03	9.779461E-04	2.131710E-05
4.627607E+03	9.787046E-04	2.129127E-05
4.637537E+03	9.792618E-04	2.126099E-05
4.647468E+03	9.796244E-04	2.122645E-05
4.657398E+03	9.799530E-04	2.119113E-05
4.667329E+03	9.799615E-04	2.114887E-05
4.677259E+03	9.798094E-04	2.110314E-05
4.687190E+03	9.795113E-04	2.105428E-05
4.697120E+03	9.792264E-04	2.100572E-05
4.707051E+03	9.786729E-04	2.095142E-05
4.716981E+03	9.780149E-04	2.089493E-05
4.726912E+03	9.772641E-04	2.083652E-05
4.736842E+03	9.764359E-04	2.077652E-05
4.746773E+03	9.755449E-04	2.071525E-05
4.756703E+03	9.746056E-04	2.065302E-05
4.766634E+03	9.736306E-04	2.059012E-05
4.776564E+03	9.726352E-04	2.052687E-05
4.786495E+03	9.716303E-04	2.046350E-05
4.796425E+03	9.706302E-04	2.040031E-05
4.806356E+03	9.696457E-04	2.033754E-05
4.816286E+03	9.686873E-04	2.027539E-05
4.826216E+03	9.677658E-04	2.021410E-05
4.836147E+03	9.668908E-04	2.015386E-05
4.846077E+03	9.660699E-04	2.009482E-05
4.856008E+03	9.653101E-04	2.003712E-05
4.865938E+03	9.644756E-04	1.997795E-05
4.875869E+03	9.638589E-04	1.992335E-05
4.885799E+03	9.633206E-04	1.987044E-05
4.895730E+03	9.628645E-04	1.981927E-05
4.905660E+03	9.623501E-04	1.976695E-05
4.915591E+03	9.620660E-04	1.971941E-05
4.925521E+03	9.618699E-04	1.967370E-05
4.935452E+03	9.616190E-04	1.962691E-05
4.945382E+03	9.615989E-04	1.958486E-05
4.955313E+03	9.615224E-04	1.954168E-05
4.965243E+03	9.616736E-04	1.950315E-05
4.975174E+03	9.619068E-04	1.946628E-05
4.985104E+03	9.620764E-04	1.942814E-05
4.995035E+03	9.624642E-04	1.939441E-05
5.004965E+03	9.627806E-04	1.935924E-05
5.014896E+03	9.631639E-04	1.932541E-05
5.024826E+03	9.637520E-04	1.929569E-05
5.034757E+03	9.642541E-04	1.926424E-05
5.044687E+03	9.649500E-04	1.923665E-05
5.054618E+03	9.655492E-04	1.920712E-05
5.064548E+03	9.661873E-04	1.917836E-05
5.074479E+03	9.668587E-04	1.915026E-05
5.084409E+03	9.676992E-04	1.912549E-05
5.094340E+03	9.684188E-04	1.909832E-05
5.104270E+03	9.691513E-04	1.907141E-05
5.114201E+03	9.698921E-04	1.904466E-05
5.124131E+03	9.706343E-04	1.901795E-05
5.134062E+03	9.715140E-04	1.899393E-05
5.143992E+03	9.722400E-04	1.896692E-05
5.153923E+03	9.729472E-04	1.893956E-05
5.163853E+03	9.736320E-04	1.891178E-05
5.173784E+03	9.742874E-04	1.888347E-05
5.183714E+03	9.749079E-04	1.885453E-05
5.193644E+03	9.754885E-04	1.882486E-05
5.203575E+03	9.760245E-04	1.879438E-05
5.213505E+03	9.765101E-04	1.876300E-05
5.223436E+03	9.767990E-04	1.872792E-05
5.233366E+03	9.771724E-04	1.869455E-05
5.243297E+03	9.774859E-04	1.866013E-05
5.253227E+03	9.777337E-04	1.862456E-05
5.263158E+03	9.779129E-04	1.858780E-05
5.273088E+03	9.780227E-04	1.854984E-05
5.283019E+03	9.779148E-04	1.850791E-05
5.292949E+03	9.778752E-04	1.846742E-05
5.302880E+03	9.777585E-04	1.842563E-05
5.312810E+03	9.774184E-04	1.837982E-05
5.322741E+03	9.771418E-04	1.833540E-05
5.332671E+03	9.767825E-04	1.828963E-05
5.342602E+03	9.761960E-04	1.823982E-05
5.352532E+03	9.756674E-04	1.819132E-05
5.362463E+03	9.749089E-04	1.813878E-05
5.372393E+03	9.742063E-04	1.808754E-05
5.382324E+03	9.732720E-04	1.803227E-05
5.392254E+03	9.723908E-04	1.797827E-05
5.402185E+03	9.712759E-04	1.792024E-05
5.412115E+03	9.702133E-04	1.786349E-05
5.422046E+03	9.689181E-04	1.780278E-05
5.431976E+03	9.675328E-04	1.774077E-05
5.441907E+03	9.661997E-04	1.768006E-05
5.451837E+03	9.646381E-04	1.761553E-05
5.461768E+03	9.629921E-04	1.754984E-05
5.471698E+03	9.614052E-04	1.748562E-05
5.481629E+03	9.596002E-04	1.741783E-05
5.491559E+03	9.577230E-04	1.734913E-05
5.501490E+03	9.557793E-04	1.727965E-05
5.511420E+03	9.539150E-04	1.721202E-05
5.521351E+03	9.518574E-04	1.714133E-05
5.531281E+03	9.497541E-04	1.707026E-05
5.541212E+03	9.476131E-04	1.699896E-05
5.551142E+03	9.454429E-04	1.692759E-05
5.561072E+03	9.432524E-04	1.685631E-05
5.571003E+03	9.410508E-04	1.678529E-05
5.580933E+03	9.388473E-04	1.671471E-05
5.590864E+03	9.366517E-04	1.664473E-05
5.600794E+03	9.344735E-04	1.657554E-05
5.610725E+03	9.323226E-04	1.650731E-05
5.620655E+03	9.302086E-04	1.644020E-05
5.630586E+03	9.281409E-04	1.637440E-05
5.640516E+03	9.261292E-04	1.631006E-05
5.650447E+03	9.241823E-04	1.624734E-05
5.660377E+03	9.221745E-04	1.618404E-05
5.670308E+03	9.203835E-04	1.612503E-05
5.680238E+03	9.186822E-04	1.606807E-05
5.690169E+03	9.170780E-04	1.601328E-05
5.700099E+03	9.155773E-04	1.596078E-05
5.710030E+03	9.140526E-04	1.590835E-05
5.719960E+03	9.127761E-04	1.586071E-05
5.729891E+03	9.116187E-04	1.581563E-05
5.739821E+03	9.104513E-04	1.577084E-05
5.749752E+03	9.095424E-04	1.573102E-05
5.759682E+03	9.087617E-04	1.569389E-05
5.769613E+03	9.079780E-04	1.565719E-05
5.779543E+03	9.074574E-04	1.562550E-05
5.789474E+03	9.069355E-04	1.559427E-05
5.799404E+03	9.066768E-04	1.556805E-05
5.809335E+03	9.064166E-04	1.554229E-05
5.819265E+03	9.064184E-04	1.552150E-05
5.829196E+03	9.064172E-04	1.550116E-05
5.839126E+03	9.066765E-04	1.548575E-05
5.849057E+03	9.069310E-04	1.547076E-05
5.858987E+03	9.074448E-04	1.546070E-05
5.868918E+03	9.079527E-04	1.545103E-05
5.878848E+03	9.085874E-04	1.544404E-05
5.888779E+03	9.094819E-04	1.544197E-05
5.898709E+03	9.103722E-04	1.544035E-05
5.908640E+03	9.113924E-04	1.544146E-05
5.918570E+03	9.126779E-04	1.544760E-05
5.928500E+03	9.139657E-04	1.545432E-05
5.938431E+03	9.153924E-04	1.546394E-05
5.948361E+03	9.169619E-04	1.547653E-05
5.958292E+03	9.188127E-04	1.549443E-05
5.968222E+03	9.206824E-04	1.551322E-05
5.978153E+03	9.227102E-04	1.553526E-05
5.988083E+03	9.249014E-04	1.556065E-05
5.998014E+03	9.272618E-04	1.558949E-05
6.007944E+03	9.297967E-04	1.562187E-05
6.017875E+03	9.326471E-04	1.566019E-05
6.027805E+03	9.355462E-04	1.569996E-05
6.037736E+03	9.386333E-04	1.574354E-05
6.047666E+03	9.419112E-04	1.579099E-05
6.057597E+03	9.453814E-04	1.584234E-05
6.067527E+03	9.490442E-04	1.589762E-05
6.077458E+03	9.528979E-04	1.595681E-05
6.087388E+03	9.569394E-04	1.601988E-05
6.097319E+03	9.611628E-04	1.608674E-05
6.107249E+03	9.655605E-04	1.615729E-05
6.117180E+03	9.701229E-04	1.623138E-05
6.127110E+03	9.748372E-04	1.630883E-05
6.137041E+03	9.795448E-04	1.638699E-05
6.146971E+03	9.845119E-04	1.647036E-05
6.156902E+03	9.895780E-04	1.655626E-05
6.166832E+03	9.947170E-04	1.664428E-05
6.176763E+03	9.999050E-04	1.673404E-05
6.186693E+03	1.005112E-03	1.682508E-05
6.196624E+03	1.010162E-03	1.691445E-05
6.206554E+03	1.015314E-03	1.700654E-05
6.216485E+03	1.020391E-03	1.709835E-05
6.226415E+03	1.025358E-03	1.718929E-05
6.236346E+03	1.030027E-03	1.727625E-05
6.246276E+03	1.034664E-03	1.736365E-05
6.256207E+03	1.039083E-03	1.744835E-05
6.266137E+03	1.043093E-03	1.752718E-05
6.276068E+03	1.046962E-03	1.760461E-05
6.285998E+03	1.050506E-03	1.767753E-05
6.295929E+03	1.053536E-03	1.774272E-05
6.305859E+03	1.056328E-03	1.780485E-05
6.315789E+03	1.058698E-03	1.786078E-05
6.325720E+03	1.060466E-03	1.790744E-05
6.335650E+03	1.061919E-03	1.794963E-05
6.345581E+03	1.062724E-03	1.798172E-05
6.355511E+03	1.063178E-03	1.800867E-05
6.365442E+03	1.062957E-03	1.802496E-05
6.375372E+03	1.062363E-03	1.803567E-05
6.385303E+03	1.061081E-03	1.803542E-05
6.395233E+03	1.059421E-03	1.802943E-05
6.405164E+03	1.057080E-03	1.801246E-05
6.415094E+03	1.054372E-03	1.798984E-05
6.425025E+03	1.051003E-03	1.795648E-05
6.434955E+03	1.047295E-03	1.791784E-05
6.444886E+03	1.042960E-03	1.786896E-05
6.454816E+03	1.038327E-03	1.781537E-05
6.464747E+03	1.033115E-03	1.775226E-05
6.474677E+03	1.027507E-03	1.768265E-05
6.484608E+03	1.021680E-03	1.760958E-05
6.494538E+03	1.015367E-03	1.752839E-05
6.504469E+03	1.008751E-03	1.744217E-05
6.514399E+03	1.002013E-03	1.735403E-05
6.524330E+03	9.948945E-04	1.725943E-05
6.534260E+03	9.875790E-04	1.716152E-05
6.544191E+03	9.802438E-04	1.706333E-05
6.554121E+03	9.726384E-04	1.696049E-05
6.564052E+03	9.649418E-04	1.685606E-05
6.573982E+03	9.571893E-04	1.675063E-05
6.583913E+03	9.495538E-04	1.664722E-05
6.593843E+03	9.417892E-04	1.654148E-05
6.603774E+03	9.340670E-04	1.643641E-05
6.613704E+03	9.264182E-04	1.633253E-05
6.623635E+03	9.188720E-04	1.623034E-05
6.633565E+03	9.114561E-04	1.613034E-05
6.643496E+03	9.043290E-04	1.603532E-05
6.653426E+03	8.972498E-04	1.594101E-05
6.663357E+03	8.903750E-04	1.585020E-05
6.673287E+03	8.837261E-04	1.576326E-05
6.683217E+03	8.773229E-04	1.568056E-05
6.693148E+03	8.711835E-04	1.560244E-05
6.703078E+03	8.653246E-04	1.552922E-05
6.713009E+03	8.597612E-04	1.546116E-05
6.722939E+03	8.545068E-04	1.539855E-05
6.732870E+03	8.495733E-04	1.534162E-05
6.742800E+03	8.449710E-04	1.529057E-05
6.752731E+03	8.407090E-04	1.524560E-05
6.762661E+03	8.367948E-04	1.520687E-05
6.772592E+03	8.332344E-04	1.517453E-05
6.782522E+03	8.300326E-04	1.514869E-05
6.792453E+03	8.271928E-04	1.512944E-05
6.802383E+03	8.247169E-04	1.511686E-05
6.812314E+03	8.226058E-04	1.511100E-05
6.822244E+03	8.208589E-04	1.511188E-05
6.832175E+03	8.194743E-04	1.511951E-05
6.842105E+03	8.184492E-04	1.513386E-05
6.852036E+03	8.177789E-04	1.515490E-05
6.861966E+03	8.174581E-04	1.518255E-05
6.871897E+03	8.174800E-04	1.521673E-05
6.881827E+03	8.177166E-04	1.525509E-05
6.891758E+03	8.183983E-04	1.530196E-05
6.901688E+03	8.193949E-04	1.535495E-05
6.911619E+03	8.206945E-04	1.541387E-05
6.921549E+03	8.222842E-04	1.547852E-05
6.931480E+03	8.240287E-04	1.554637E-05
6.941410E+03	8.261543E-04	1.562172E-05
6.951341E+03	8.285235E-04	1.570200E-05
6.961271E+03	8.311186E-04	1.578692E-05
6.971202E+03	8.339204E-04	1.587612E-05
6.981132E+03	8.367857E-04	1.596691E-05
6.991063E+03	8.399386E-04	1.606357E-05
7.000993E+03	8.432341E-04	1.616337E-05
7.010924E+03	8.465242E-04	1.626346E-05
7.020854E+03	8.500330E-04	1.636817E-05
7.030785E+03	8.536112E-04	1.647463E-05
7.040715E+03	8.571064E-04	1.657992E-05
7.050645E+03	8.607438E-04	1.668837E-05
7.060576E+03	8.643702E-04	1.679704E-05
7.070506E+03	8.678302E-04	1.690288E-05
7.080437E+03	8.713508E-04	1.701032E-05
7.090367E+03	8.746478E-04	1.711378E-05
7.100298E+03	8.779502E-04	1.721774E-05
7.110228E+03	8.811021E-04	1.731913E-05
7.120159E+03	8.839458E-04	1.741481E-05
7.130089E+03	8.867149E-04	1.750936E-05
7.140020E+03	8.891224E-04	1.759708E-05
7.149950E+03	8.914061E-04	1.768264E-05
7.159881E+03	8.932798E-04	1.776034E-05
7.169811E+03	8.949854E-04	1.783493E-05
7.179742E+03	8.962389E-04	1.790072E-05
7.189672E+03	8.972870E-04	1.796257E-05
7.199603E+03	8.978492E-04	1.801485E-05
7.209533E+03	8.981770E-04	1.806252E-05
7.219464E+03	8.979944E-04	1.810001E-05
7.229394E+03	8.975585E-04	1.813242E-05
7.239325E+03	8.965982E-04	1.815423E-05
7.249255E+03	8.952438E-04	1.816802E-05
7.259186E+03	8.936274E-04	1.817641E-05
7.269116E+03	8.914874E-04	1.817403E-05
7.279047E+03	8.890936E-04	1.816632E-05
7.288977E+03	8.861910E-04	1.814802E-05
7.298908E+03	8.829227E-04	1.812200E-05
7.308838E+03	8.794326E-04	1.809116E-05
7.318769E+03	8.754759E-04	1.805043E-05
7.328699E+03	8.712017E-04	1.800281E-05
7.338630E+03	8.667588E-04	1.795135E-05
7.348560E+03	8.619117E-04	1.789113E-05
7.358491E+03	8.568132E-04	1.782527E-05
7.368421E+03	8.514883E-04	1.775426E-05
7.378352E+03	8.460887E-04	1.768123E-05
7.388282E+03	8.403892E-04	1.760146E-05
7.398213E+03	8.345436E-04	1.751813E-05
7.408143E+03	8.285794E-04	1.743179E-05
7.418073E+03	8.225244E-04	1.734302E-05
7.428004E+03	8.165272E-04	1.725493E-05
7.437934E+03	8.103712E-04	1.716296E-05
7.447865E+03	8.042049E-04	1.707023E-05
7.457795E+03	7.980534E-04	1.697727E-05
7.467726E+03	7.919410E-04	1.688459E-05
7.477656E+03	7.858905E-04	1.679270E-05
7.487587E+03	7.800392E-04	1.670454E-05
7.497517E+03	7.741737E-04	1.661556E-05
7.507448E+03	7.684289E-04	1.652865E-05
7.517378E+03	7.628203E-04	1.644417E-05
7.527309E+03	7.573617E-04	1.636243E-05
7.537239E+03	7.520642E-04	1.628369E-05
7.547170E+03	7.469366E-04	1.620816E-05
7.557100E+03	7.419850E-04	1.613600E-05
7.567031E+03	7.372126E-04	1.606728E-05
7.576961E+03	7.326198E-04	1.600206E-05
7.586892E+03	7.282041E-04	1.594028E-05
7.596822E+03	7.239609E-04	1.588189E-05
7.606753E+03	7.198841E-04	1.582675E-05
7.616683E+03	7.159658E-04	1.577473E-05
7.626614E+03	7.121972E-04	1.572564E-05
7.636544E+03	7.085687E-04	1.567930E-05
7.646475E+03	7.050703E-04	1.563549E-05
7.656405E+03	7.015863E-04	1.559167E-05
7.666336E+03	6.983167E-04	1.555228E-05
7.676266E+03	6.951455E-04	1.551477E-05
7.686197E+03	6.920624E-04	1.547892E-05
7.696127E+03	6.890578E-04	1.544452E-05
7.706058E+03	6.861222E-04	1.541137E-05
