#wls	flux	fluxerr
1.588878E+03	1.731578E-05	6.170157E-07
1.628600E+03	1.699601E-05	6.045946E-07
1.668322E+03	1.668849E-05	5.926222E-07
1.708044E+03	1.639719E-05	5.812388E-07
1.747766E+03	1.611729E-05	5.702706E-07
1.787488E+03	1.585282E-05	5.598595E-07
1.827210E+03	1.560485E-05	5.500405E-07
1.866931E+03	1.537718E-05	5.409447E-07
1.906653E+03	1.516534E-05	5.324115E-07
1.946375E+03	1.497588E-05	5.246678E-07
1.986097E+03	1.480715E-05	5.176518E-07
2.025819E+03	1.465772E-05	5.113087E-07
2.065541E+03	1.453404E-05	5.058596E-07
2.105263E+03	1.443477E-05	5.012515E-07
2.144985E+03	1.436126E-05	4.975264E-07
2.184707E+03	1.431502E-05	4.947295E-07
2.224429E+03	1.429770E-05	4.929110E-07
2.264151E+03	1.431111E-05	4.921254E-07
2.303873E+03	1.435731E-05	4.924350E-07
2.343595E+03	1.444116E-05	4.939963E-07
2.383317E+03	1.456018E-05	4.967139E-07
2.423039E+03	1.472251E-05	5.008539E-07
2.462761E+03	1.492642E-05	5.063438E-07
2.502483E+03	1.518114E-05	5.134826E-07
2.542205E+03	1.548595E-05	5.222283E-07
2.581927E+03	1.585161E-05	5.329259E-07
2.621648E+03	1.628169E-05	5.456733E-07
2.661370E+03	1.678343E-05	5.606892E-07
2.701092E+03	1.736531E-05	5.782298E-07
2.740814E+03	1.803727E-05	5.985943E-07
2.780536E+03	1.881092E-05	6.221325E-07
2.820258E+03	1.969989E-05	6.492531E-07
2.859980E+03	2.072018E-05	6.804361E-07
2.899702E+03	2.189058E-05	7.162431E-07
2.939424E+03	2.323724E-05	7.574642E-07
2.979146E+03	2.477819E-05	8.046115E-07
2.989076E+03	2.519784E-05	8.174463E-07
2.999007E+03	2.563228E-05	8.307305E-07
3.008937E+03	2.608662E-05	8.446283E-07
3.018868E+03	2.655237E-05	8.588626E-07
3.028798E+03	2.703461E-05	8.735961E-07
3.038729E+03	2.753394E-05	8.888470E-07
3.048659E+03	2.805102E-05	9.046343E-07
3.058590E+03	2.858650E-05	9.209774E-07
3.068520E+03	2.914109E-05	9.378967E-07
3.078451E+03	2.971549E-05	9.554127E-07
3.088381E+03	3.031577E-05	9.737185E-07
3.098312E+03	3.093216E-05	9.924977E-07
3.108242E+03	3.157071E-05	1.011942E-06
3.118173E+03	3.223223E-05	1.032076E-06
3.128103E+03	3.291761E-05	1.052924E-06
3.138034E+03	3.362774E-05	1.074513E-06
3.147964E+03	3.436355E-05	1.096869E-06
3.157895E+03	3.513218E-05	1.120218E-06
3.167825E+03	3.592244E-05	1.144199E-06
3.177756E+03	3.674141E-05	1.169035E-06
3.187686E+03	3.759018E-05	1.194757E-06
3.197617E+03	3.846987E-05	1.221398E-06
3.207547E+03	3.938161E-05	1.248990E-06
3.217478E+03	4.033371E-05	1.277792E-06
3.227408E+03	4.131340E-05	1.307396E-06
3.237339E+03	4.232891E-05	1.338059E-06
3.247269E+03	4.338154E-05	1.369818E-06
3.257200E+03	4.447266E-05	1.402711E-06
3.267130E+03	4.560369E-05	1.436779E-06
3.277061E+03	4.678428E-05	1.472321E-06
3.286991E+03	4.799976E-05	1.508870E-06
3.296922E+03	4.925966E-05	1.546721E-06
3.306852E+03	5.056558E-05	1.585919E-06
3.316783E+03	5.191915E-05	1.626509E-06
3.326713E+03	5.333136E-05	1.668831E-06
3.336643E+03	5.478558E-05	1.712357E-06
3.346574E+03	5.629263E-05	1.757421E-06
3.356504E+03	5.785434E-05	1.804071E-06
3.366435E+03	5.947256E-05	1.852361E-06
3.376365E+03	6.115986E-05	1.902674E-06
3.386296E+03	6.289714E-05	1.954409E-06
3.396226E+03	6.469676E-05	2.007942E-06
3.406157E+03	6.656072E-05	2.063329E-06
3.416087E+03	6.849107E-05	2.120625E-06
3.426018E+03	7.050220E-05	2.180267E-06
3.435948E+03	7.257198E-05	2.241562E-06
3.445879E+03	7.471449E-05	2.304936E-06
3.455809E+03	7.693189E-05	2.370448E-06
3.465740E+03	7.924015E-05	2.438580E-06
3.475670E+03	8.161428E-05	2.508552E-06
3.485601E+03	8.406988E-05	2.580836E-06
3.495531E+03	8.660914E-05	2.655487E-06
3.505462E+03	8.923429E-05	2.732565E-06
3.515392E+03	9.196351E-05	2.812614E-06
3.525323E+03	9.476747E-05	2.894726E-06
3.535253E+03	9.766387E-05	2.979430E-06
3.545184E+03	1.006549E-04	3.066783E-06
3.555114E+03	1.037605E-04	3.157380E-06
3.565045E+03	1.069475E-04	3.250196E-06
3.574975E+03	1.102352E-04	3.345808E-06
3.584906E+03	1.136257E-04	3.444267E-06
3.594836E+03	1.171207E-04	3.545613E-06
3.604767E+03	1.207432E-04	3.650523E-06
3.614697E+03	1.244534E-04	3.757784E-06
3.624628E+03	1.282734E-04	3.868050E-06
3.634558E+03	1.322046E-04	3.981349E-06
3.644489E+03	1.362723E-04	4.098424E-06
3.654419E+03	1.404309E-04	4.217894E-06
3.664350E+03	1.447046E-04	4.340468E-06
3.674280E+03	1.490944E-04	4.466164E-06
3.684211E+03	1.536278E-04	4.595785E-06
3.694141E+03	1.582528E-04	4.727766E-06
3.704071E+03	1.629959E-04	4.862879E-06
3.714002E+03	1.678572E-04	5.001118E-06
3.723932E+03	1.728370E-04	5.142470E-06
3.733863E+03	1.779659E-04	5.287831E-06
3.743793E+03	1.831828E-04	5.435367E-06
3.753724E+03	1.885170E-04	5.585940E-06
3.763654E+03	1.939678E-04	5.739505E-06
3.773585E+03	1.995686E-04	5.897040E-06
3.783515E+03	2.052500E-04	6.056478E-06
3.793446E+03	2.110441E-04	6.218748E-06
3.803376E+03	2.169491E-04	6.383787E-06
3.813307E+03	2.229628E-04	6.551514E-06
3.823237E+03	2.291227E-04	6.723013E-06
3.833168E+03	2.353479E-04	6.895895E-06
3.843098E+03	2.416740E-04	7.071196E-06
3.853029E+03	2.480982E-04	7.248814E-06
3.862959E+03	2.546609E-04	7.429920E-06
3.872890E+03	2.612716E-04	7.611857E-06
3.882820E+03	2.679692E-04	7.795751E-06
3.892751E+03	2.747499E-04	7.981475E-06
3.902681E+03	2.816091E-04	8.168890E-06
3.912612E+03	2.885920E-04	8.359291E-06
3.922542E+03	2.955953E-04	8.549675E-06
3.932473E+03	3.026628E-04	8.741304E-06
3.942403E+03	3.097890E-04	8.934010E-06
3.952334E+03	3.169688E-04	9.127636E-06
3.962264E+03	3.242521E-04	9.323612E-06
3.972195E+03	3.315229E-04	9.518593E-06
3.982125E+03	3.388297E-04	9.713971E-06
3.992056E+03	3.461666E-04	9.909573E-06
4.001986E+03	3.535275E-04	1.010522E-05
4.011917E+03	3.609680E-04	1.030249E-05
4.021847E+03	3.683590E-04	1.049770E-05
4.031778E+03	3.757548E-04	1.069240E-05
4.041708E+03	3.831490E-04	1.088641E-05
4.051639E+03	3.905349E-04	1.107953E-05
4.061569E+03	3.979747E-04	1.127354E-05
4.071500E+03	4.053260E-04	1.146439E-05
4.081430E+03	4.126497E-04	1.165381E-05
4.091360E+03	4.199389E-04	1.184163E-05
4.101291E+03	4.271876E-04	1.202767E-05
4.111221E+03	4.343892E-04	1.221175E-05
4.121152E+03	4.416133E-04	1.239583E-05
4.131082E+03	4.487032E-04	1.257552E-05
4.141013E+03	4.557276E-04	1.275276E-05
4.150943E+03	4.626804E-04	1.292739E-05
4.160874E+03	4.695559E-04	1.309927E-05
4.170804E+03	4.763485E-04	1.326823E-05
4.180735E+03	4.830529E-04	1.343416E-05
4.190665E+03	4.897479E-04	1.359925E-05
4.200596E+03	4.962618E-04	1.375874E-05
4.210526E+03	5.026727E-04	1.391482E-05
4.220457E+03	5.089766E-04	1.406739E-05
4.230387E+03	5.151692E-04	1.421636E-05
4.240318E+03	5.212472E-04	1.436164E-05
4.250248E+03	5.272073E-04	1.450316E-05
4.260179E+03	5.331384E-04	1.464338E-05
4.270109E+03	5.388565E-04	1.477727E-05
4.280040E+03	5.444503E-04	1.490727E-05
4.289970E+03	5.499188E-04	1.503338E-05
4.299901E+03	5.552616E-04	1.515561E-05
4.309831E+03	5.604789E-04	1.527398E-05
4.319762E+03	5.655713E-04	1.538853E-05
4.329692E+03	5.705403E-04	1.549931E-05
4.339623E+03	5.753873E-04	1.560638E-05
4.349553E+03	5.801139E-04	1.570981E-05
4.359484E+03	5.848209E-04	1.581233E-05
4.369414E+03	5.893078E-04	1.590854E-05
4.379345E+03	5.936708E-04	1.600107E-05
4.389275E+03	5.979065E-04	1.608983E-05
4.399206E+03	6.020103E-04	1.617473E-05
4.409136E+03	6.059785E-04	1.625569E-05
4.419067E+03	6.098073E-04	1.633262E-05
4.428997E+03	6.134935E-04	1.640546E-05
4.438928E+03	6.170344E-04	1.647416E-05
4.448858E+03	6.204279E-04	1.653868E-05
4.458788E+03	6.236722E-04	1.659900E-05
4.468719E+03	6.267662E-04	1.665510E-05
4.478649E+03	6.297094E-04	1.670699E-05
4.488580E+03	6.325015E-04	1.675468E-05
4.498510E+03	6.351428E-04	1.679820E-05
4.508441E+03	6.376341E-04	1.683758E-05
4.518371E+03	6.399766E-04	1.687288E-05
4.528302E+03	6.421715E-04	1.690415E-05
4.538232E+03	6.442210E-04	1.693145E-05
4.548163E+03	6.461272E-04	1.695487E-05
4.558093E+03	6.478925E-04	1.697449E-05
4.568024E+03	6.495196E-04	1.699039E-05
4.577954E+03	6.510117E-04	1.700267E-05
4.587885E+03	6.523721E-04	1.701143E-05
4.597815E+03	6.536041E-04	1.701678E-05
4.607746E+03	6.547115E-04	1.701883E-05
4.617676E+03	6.556982E-04	1.701770E-05
4.627607E+03	6.565683E-04	1.701351E-05
4.637537E+03	6.573260E-04	1.700638E-05
4.647468E+03	6.579755E-04	1.699643E-05
4.657398E+03	6.585214E-04	1.698379E-05
4.667329E+03	6.589680E-04	1.696859E-05
4.677259E+03	6.593201E-04	1.695096E-05
4.687190E+03	6.595823E-04	1.693103E-05
4.697120E+03	6.596470E-04	1.690605E-05
4.707051E+03	6.597434E-04	1.688192E-05
4.716981E+03	6.597639E-04	1.685588E-05
4.726912E+03	6.597131E-04	1.682806E-05
4.736842E+03	6.595959E-04	1.679858E-05
4.746773E+03	6.594168E-04	1.676757E-05
4.756703E+03	6.591802E-04	1.673516E-05
4.766634E+03	6.588906E-04	1.670145E-05
4.776564E+03	6.585524E-04	1.666658E-05
4.786495E+03	6.580580E-04	1.662782E-05
4.796425E+03	6.576350E-04	1.659094E-05
4.806356E+03	6.571759E-04	1.655322E-05
4.816286E+03	6.566842E-04	1.651475E-05
4.826216E+03	6.561637E-04	1.647564E-05
4.836147E+03	6.556178E-04	1.643597E-05
4.846077E+03	6.549388E-04	1.639305E-05
4.856008E+03	6.543524E-04	1.635253E-05
4.865938E+03	6.537501E-04	1.631170E-05
4.875869E+03	6.531348E-04	1.627064E-05
4.885799E+03	6.525092E-04	1.622941E-05
4.895730E+03	6.517650E-04	1.618532E-05
4.905660E+03	6.511259E-04	1.614394E-05
4.915591E+03	6.504830E-04	1.610255E-05
4.925521E+03	6.498383E-04	1.606122E-05
4.935452E+03	6.491935E-04	1.601997E-05
4.945382E+03	6.484401E-04	1.597614E-05
4.955313E+03	6.477994E-04	1.593520E-05
4.965243E+03	6.471625E-04	1.589444E-05
4.975174E+03	6.465303E-04	1.585389E-05
4.985104E+03	6.457944E-04	1.581090E-05
4.995035E+03	6.451740E-04	1.577084E-05
5.004965E+03	6.445603E-04	1.573105E-05
5.014896E+03	6.439536E-04	1.569152E-05
5.024826E+03	6.432452E-04	1.564962E-05
5.034757E+03	6.426532E-04	1.561066E-05
5.044687E+03	6.420684E-04	1.557198E-05
5.054618E+03	6.413821E-04	1.553094E-05
5.064548E+03	6.408113E-04	1.549280E-05
5.074479E+03	6.402469E-04	1.545493E-05
5.084409E+03	6.395805E-04	1.541470E-05
5.094340E+03	6.390279E-04	1.537733E-05
5.104270E+03	6.384803E-04	1.534018E-05
5.114201E+03	6.378292E-04	1.530067E-05
5.124131E+03	6.372898E-04	1.526395E-05
5.134062E+03	6.367533E-04	1.522741E-05
5.143992E+03	6.361117E-04	1.518848E-05
5.153923E+03	6.355794E-04	1.515228E-05
5.163853E+03	6.350479E-04	1.511622E-05
5.173784E+03	6.344094E-04	1.507773E-05
5.183714E+03	6.338777E-04	1.504192E-05
5.193644E+03	6.332379E-04	1.500366E-05
5.203575E+03	6.327034E-04	1.496804E-05
5.213505E+03	6.321666E-04	1.493249E-05
5.223436E+03	6.315204E-04	1.489450E-05
5.233366E+03	6.309777E-04	1.485909E-05
5.243297E+03	6.303253E-04	1.482123E-05
5.253227E+03	6.297757E-04	1.478595E-05
5.263158E+03	6.291162E-04	1.474823E-05
5.273088E+03	6.285594E-04	1.471307E-05
5.283019E+03	6.278932E-04	1.467550E-05
5.292949E+03	6.273300E-04	1.464051E-05
5.302880E+03	6.267644E-04	1.460561E-05
5.312810E+03	6.260915E-04	1.456838E-05
5.322741E+03	6.255236E-04	1.453376E-05
5.332671E+03	6.248507E-04	1.449687E-05
5.342602E+03	6.242853E-04	1.446265E-05
5.352532E+03	6.236183E-04	1.442625E-05
5.362463E+03	6.230621E-04	1.439260E-05
5.372393E+03	6.224088E-04	1.435689E-05
5.382324E+03	6.218708E-04	1.432402E-05
5.392254E+03	6.212412E-04	1.428923E-05
5.402185E+03	6.206278E-04	1.425501E-05
5.412115E+03	6.201387E-04	1.422384E-05
5.422046E+03	6.195679E-04	1.419099E-05
5.431976E+03	6.191280E-04	1.416134E-05
5.441907E+03	6.186134E-04	1.413017E-05
5.451837E+03	6.182355E-04	1.410234E-05
5.461768E+03	6.177873E-04	1.407310E-05
5.471698E+03	6.174770E-04	1.404721E-05
5.481629E+03	6.170947E-04	1.401989E-05
5.491559E+03	6.167428E-04	1.399346E-05
5.501490E+03	6.165234E-04	1.397024E-05
5.511420E+03	6.162266E-04	1.394548E-05
5.521351E+03	6.160585E-04	1.392384E-05
5.531281E+03	6.158100E-04	1.390058E-05
5.541212E+03	6.155837E-04	1.387805E-05
5.551142E+03	6.154824E-04	1.385854E-05
5.561072E+03	6.152978E-04	1.383736E-05
5.571003E+03	6.151331E-04	1.381686E-05
5.580933E+03	6.150919E-04	1.379934E-05
5.590864E+03	6.149666E-04	1.378016E-05
5.600794E+03	6.148611E-04	1.376165E-05
5.610725E+03	6.148790E-04	1.374612E-05
5.620655E+03	6.148138E-04	1.372896E-05
5.630586E+03	6.147696E-04	1.371250E-05
5.640516E+03	6.148503E-04	1.369905E-05
5.650447E+03	6.148497E-04	1.368403E-05
5.660377E+03	6.148722E-04	1.366976E-05
5.670308E+03	6.150219E-04	1.365856E-05
5.680238E+03	6.150926E-04	1.364585E-05
5.690169E+03	6.151888E-04	1.363395E-05
5.700099E+03	6.153112E-04	1.362289E-05
5.710030E+03	6.155642E-04	1.361496E-05
5.719960E+03	6.157417E-04	1.360562E-05
5.729891E+03	6.159476E-04	1.359717E-05
5.739821E+03	6.161831E-04	1.358963E-05
5.749752E+03	6.165522E-04	1.358531E-05
5.759682E+03	6.168482E-04	1.357965E-05
5.769613E+03	6.171753E-04	1.357494E-05
5.779543E+03	6.175340E-04	1.357121E-05
5.789474E+03	6.180285E-04	1.357074E-05
5.799404E+03	6.184514E-04	1.356898E-05
5.809335E+03	6.189066E-04	1.356823E-05
5.819265E+03	6.193943E-04	1.356848E-05
5.829196E+03	6.199144E-04	1.356974E-05
5.839126E+03	6.205712E-04	1.357430E-05
5.849057E+03	6.211558E-04	1.357758E-05
5.858987E+03	6.217722E-04	1.358187E-05
5.868918E+03	6.224198E-04	1.358717E-05
5.878848E+03	6.230982E-04	1.359346E-05
5.888779E+03	6.238065E-04	1.360073E-05
5.898709E+03	6.246492E-04	1.361127E-05
5.908640E+03	6.254152E-04	1.362048E-05
5.918570E+03	6.262085E-04	1.363063E-05
5.928500E+03	6.270278E-04	1.364170E-05
5.938431E+03	6.278718E-04	1.365367E-05
5.948361E+03	6.287392E-04	1.366652E-05
5.958292E+03	6.296284E-04	1.368021E-05
5.968222E+03	6.306436E-04	1.369703E-05
5.978153E+03	6.315712E-04	1.371232E-05
5.988083E+03	6.325152E-04	1.372837E-05
5.998014E+03	6.334734E-04	1.374513E-05
6.007944E+03	6.344440E-04	1.376256E-05
6.017875E+03	6.354244E-04	1.378063E-05
6.027805E+03	6.364126E-04	1.379929E-05
6.037736E+03	6.374062E-04	1.381851E-05
6.047666E+03	6.384029E-04	1.383823E-05
6.057597E+03	6.394003E-04	1.385841E-05
6.067527E+03	6.403961E-04	1.387902E-05
6.077458E+03	6.413882E-04	1.390001E-05
6.087388E+03	6.423743E-04	1.392134E-05
6.097319E+03	6.433528E-04	1.394299E-05
6.107249E+03	6.444301E-04	1.396727E-05
6.117180E+03	6.453882E-04	1.398947E-05
6.127110E+03	6.463345E-04	1.401191E-05
6.137041E+03	6.472679E-04	1.403459E-05
6.146971E+03	6.481882E-04	1.405750E-05
6.156902E+03	6.490953E-04	1.408066E-05
6.166832E+03	6.499890E-04	1.410407E-05
6.176763E+03	6.508699E-04	1.412773E-05
6.186693E+03	6.517372E-04	1.415166E-05
6.196624E+03	6.525895E-04	1.417582E-05
6.206554E+03	6.534222E-04	1.420012E-05
6.216485E+03	6.542288E-04	1.422440E-05
6.226415E+03	6.548902E-04	1.424607E-05
6.236346E+03	6.556172E-04	1.426972E-05
6.246276E+03	6.562906E-04	1.429273E-05
6.256207E+03	6.569014E-04	1.431491E-05
6.266137E+03	6.574411E-04	1.433605E-05
6.276068E+03	6.579018E-04	1.435600E-05
6.285998E+03	6.582765E-04	1.437456E-05
6.295929E+03	6.585589E-04	1.439162E-05
6.305859E+03	6.587434E-04	1.440701E-05
6.315789E+03	6.588254E-04	1.442064E-05
6.325720E+03	6.588006E-04	1.443240E-05
6.335650E+03	6.586660E-04	1.444221E-05
6.345581E+03	6.584189E-04	1.444999E-05
6.355511E+03	6.580575E-04	1.445569E-05
6.365442E+03	6.575805E-04	1.445928E-05
6.375372E+03	6.568772E-04	1.445828E-05
6.385303E+03	6.561687E-04	1.445756E-05
6.395233E+03	6.553451E-04	1.445468E-05
6.405164E+03	6.544079E-04	1.444966E-05
6.415094E+03	6.533590E-04	1.444252E-05
6.425025E+03	6.522010E-04	1.443331E-05
6.434955E+03	6.509367E-04	1.442206E-05
6.444886E+03	6.495699E-04	1.440884E-05
6.454816E+03	6.479953E-04	1.439131E-05
6.464747E+03	6.464358E-04	1.437438E-05
6.474677E+03	6.447869E-04	1.435573E-05
6.484608E+03	6.430537E-04	1.433545E-05
6.494538E+03	6.412417E-04	1.431365E-05
6.504469E+03	6.393567E-04	1.429044E-05
6.514399E+03	6.372976E-04	1.426354E-05
6.524330E+03	6.352853E-04	1.423788E-05
6.534260E+03	6.332187E-04	1.421118E-05
6.544191E+03	6.311044E-04	1.418358E-05
6.554121E+03	6.289490E-04	1.415522E-05
6.564052E+03	6.266537E-04	1.412385E-05
6.573982E+03	6.244367E-04	1.409437E-05
6.583913E+03	6.221988E-04	1.406455E-05
6.593843E+03	6.199467E-04	1.403452E-05
6.603774E+03	6.176871E-04	1.400442E-05
6.613704E+03	6.153229E-04	1.397205E-05
6.623635E+03	6.130680E-04	1.394224E-05
6.633565E+03	6.108246E-04	1.391277E-05
6.643496E+03	6.085988E-04	1.388378E-05
6.653426E+03	6.062945E-04	1.385306E-05
6.663357E+03	6.041216E-04	1.382540E-05
6.673287E+03	6.019830E-04	1.379858E-05
6.683217E+03	5.998837E-04	1.377271E-05
6.693148E+03	5.977280E-04	1.374560E-05
6.703078E+03	5.957220E-04	1.372196E-05
6.713009E+03	5.937688E-04	1.369958E-05
6.722939E+03	5.918720E-04	1.367855E-05
6.732870E+03	5.899361E-04	1.365664E-05
6.742800E+03	5.881631E-04	1.363853E-05
6.752731E+03	5.864560E-04	1.362199E-05
6.762661E+03	5.848174E-04	1.360707E-05
6.772592E+03	5.831510E-04	1.359154E-05
6.782522E+03	5.816553E-04	1.358001E-05
6.792453E+03	5.802332E-04	1.357024E-05
6.802383E+03	5.787880E-04	1.355995E-05
6.812314E+03	5.775157E-04	1.355375E-05
6.822244E+03	5.763187E-04	1.354936E-05
6.832175E+03	5.751001E-04	1.354449E-05
6.842105E+03	5.740532E-04	1.354371E-05
6.852036E+03	5.730804E-04	1.354471E-05
6.861966E+03	5.720838E-04	1.354519E-05
6.871897E+03	5.712552E-04	1.354970E-05
6.881827E+03	5.704960E-04	1.355589E-05
6.891758E+03	5.697080E-04	1.356146E-05
6.901688E+03	5.690811E-04	1.357090E-05
6.911619E+03	5.685163E-04	1.358188E-05
6.921549E+03	5.679149E-04	1.359204E-05
6.931480E+03	5.674650E-04	1.360587E-05
6.941410E+03	5.670673E-04	1.362102E-05
6.951341E+03	5.666225E-04	1.363509E-05
6.961271E+03	5.663176E-04	1.365259E-05
6.971202E+03	5.659574E-04	1.366881E-05
6.981132E+03	5.657284E-04	1.368826E-05
6.991063E+03	5.655305E-04	1.370852E-05
7.000993E+03	5.652634E-04	1.372717E-05
7.010924E+03	5.651132E-04	1.374871E-05
7.020854E+03	5.649794E-04	1.377072E-05
7.030785E+03	5.647616E-04	1.379073E-05
7.040715E+03	5.646453E-04	1.381327E-05
7.050645E+03	5.644346E-04	1.383356E-05
7.060576E+03	5.643150E-04	1.385613E-05
7.070506E+03	5.640907E-04	1.387617E-05
7.080437E+03	5.639471E-04	1.389825E-05
7.090367E+03	5.637838E-04	1.391988E-05
7.100298E+03	5.635006E-04	1.393859E-05
7.110228E+03	5.632830E-04	1.395896E-05
7.120159E+03	5.629362E-04	1.397614E-05
7.130089E+03	5.626454E-04	1.399474E-05
7.140020E+03	5.622165E-04	1.400992E-05
7.149950E+03	5.618350E-04	1.402629E-05
7.159881E+03	5.614022E-04	1.404139E-05
7.169811E+03	5.608196E-04	1.405274E-05
7.179742E+03	5.602733E-04	1.406499E-05
7.189672E+03	5.595710E-04	1.407330E-05
7.199603E+03	5.588988E-04	1.408235E-05
7.209533E+03	5.580656E-04	1.408730E-05
7.219464E+03	5.572577E-04	1.409286E-05
7.229394E+03	5.562852E-04	1.409420E-05
7.239325E+03	5.553345E-04	1.409605E-05
7.249255E+03	5.542170E-04	1.409359E-05
7.259186E+03	5.531193E-04	1.409156E-05
7.269116E+03	5.518540E-04	1.408518E-05
7.279047E+03	5.506077E-04	1.407920E-05
7.288977E+03	5.491947E-04	1.406886E-05
7.298908E+03	5.478014E-04	1.405892E-05
7.308838E+03	5.462436E-04	1.404464E-05
7.318769E+03	5.447073E-04	1.403079E-05
7.328699E+03	5.430100E-04	1.401267E-05
7.338630E+03	5.413375E-04	1.399505E-05
7.348560E+03	5.395086E-04	1.397325E-05
7.358491E+03	5.377086E-04	1.395204E-05
7.368421E+03	5.357581E-04	1.392678E-05
7.378352E+03	5.337513E-04	1.389988E-05
7.388282E+03	5.317814E-04	1.387377E-05
7.398213E+03	5.296715E-04	1.384383E-05
7.408143E+03	5.276044E-04	1.381484E-05
7.418073E+03	5.254053E-04	1.378220E-05
7.428004E+03	5.232558E-04	1.375067E-05
7.437934E+03	5.209826E-04	1.371570E-05
7.447865E+03	5.187664E-04	1.368203E-05
7.457795E+03	5.164353E-04	1.364513E-05
7.467726E+03	5.140818E-04	1.360743E-05
7.477656E+03	5.117968E-04	1.357133E-05
7.487587E+03	5.094111E-04	1.353236E-05
7.497517E+03	5.071021E-04	1.349522E-05
7.507448E+03	5.047021E-04	1.345544E-05
7.517378E+03	5.023020E-04	1.341544E-05
7.527309E+03	4.999911E-04	1.337761E-05
7.537239E+03	4.976042E-04	1.333753E-05
7.547170E+03	4.953145E-04	1.329984E-05
7.557100E+03	4.929578E-04	1.326014E-05
7.567031E+03	4.906211E-04	1.322075E-05
7.576961E+03	4.883889E-04	1.318396E-05
7.586892E+03	4.860957E-04	1.314531E-05
7.596822E+03	4.838248E-04	1.310705E-05
7.606753E+03	4.816578E-04	1.307138E-05
7.616683E+03	4.794311E-04	1.303388E-05
7.626614E+03	4.773074E-04	1.299897E-05
7.636544E+03	4.751247E-04	1.296223E-05
7.646475E+03	4.729645E-04	1.292590E-05
7.656405E+03	4.709070E-04	1.289215E-05
7.666336E+03	4.687924E-04	1.285664E-05
7.676266E+03	4.667012E-04	1.282155E-05
7.686197E+03	4.647131E-04	1.278908E-05
7.696127E+03	4.626704E-04	1.275491E-05
7.706058E+03	4.606529E-04	1.272122E-05
