#wls	flux	fluxerr
1.588878E+03	1.474663E-05	5.705310E-07
1.628600E+03	1.454529E-05	5.617653E-07
1.668322E+03	1.435339E-05	5.533674E-07
1.708044E+03	1.417178E-05	5.453689E-07
1.747766E+03	1.400132E-05	5.378007E-07
1.787488E+03	1.384535E-05	5.307897E-07
1.827210E+03	1.369977E-05	5.241756E-07
1.866931E+03	1.356801E-05	5.180874E-07
1.906653E+03	1.345102E-05	5.125585E-07
1.946375E+03	1.334977E-05	5.076226E-07
1.986097E+03	1.326769E-05	5.034064E-07
2.025819E+03	1.320109E-05	4.997655E-07
2.065541E+03	1.315354E-05	4.968302E-07
2.105263E+03	1.312864E-05	4.947320E-07
2.144985E+03	1.312304E-05	4.933383E-07
2.184707E+03	1.314295E-05	4.928766E-07
2.224429E+03	1.318529E-05	4.932242E-07
2.264151E+03	1.325661E-05	4.946185E-07
2.303873E+03	1.335419E-05	4.969493E-07
2.343595E+03	1.348507E-05	5.004691E-07
2.383317E+03	1.364701E-05	5.050840E-07
2.423039E+03	1.384777E-05	5.110694E-07
2.462761E+03	1.408823E-05	5.184444E-07
2.502483E+03	1.436957E-05	5.272375E-07
2.542205E+03	1.470118E-05	5.377766E-07
2.581927E+03	1.508543E-05	5.501298E-07
2.621648E+03	1.552519E-05	5.643802E-07
2.661370E+03	1.603238E-05	5.809379E-07
2.701092E+03	1.661176E-05	5.999470E-07
2.740814E+03	1.727188E-05	6.216861E-07
2.780536E+03	1.802262E-05	6.464752E-07
2.820258E+03	1.887536E-05	6.746827E-07
2.859980E+03	1.984325E-05	7.067321E-07
2.899702E+03	2.093770E-05	7.429778E-07
2.939424E+03	2.218342E-05	7.842367E-07
2.979146E+03	2.359701E-05	8.310245E-07
2.989076E+03	2.398141E-05	8.437444E-07
2.999007E+03	2.437384E-05	8.567170E-07
3.008937E+03	2.478336E-05	8.702592E-07
3.018868E+03	2.520158E-05	8.840751E-07
3.028798E+03	2.563789E-05	8.984926E-07
3.038729E+03	2.608364E-05	9.132071E-07
3.048659E+03	2.654856E-05	9.285571E-07
3.058590E+03	2.702371E-05	9.442285E-07
3.068520E+03	2.751917E-05	9.605719E-07
3.078451E+03	2.802571E-05	9.772628E-07
3.088381E+03	2.855377E-05	9.946639E-07
3.098312E+03	2.909901E-05	1.012621E-06
3.108242E+03	2.965671E-05	1.030969E-06
3.118173E+03	3.023794E-05	1.050090E-06
3.128103E+03	3.083262E-05	1.069632E-06
3.138034E+03	3.145225E-05	1.089991E-06
3.147964E+03	3.208640E-05	1.110804E-06
3.157895E+03	3.274705E-05	1.132483E-06
3.167825E+03	3.342332E-05	1.154649E-06
3.177756E+03	3.412773E-05	1.177733E-06
3.187686E+03	3.484895E-05	1.201339E-06
3.197617E+03	3.560003E-05	1.225917E-06
3.207547E+03	3.636920E-05	1.251056E-06
3.217478E+03	3.717006E-05	1.277222E-06
3.227408E+03	3.799033E-05	1.303990E-06
3.237339E+03	3.884425E-05	1.331846E-06
3.247269E+03	3.971899E-05	1.360345E-06
3.257200E+03	4.062943E-05	1.389995E-06
3.267130E+03	4.156215E-05	1.420333E-06
3.277061E+03	4.253275E-05	1.451887E-06
3.286991E+03	4.352718E-05	1.484176E-06
3.296922E+03	4.456176E-05	1.517750E-06
3.306852E+03	4.562181E-05	1.552106E-06
3.316783E+03	4.672440E-05	1.587820E-06
3.326713E+03	4.786265E-05	1.624654E-06
3.336643E+03	4.902891E-05	1.662345E-06
3.346574E+03	5.024153E-05	1.701508E-06
3.356504E+03	5.148394E-05	1.741580E-06
3.366435E+03	5.277538E-05	1.783204E-06
3.376365E+03	5.409845E-05	1.825789E-06
3.386296E+03	5.547333E-05	1.870011E-06
3.396226E+03	5.688171E-05	1.915245E-06
3.406157E+03	5.834479E-05	1.962201E-06
3.416087E+03	5.984329E-05	2.010225E-06
3.426018E+03	6.139947E-05	2.060058E-06
3.435948E+03	6.299302E-05	2.111012E-06
3.445879E+03	6.464732E-05	2.163865E-06
3.455809E+03	6.635271E-05	2.218287E-06
3.465740E+03	6.809840E-05	2.273910E-06
3.475670E+03	6.990958E-05	2.331570E-06
3.485601E+03	7.176300E-05	2.390482E-06
3.495531E+03	7.368512E-05	2.451523E-06
3.505462E+03	7.565139E-05	2.513866E-06
3.515392E+03	7.768963E-05	2.578431E-06
3.525323E+03	7.977388E-05	2.644345E-06
3.535253E+03	8.193337E-05	2.712573E-06
3.545184E+03	8.414064E-05	2.782195E-06
3.555114E+03	8.642645E-05	2.854220E-06
3.565045E+03	8.876171E-05	2.927681E-06
3.574975E+03	9.117874E-05	3.003633E-06
3.584906E+03	9.366340E-05	3.081601E-06
3.594836E+03	9.619977E-05	3.161053E-06
3.604767E+03	9.882269E-05	3.243126E-06
3.614697E+03	1.014986E-04	3.326710E-06
3.624628E+03	1.042642E-04	3.412993E-06
3.634558E+03	1.070837E-04	3.500802E-06
3.644489E+03	1.099959E-04	3.591388E-06
3.654419E+03	1.129629E-04	3.683508E-06
3.664350E+03	1.160253E-04	3.778475E-06
3.674280E+03	1.191430E-04	3.874975E-06
3.684211E+03	1.223588E-04	3.974387E-06
3.694141E+03	1.256302E-04	4.075319E-06
3.704071E+03	1.290018E-04	4.179210E-06
3.714002E+03	1.324525E-04	4.285365E-06
3.723932E+03	1.359585E-04	4.393003E-06
3.733863E+03	1.395679E-04	4.503669E-06
3.743793E+03	1.432319E-04	4.615774E-06
3.753724E+03	1.470009E-04	4.730935E-06
3.763654E+03	1.508233E-04	4.847483E-06
3.773585E+03	1.547520E-04	4.967103E-06
3.783515E+03	1.587325E-04	5.088037E-06
3.793446E+03	1.628204E-04	5.212053E-06
3.803376E+03	1.669579E-04	5.337295E-06
3.813307E+03	1.712031E-04	5.465611E-06
3.823237E+03	1.754956E-04	5.595055E-06
3.833168E+03	1.798958E-04	5.727551E-06
3.843098E+03	1.843727E-04	5.862094E-06
3.853029E+03	1.888918E-04	5.997578E-06
3.862959E+03	1.935181E-04	6.136062E-06
3.872890E+03	1.981827E-04	6.275346E-06
3.882820E+03	2.029533E-04	6.417572E-06
3.892751E+03	2.077576E-04	6.560436E-06
3.902681E+03	2.126665E-04	6.706174E-06
3.912612E+03	2.176040E-04	6.852375E-06
3.922542E+03	2.226441E-04	7.001368E-06
3.932473E+03	2.277070E-04	7.150628E-06
3.942403E+03	2.328699E-04	7.302577E-06
3.952334E+03	2.380494E-04	7.454586E-06
3.962264E+03	2.433260E-04	7.609178E-06
3.972195E+03	2.486122E-04	7.763600E-06
3.982125E+03	2.539920E-04	7.920477E-06
3.992056E+03	2.593738E-04	8.076941E-06
4.001986E+03	2.648454E-04	8.235723E-06
4.011917E+03	2.703587E-04	8.395320E-06
4.021847E+03	2.758617E-04	8.554112E-06
4.031778E+03	2.814475E-04	8.714986E-06
4.041708E+03	2.870142E-04	8.874780E-06
4.051639E+03	2.926584E-04	9.036480E-06
4.061569E+03	2.982739E-04	9.196805E-06
4.071500E+03	3.039613E-04	9.358854E-06
4.081430E+03	3.096099E-04	9.519219E-06
4.091360E+03	3.153241E-04	9.681107E-06
4.101291E+03	3.209891E-04	9.840994E-06
4.111221E+03	3.267127E-04	1.000219E-05
4.121152E+03	3.323760E-04	1.016105E-05
4.131082E+03	3.380906E-04	1.032099E-05
4.141013E+03	3.437332E-04	1.047824E-05
4.150943E+03	3.494191E-04	1.063634E-05
4.160874E+03	3.550207E-04	1.079139E-05
4.170804E+03	3.606569E-04	1.094703E-05
4.180735E+03	3.661958E-04	1.109924E-05
4.190665E+03	3.717600E-04	1.125175E-05
4.200596E+03	3.772134E-04	1.140045E-05
4.210526E+03	3.826820E-04	1.154917E-05
4.220457E+03	3.880253E-04	1.169365E-05
4.230387E+03	3.933727E-04	1.183783E-05
4.240318E+03	3.985798E-04	1.197735E-05
4.250248E+03	4.037790E-04	1.211622E-05
4.260179E+03	4.088215E-04	1.224998E-05
4.270109E+03	4.138431E-04	1.238271E-05
4.280040E+03	4.186908E-04	1.250985E-05
4.289970E+03	4.235032E-04	1.263557E-05
4.299901E+03	4.281233E-04	1.275518E-05
4.309831E+03	4.326926E-04	1.287293E-05
4.319762E+03	4.370503E-04	1.298405E-05
4.329692E+03	4.413408E-04	1.309286E-05
4.339623E+03	4.454002E-04	1.319450E-05
4.349553E+03	4.493761E-04	1.329338E-05
4.359484E+03	4.531030E-04	1.338463E-05
4.369414E+03	4.566560E-04	1.347049E-05
4.379345E+03	4.601178E-04	1.355342E-05
4.389275E+03	4.633291E-04	1.362876E-05
4.399206E+03	4.664556E-04	1.370140E-05
4.409136E+03	4.693370E-04	1.376667E-05
4.419067E+03	4.721419E-04	1.382952E-05
4.428997E+03	4.747085E-04	1.388523E-05
4.438928E+03	4.772073E-04	1.393884E-05
4.448858E+03	4.794750E-04	1.398557E-05
4.458788E+03	4.816839E-04	1.403047E-05
4.468719E+03	4.836689E-04	1.406876E-05
4.478649E+03	4.856038E-04	1.410551E-05
4.488580E+03	4.873221E-04	1.413589E-05
4.498510E+03	4.889129E-04	1.416251E-05
4.508441E+03	4.904666E-04	1.418799E-05
4.518371E+03	4.918145E-04	1.420748E-05
4.528302E+03	4.931336E-04	1.422610E-05
4.538232E+03	4.942543E-04	1.423897E-05
4.548163E+03	4.953541E-04	1.425121E-05
4.558093E+03	4.962628E-04	1.425795E-05
4.568024E+03	4.971585E-04	1.426430E-05
4.577954E+03	4.978704E-04	1.426539E-05
4.587885E+03	4.984893E-04	1.426382E-05
4.597815E+03	4.991069E-04	1.426223E-05
4.607746E+03	4.995513E-04	1.425571E-05
4.617676E+03	5.000019E-04	1.424939E-05
4.627607E+03	5.002862E-04	1.423837E-05
4.637537E+03	5.004959E-04	1.422527E-05
4.647468E+03	5.007224E-04	1.421268E-05
4.657398E+03	5.007932E-04	1.419573E-05
4.667329E+03	5.008877E-04	1.417950E-05
4.677259E+03	5.008333E-04	1.415910E-05
4.687190E+03	5.008092E-04	1.413963E-05
4.697120E+03	5.006428E-04	1.411620E-05
4.707051E+03	5.004251E-04	1.409140E-05
4.716981E+03	5.002473E-04	1.406779E-05
4.726912E+03	4.999365E-04	1.404051E-05
4.736842E+03	4.996715E-04	1.401459E-05
4.746773E+03	4.992796E-04	1.398520E-05
4.756703E+03	4.988515E-04	1.395487E-05
4.766634E+03	4.984774E-04	1.392613E-05
4.776564E+03	4.979850E-04	1.389418E-05
4.786495E+03	4.974644E-04	1.386153E-05
4.796425E+03	4.970055E-04	1.383068E-05
4.806356E+03	4.964360E-04	1.379685E-05
4.816286E+03	4.959329E-04	1.376495E-05
4.826216E+03	4.953239E-04	1.373021E-05
4.836147E+03	4.946986E-04	1.369511E-05
4.846077E+03	4.941459E-04	1.366212E-05
4.856008E+03	4.934940E-04	1.362647E-05
4.865938E+03	4.928318E-04	1.359065E-05
4.875869E+03	4.922476E-04	1.355706E-05
4.885799E+03	4.915701E-04	1.352101E-05
4.895730E+03	4.909738E-04	1.348728E-05
4.905660E+03	4.902877E-04	1.345119E-05
4.915591E+03	4.895996E-04	1.341514E-05
4.925521E+03	4.889968E-04	1.338153E-05
4.935452E+03	4.883087E-04	1.334568E-05
4.945382E+03	4.876226E-04	1.330999E-05
4.955313E+03	4.870252E-04	1.327681E-05
4.965243E+03	4.863465E-04	1.324152E-05
4.975174E+03	4.856729E-04	1.320647E-05
4.985104E+03	4.850907E-04	1.317400E-05
4.995035E+03	4.844302E-04	1.313950E-05
5.004965E+03	4.837776E-04	1.310532E-05
5.014896E+03	4.832184E-04	1.307377E-05
5.024826E+03	4.825836E-04	1.304027E-05
5.034757E+03	4.819586E-04	1.300714E-05
5.044687E+03	4.814285E-04	1.297666E-05
5.054618E+03	4.808247E-04	1.294430E-05
5.064548E+03	4.802323E-04	1.291234E-05
5.074479E+03	4.796517E-04	1.288081E-05
5.084409E+03	4.791672E-04	1.285195E-05
5.094340E+03	4.786111E-04	1.282127E-05
5.104270E+03	4.780676E-04	1.279103E-05
5.114201E+03	4.776210E-04	1.276348E-05
5.124131E+03	4.771036E-04	1.273414E-05
5.134062E+03	4.765997E-04	1.270525E-05
5.143992E+03	4.761926E-04	1.267905E-05
5.153923E+03	4.757158E-04	1.265110E-05
5.163853E+03	4.752527E-04	1.262361E-05
5.173784E+03	4.748034E-04	1.259659E-05
5.183714E+03	4.744513E-04	1.257225E-05
5.193644E+03	4.740299E-04	1.254617E-05
5.203575E+03	4.736225E-04	1.252057E-05
5.213505E+03	4.732293E-04	1.249545E-05
5.223436E+03	4.729329E-04	1.247300E-05
5.233366E+03	4.725678E-04	1.244883E-05
5.243297E+03	4.722167E-04	1.242514E-05
5.253227E+03	4.719624E-04	1.240410E-05
5.263158E+03	4.716393E-04	1.238136E-05
5.273088E+03	4.713303E-04	1.235910E-05
5.283019E+03	4.710352E-04	1.233732E-05
5.292949E+03	4.708362E-04	1.231817E-05
5.302880E+03	4.705684E-04	1.229732E-05
5.312810E+03	4.703141E-04	1.227694E-05
5.322741E+03	4.700729E-04	1.225703E-05
5.332671E+03	4.698447E-04	1.223757E-05
5.342602E+03	4.697114E-04	1.222069E-05
5.352532E+03	4.695079E-04	1.220211E-05
5.362463E+03	4.693159E-04	1.218395E-05
5.372393E+03	4.691351E-04	1.216621E-05
5.382324E+03	4.690464E-04	1.215098E-05
5.392254E+03	4.688849E-04	1.213398E-05
5.402185E+03	4.687316E-04	1.211733E-05
5.412115E+03	4.685852E-04	1.210099E-05
5.422046E+03	4.684445E-04	1.208493E-05
5.431976E+03	4.683899E-04	1.207123E-05
5.441907E+03	4.682558E-04	1.205562E-05
5.451837E+03	4.681224E-04	1.204016E-05
5.461768E+03	4.679890E-04	1.202485E-05
5.471698E+03	4.679394E-04	1.201184E-05
5.481629E+03	4.678121E-04	1.199698E-05
5.491559E+03	4.676912E-04	1.198243E-05
5.501490E+03	4.675788E-04	1.196825E-05
5.511420E+03	4.674768E-04	1.195449E-05
5.521351E+03	4.673871E-04	1.194120E-05
5.531281E+03	4.673931E-04	1.193050E-05
5.541212E+03	4.673324E-04	1.191825E-05
5.551142E+03	4.672885E-04	1.190659E-05
5.561072E+03	4.672623E-04	1.189553E-05
5.571003E+03	4.672548E-04	1.188511E-05
5.580933E+03	4.672671E-04	1.187536E-05
5.590864E+03	4.673816E-04	1.186836E-05
5.600794E+03	4.674356E-04	1.185998E-05
5.610725E+03	4.675115E-04	1.185233E-05
5.620655E+03	4.676099E-04	1.184541E-05
5.630586E+03	4.677312E-04	1.183924E-05
5.640516E+03	4.678761E-04	1.183383E-05
5.650447E+03	4.681267E-04	1.183127E-05
5.660377E+03	4.683197E-04	1.182742E-05
5.670308E+03	4.685373E-04	1.182437E-05
5.680238E+03	4.687796E-04	1.182211E-05
5.690169E+03	4.690471E-04	1.182067E-05
5.700099E+03	4.693397E-04	1.182004E-05
5.710030E+03	4.696578E-04	1.182024E-05
5.719960E+03	4.700835E-04	1.182333E-05
5.729891E+03	4.704527E-04	1.182518E-05
5.739821E+03	4.708473E-04	1.182786E-05
5.749752E+03	4.712675E-04	1.183138E-05
5.759682E+03	4.717131E-04	1.183573E-05
5.769613E+03	4.721840E-04	1.184091E-05
5.779543E+03	4.726800E-04	1.184692E-05
5.789474E+03	4.732008E-04	1.185376E-05
5.799404E+03	4.737462E-04	1.186143E-05
5.809335E+03	4.743988E-04	1.187199E-05
5.819265E+03	4.749922E-04	1.188128E-05
5.829196E+03	4.756090E-04	1.189137E-05
5.839126E+03	4.762484E-04	1.190225E-05
5.849057E+03	4.769100E-04	1.191391E-05
5.858987E+03	4.775929E-04	1.192633E-05
5.868918E+03	4.782965E-04	1.193950E-05
5.878848E+03	4.790196E-04	1.195340E-05
5.888779E+03	4.797617E-04	1.196802E-05
5.898709E+03	4.805215E-04	1.198332E-05
5.908640E+03	4.812980E-04	1.199929E-05
5.918570E+03	4.821742E-04	1.201801E-05
5.928500E+03	4.829802E-04	1.203523E-05
5.938431E+03	4.837990E-04	1.205304E-05
5.948361E+03	4.846289E-04	1.207140E-05
5.958292E+03	4.854683E-04	1.209027E-05
5.968222E+03	4.863154E-04	1.210962E-05
5.978153E+03	4.871685E-04	1.212940E-05
5.988083E+03	4.880254E-04	1.214957E-05
5.998014E+03	4.888841E-04	1.217008E-05
6.007944E+03	4.897424E-04	1.219088E-05
6.017875E+03	4.905978E-04	1.221193E-05
6.027805E+03	4.914478E-04	1.223315E-05
6.037736E+03	4.922897E-04	1.225449E-05
6.047666E+03	4.931207E-04	1.227589E-05
6.057597E+03	4.939377E-04	1.229727E-05
6.067527E+03	4.947374E-04	1.231856E-05
6.077458E+03	4.955166E-04	1.233968E-05
6.087388E+03	4.962716E-04	1.236054E-05
6.097319E+03	4.969983E-04	1.238106E-05
6.107249E+03	4.976926E-04	1.240113E-05
6.117180E+03	4.983503E-04	1.242064E-05
6.127110E+03	4.989663E-04	1.243950E-05
6.137041E+03	4.996230E-04	1.245974E-05
6.146971E+03	5.001400E-04	1.247687E-05
6.156902E+03	5.005986E-04	1.249294E-05
6.166832E+03	5.009923E-04	1.250777E-05
6.176763E+03	5.013139E-04	1.252119E-05
6.186693E+03	5.015558E-04	1.253301E-05
6.196624E+03	5.017101E-04	1.254304E-05
6.206554E+03	5.017731E-04	1.255118E-05
6.216485E+03	5.017493E-04	1.255754E-05
6.226415E+03	5.016436E-04	1.256221E-05
6.236346E+03	5.014603E-04	1.256532E-05
6.246276E+03	5.012030E-04	1.256693E-05
6.256207E+03	5.008752E-04	1.256712E-05
6.266137E+03	5.004800E-04	1.256596E-05
6.276068E+03	5.000199E-04	1.256352E-05
6.285998E+03	4.994100E-04	1.255763E-05
6.295929E+03	4.988273E-04	1.255275E-05
6.305859E+03	4.981864E-04	1.254671E-05
6.315789E+03	4.974892E-04	1.253955E-05
6.325720E+03	4.967376E-04	1.253132E-05
6.335650E+03	4.959332E-04	1.252204E-05
6.345581E+03	4.950779E-04	1.251175E-05
6.355511E+03	4.941733E-04	1.250048E-05
6.365442E+03	4.932211E-04	1.248826E-05
6.375372E+03	4.922232E-04	1.247513E-05
6.385303E+03	4.911811E-04	1.246112E-05
6.395233E+03	4.900968E-04	1.244628E-05
6.405164E+03	4.889722E-04	1.243062E-05
6.415094E+03	4.878090E-04	1.241421E-05
6.425025E+03	4.866093E-04	1.239706E-05
6.434955E+03	4.853752E-04	1.237924E-05
6.444886E+03	4.841085E-04	1.236077E-05
6.454816E+03	4.828116E-04	1.234170E-05
6.464747E+03	4.814866E-04	1.232209E-05
6.474677E+03	4.801356E-04	1.230197E-05
6.484608E+03	4.787610E-04	1.228140E-05
6.494538E+03	4.773649E-04	1.226043E-05
6.504469E+03	4.758667E-04	1.223697E-05
6.514399E+03	4.744354E-04	1.221535E-05
6.524330E+03	4.729897E-04	1.219349E-05
6.534260E+03	4.715321E-04	1.217143E-05
6.544191E+03	4.700650E-04	1.214925E-05
6.554121E+03	4.685909E-04	1.212697E-05
6.564052E+03	4.671120E-04	1.210468E-05
6.573982E+03	4.656308E-04	1.208241E-05
6.583913E+03	4.641496E-04	1.206022E-05
6.593843E+03	4.626707E-04	1.203817E-05
6.603774E+03	4.611964E-04	1.201632E-05
6.613704E+03	4.597289E-04	1.199470E-05
6.623635E+03	4.581902E-04	1.197129E-05
6.633565E+03	4.567430E-04	1.195033E-05
6.643496E+03	4.553089E-04	1.192976E-05
6.653426E+03	4.538898E-04	1.190963E-05
6.663357E+03	4.524877E-04	1.188999E-05
6.673287E+03	4.511044E-04	1.187089E-05
6.683217E+03	4.497415E-04	1.185236E-05
6.693148E+03	4.484006E-04	1.183445E-05
6.703078E+03	4.470834E-04	1.181720E-05
6.713009E+03	4.457131E-04	1.179857E-05
6.722939E+03	4.444474E-04	1.178273E-05
6.732870E+03	4.432090E-04	1.176764E-05
6.742800E+03	4.419992E-04	1.175333E-05
6.752731E+03	4.408188E-04	1.173983E-05
6.762661E+03	4.396687E-04	1.172715E-05
6.772592E+03	4.385497E-04	1.171532E-05
6.782522E+03	4.374622E-04	1.170435E-05
6.792453E+03	4.363306E-04	1.169221E-05
6.802383E+03	4.353079E-04	1.168300E-05
6.812314E+03	4.343179E-04	1.167469E-05
6.822244E+03	4.333605E-04	1.166726E-05
6.832175E+03	4.324360E-04	1.166074E-05
6.842105E+03	4.315442E-04	1.165510E-05
6.852036E+03	4.306848E-04	1.165036E-05
6.861966E+03	4.297821E-04	1.164445E-05
6.871897E+03	4.289864E-04	1.164145E-05
6.881827E+03	4.282216E-04	1.163931E-05
6.891758E+03	4.274872E-04	1.163800E-05
6.901688E+03	4.267824E-04	1.163750E-05
6.911619E+03	4.261062E-04	1.163780E-05
6.921549E+03	4.254576E-04	1.163886E-05
6.931480E+03	4.247614E-04	1.163863E-05
6.941410E+03	4.241650E-04	1.164115E-05
6.951341E+03	4.235930E-04	1.164434E-05
6.961271E+03	4.230438E-04	1.164817E-05
6.971202E+03	4.225162E-04	1.165261E-05
6.981132E+03	4.220088E-04	1.165761E-05
6.991063E+03	4.214463E-04	1.166110E-05
7.000993E+03	4.209748E-04	1.166711E-05
7.010924E+03	4.205189E-04	1.167357E-05
7.020854E+03	4.200769E-04	1.168042E-05
7.030785E+03	4.196473E-04	1.168762E-05
7.040715E+03	4.191548E-04	1.169307E-05
7.050645E+03	4.187448E-04	1.170083E-05
7.060576E+03	4.183421E-04	1.170880E-05
7.070506E+03	4.179449E-04	1.171692E-05
7.080437E+03	4.175516E-04	1.172516E-05
7.090367E+03	4.171604E-04	1.173346E-05
7.100298E+03	4.166969E-04	1.173972E-05
7.110228E+03	4.163052E-04	1.174800E-05
7.120159E+03	4.159108E-04	1.175620E-05
7.130089E+03	4.155119E-04	1.176427E-05
7.140020E+03	4.151072E-04	1.177217E-05
7.149950E+03	4.146225E-04	1.177778E-05
7.159881E+03	4.142016E-04	1.178520E-05
7.169811E+03	4.137704E-04	1.179231E-05
7.179742E+03	4.133276E-04	1.179908E-05
7.189672E+03	4.127995E-04	1.180339E-05
7.199603E+03	4.123298E-04	1.180934E-05
7.209533E+03	4.118445E-04	1.181483E-05
7.219464E+03	4.113430E-04	1.181983E-05
7.229394E+03	4.108240E-04	1.182429E-05
7.239325E+03	4.102146E-04	1.182613E-05
7.249255E+03	4.096579E-04	1.182944E-05
7.259186E+03	4.090810E-04	1.183214E-05
7.269116E+03	4.084831E-04	1.183419E-05
7.279047E+03	4.077921E-04	1.183350E-05
7.288977E+03	4.071503E-04	1.183419E-05
7.298908E+03	4.064856E-04	1.183416E-05
7.308838E+03	4.057974E-04	1.183340E-05
7.318769E+03	4.050852E-04	1.183189E-05
7.328699E+03	4.042775E-04	1.182753E-05
7.338630E+03	4.035159E-04	1.182446E-05
7.348560E+03	4.027290E-04	1.182058E-05
7.358491E+03	4.019162E-04	1.181588E-05
7.368421E+03	4.010069E-04	1.180827E-05
7.378352E+03	4.001415E-04	1.180187E-05
7.388282E+03	3.992491E-04	1.179461E-05
7.398213E+03	3.983292E-04	1.178645E-05
7.408143E+03	3.973116E-04	1.177532E-05
7.418073E+03	3.963354E-04	1.176533E-05
7.428004E+03	3.953301E-04	1.175439E-05
7.437934E+03	3.942951E-04	1.174247E-05
7.447865E+03	3.931606E-04	1.172749E-05
7.457795E+03	3.920639E-04	1.171354E-05
7.467726E+03	3.909349E-04	1.169853E-05
7.477656E+03	3.897041E-04	1.168036E-05
7.487587E+03	3.885073E-04	1.166310E-05
7.497517E+03	3.872746E-04	1.164465E-05
7.507448E+03	3.860044E-04	1.162496E-05
7.517378E+03	3.846278E-04	1.160194E-05
7.527309E+03	3.832784E-04	1.157961E-05
7.537239E+03	3.818868E-04	1.155588E-05
7.547170E+03	3.804515E-04	1.153069E-05
7.557100E+03	3.789048E-04	1.150199E-05
7.567031E+03	3.773798E-04	1.147378E-05
7.576961E+03	3.758128E-04	1.144416E-05
7.586892E+03	3.741426E-04	1.141123E-05
7.596822E+03	3.725054E-04	1.137913E-05
7.606753E+03	3.708396E-04	1.134601E-05
7.616683E+03	3.691498E-04	1.131198E-05
7.626614E+03	3.673757E-04	1.127519E-05
7.636544E+03	3.656507E-04	1.123973E-05
7.646475E+03	3.639139E-04	1.120372E-05
7.656405E+03	3.621051E-04	1.116533E-05
7.666336E+03	3.603553E-04	1.112857E-05
7.676266E+03	3.586036E-04	1.109157E-05
7.686197E+03	3.567903E-04	1.105247E-05
7.696127E+03	3.550437E-04	1.101527E-05
7.706058E+03	3.533034E-04	1.097807E-05
