#wls	flux	fluxerr
1.588878E+03	1.500128E-05	5.719992E-07
1.628600E+03	1.478771E-05	5.628843E-07
1.668322E+03	1.458648E-05	5.542438E-07
1.708044E+03	1.439316E-05	5.459076E-07
1.747766E+03	1.421130E-05	5.380085E-07
1.787488E+03	1.404178E-05	5.305782E-07
1.827210E+03	1.388552E-05	5.236490E-07
1.866931E+03	1.374591E-05	5.173458E-07
1.906653E+03	1.361894E-05	5.115149E-07
1.946375E+03	1.351052E-05	5.063754E-07
1.986097E+03	1.341684E-05	5.017800E-07
2.025819E+03	1.334143E-05	4.978573E-07
2.065541E+03	1.328785E-05	4.947356E-07
2.105263E+03	1.325258E-05	4.922781E-07
2.144985E+03	1.324177E-05	4.907077E-07
2.184707E+03	1.325212E-05	4.898965E-07
2.224429E+03	1.329007E-05	4.900750E-07
2.264151E+03	1.335504E-05	4.912143E-07
2.303873E+03	1.344667E-05	4.932928E-07
2.343595E+03	1.357206E-05	4.965613E-07
2.383317E+03	1.373139E-05	5.010154E-07
2.423039E+03	1.392758E-05	5.067504E-07
2.462761E+03	1.416397E-05	5.138743E-07
2.502483E+03	1.444174E-05	5.224155E-07
2.542205E+03	1.477036E-05	5.327006E-07
2.581927E+03	1.515226E-05	5.447975E-07
2.621648E+03	1.559314E-05	5.588907E-07
2.661370E+03	1.609957E-05	5.751917E-07
2.701092E+03	1.667913E-05	5.939447E-07
2.740814E+03	1.734057E-05	6.154300E-07
2.780536E+03	1.809395E-05	6.399702E-07
2.820258E+03	1.895095E-05	6.679381E-07
2.859980E+03	1.992504E-05	6.997627E-07
2.899702E+03	2.103556E-05	7.360702E-07
2.939424E+03	2.229323E-05	7.771746E-07
2.979146E+03	2.372239E-05	8.238554E-07
2.989076E+03	2.410706E-05	8.364080E-07
2.999007E+03	2.450863E-05	8.495176E-07
3.008937E+03	2.492330E-05	8.630506E-07
3.018868E+03	2.534701E-05	8.768646E-07
3.028798E+03	2.578915E-05	8.912835E-07
3.038729E+03	2.624107E-05	9.060067E-07
3.048659E+03	2.671257E-05	9.213704E-07
3.058590E+03	2.719467E-05	9.370636E-07
3.068520E+03	2.769752E-05	9.534343E-07
3.078451E+03	2.821187E-05	9.701617E-07
3.088381E+03	2.874824E-05	9.876061E-07
3.098312E+03	2.930227E-05	1.005615E-06
3.108242E+03	2.986926E-05	1.024026E-06
3.118173E+03	3.046033E-05	1.043218E-06
3.128103E+03	3.106540E-05	1.062843E-06
3.138034E+03	3.169606E-05	1.083296E-06
3.147964E+03	3.234181E-05	1.104215E-06
3.157895E+03	3.301478E-05	1.126011E-06
3.167825E+03	3.371002E-05	1.148515E-06
3.177756E+03	3.442217E-05	1.171539E-06
3.187686E+03	3.516412E-05	1.195520E-06
3.197617E+03	3.592426E-05	1.220062E-06
3.207547E+03	3.671607E-05	1.245617E-06
3.217478E+03	3.752746E-05	1.271774E-06
3.227408E+03	3.837249E-05	1.299005E-06
3.237339E+03	3.924553E-05	1.327117E-06
3.247269E+03	4.014034E-05	1.355895E-06
3.257200E+03	4.107201E-05	1.385845E-06
3.267130E+03	4.202701E-05	1.416507E-06
3.277061E+03	4.302114E-05	1.448410E-06
3.286991E+03	4.404810E-05	1.481338E-06
3.296922E+03	4.510092E-05	1.515052E-06
3.306852E+03	4.619650E-05	1.550116E-06
3.316783E+03	4.731969E-05	1.586017E-06
3.326713E+03	4.848825E-05	1.623346E-06
3.336643E+03	4.969508E-05	1.661861E-06
3.346574E+03	5.093232E-05	1.701293E-06
3.356504E+03	5.221901E-05	1.742275E-06
3.366435E+03	5.353803E-05	1.784229E-06
3.376365E+03	5.490941E-05	1.827819E-06
3.386296E+03	5.631510E-05	1.872436E-06
3.396226E+03	5.777614E-05	1.918777E-06
3.406157E+03	5.928405E-05	1.966553E-06
3.416087E+03	6.082936E-05	2.015443E-06
3.426018E+03	6.243471E-05	2.066194E-06
3.435948E+03	6.407954E-05	2.118116E-06
3.445879E+03	6.578765E-05	2.171991E-06
3.455809E+03	6.754932E-05	2.227490E-06
3.465740E+03	6.935363E-05	2.284248E-06
3.475670E+03	7.122624E-05	2.343101E-06
3.485601E+03	7.314357E-05	2.403268E-06
3.495531E+03	7.513261E-05	2.465628E-06
3.505462E+03	7.718212E-05	2.529803E-06
3.515392E+03	7.927942E-05	2.595370E-06
3.525323E+03	8.145362E-05	2.663275E-06
3.535253E+03	8.367758E-05	2.732622E-06
3.545184E+03	8.598190E-05	2.804402E-06
3.555114E+03	8.835350E-05	2.878179E-06
3.565045E+03	9.077759E-05	2.953463E-06
3.574975E+03	9.328721E-05	3.031320E-06
3.584906E+03	9.585098E-05	3.110721E-06
3.594836E+03	9.850364E-05	3.192785E-06
3.604767E+03	1.012298E-04	3.277003E-06
3.614697E+03	1.040124E-04	3.362811E-06
3.624628E+03	1.068887E-04	3.451406E-06
3.634558E+03	1.098225E-04	3.541610E-06
3.644489E+03	1.128530E-04	3.634676E-06
3.654419E+03	1.159624E-04	3.730020E-06
3.664350E+03	1.191304E-04	3.826979E-06
3.674280E+03	1.223994E-04	3.926906E-06
3.684211E+03	1.257275E-04	4.028444E-06
3.694141E+03	1.291592E-04	4.133008E-06
3.704071E+03	1.326735E-04	4.239916E-06
3.714002E+03	1.362465E-04	4.348394E-06
3.723932E+03	1.399265E-04	4.459973E-06
3.733863E+03	1.436648E-04	4.573086E-06
3.743793E+03	1.475118E-04	4.689332E-06
3.753724E+03	1.514428E-04	4.807907E-06
3.763654E+03	1.554302E-04	4.927932E-06
3.773585E+03	1.595284E-04	5.051113E-06
3.783515E+03	1.636812E-04	5.175668E-06
3.793446E+03	1.679455E-04	5.303380E-06
3.803376E+03	1.722926E-04	5.433328E-06
3.813307E+03	1.766906E-04	5.564501E-06
3.823237E+03	1.812004E-04	5.698807E-06
3.833168E+03	1.857580E-04	5.834219E-06
3.843098E+03	1.904270E-04	5.972726E-06
3.853029E+03	1.951744E-04	6.113278E-06
3.862959E+03	1.999635E-04	6.254721E-06
3.872890E+03	2.048628E-04	6.399186E-06
3.882820E+03	2.097989E-04	6.544369E-06
3.892751E+03	2.148436E-04	6.692504E-06
3.902681E+03	2.199198E-04	6.841178E-06
3.912612E+03	2.251024E-04	6.992710E-06
3.922542E+03	2.303513E-04	7.145846E-06
3.932473E+03	2.356224E-04	7.299212E-06
3.942403E+03	2.409959E-04	7.455282E-06
3.952334E+03	2.463848E-04	7.611357E-06
3.962264E+03	2.518724E-04	7.770009E-06
3.972195E+03	2.574133E-04	7.929822E-06
3.982125E+03	2.629582E-04	8.089275E-06
3.992056E+03	2.685957E-04	8.251088E-06
4.001986E+03	2.742287E-04	8.412273E-06
4.011917E+03	2.799495E-04	8.575657E-06
4.021847E+03	2.856569E-04	8.738134E-06
4.031778E+03	2.914470E-04	8.902641E-06
4.041708E+03	2.972663E-04	9.067540E-06
4.051639E+03	3.030578E-04	9.231086E-06
4.061569E+03	3.089231E-04	9.396376E-06
4.071500E+03	3.147500E-04	9.559996E-06
4.081430E+03	3.206442E-04	9.725156E-06
4.091360E+03	3.264892E-04	9.888320E-06
4.101291E+03	3.323946E-04	1.005281E-05
4.111221E+03	3.382990E-04	1.021677E-05
4.121152E+03	3.441369E-04	1.037821E-05
4.131082E+03	3.500237E-04	1.054064E-05
4.141013E+03	3.558319E-04	1.070020E-05
4.150943E+03	3.616805E-04	1.086049E-05
4.160874E+03	3.674379E-04	1.101755E-05
4.170804E+03	3.732270E-04	1.117508E-05
4.180735E+03	3.789782E-04	1.133099E-05
4.190665E+03	3.846182E-04	1.148311E-05
4.200596E+03	3.902753E-04	1.163527E-05
4.210526E+03	3.958069E-04	1.178323E-05
4.220457E+03	4.013452E-04	1.193094E-05
4.230387E+03	4.067433E-04	1.207404E-05
4.240318E+03	4.121369E-04	1.221656E-05
4.250248E+03	4.173750E-04	1.235406E-05
4.260179E+03	4.225963E-04	1.249064E-05
4.270109E+03	4.276461E-04	1.262174E-05
4.280040E+03	4.326664E-04	1.275159E-05
4.289970E+03	4.375754E-04	1.287776E-05
4.299901E+03	4.422872E-04	1.299776E-05
4.309831E+03	4.469491E-04	1.311594E-05
4.319762E+03	4.513967E-04	1.322750E-05
4.329692E+03	4.557802E-04	1.333684E-05
4.339623E+03	4.599326E-04	1.343911E-05
4.349553E+03	4.640079E-04	1.353884E-05
4.359484E+03	4.678379E-04	1.363113E-05
4.369414E+03	4.715835E-04	1.372069E-05
4.379345E+03	4.750790E-04	1.380274E-05
4.389275E+03	4.784919E-04	1.388215E-05
4.399206E+03	4.816566E-04	1.395416E-05
4.409136E+03	4.847441E-04	1.402373E-05
4.419067E+03	4.875873E-04	1.408607E-05
4.428997E+03	4.903604E-04	1.414621E-05
4.438928E+03	4.928947E-04	1.419932E-05
4.448858E+03	4.953665E-04	1.425049E-05
4.458788E+03	4.976054E-04	1.429485E-05
4.468719E+03	4.997897E-04	1.433753E-05
4.478649E+03	5.017478E-04	1.437363E-05
4.488580E+03	5.036594E-04	1.440830E-05
4.498510E+03	5.053515E-04	1.443663E-05
4.508441E+03	5.070052E-04	1.446379E-05
4.518371E+03	5.084464E-04	1.448483E-05
4.528302E+03	5.098573E-04	1.450497E-05
4.538232E+03	5.110626E-04	1.451921E-05
4.548163E+03	5.122455E-04	1.453280E-05
4.558093E+03	5.132303E-04	1.454074E-05
4.568024E+03	5.142005E-04	1.454825E-05
4.577954E+03	5.149797E-04	1.455035E-05
4.587885E+03	5.157521E-04	1.455226E-05
4.597815E+03	5.163407E-04	1.454900E-05
4.607746E+03	5.169303E-04	1.454578E-05
4.617676E+03	5.173433E-04	1.453761E-05
4.627607E+03	5.177647E-04	1.452970E-05
4.637537E+03	5.180169E-04	1.451708E-05
4.647468E+03	5.182849E-04	1.450494E-05
4.657398E+03	5.183904E-04	1.448829E-05
4.667329E+03	5.184282E-04	1.446980E-05
4.677259E+03	5.184923E-04	1.445210E-05
4.687190E+03	5.184047E-04	1.443022E-05
4.697120E+03	5.183503E-04	1.440933E-05
4.707051E+03	5.181508E-04	1.438447E-05
4.716981E+03	5.179911E-04	1.436078E-05
4.726912E+03	5.176929E-04	1.433332E-05
4.736842E+03	5.174407E-04	1.430721E-05
4.746773E+03	5.170563E-04	1.427752E-05
4.756703E+03	5.166333E-04	1.424684E-05
4.766634E+03	5.162652E-04	1.421776E-05
4.776564E+03	5.157737E-04	1.418536E-05
4.786495E+03	5.153425E-04	1.415471E-05
4.796425E+03	5.147935E-04	1.412091E-05
4.806356E+03	5.143099E-04	1.408899E-05
4.816286E+03	5.137137E-04	1.405408E-05
4.826216E+03	5.130977E-04	1.401871E-05
4.836147E+03	5.125538E-04	1.398542E-05
4.846077E+03	5.119048E-04	1.394934E-05
4.856008E+03	5.113319E-04	1.391544E-05
4.865938E+03	5.106583E-04	1.387889E-05
4.875869E+03	5.099754E-04	1.384218E-05
4.885799E+03	5.093741E-04	1.380779E-05
4.895730E+03	5.086777E-04	1.377091E-05
4.905660E+03	5.080663E-04	1.373644E-05
4.915591E+03	5.073633E-04	1.369958E-05
4.925521E+03	5.066592E-04	1.366280E-05
4.935452E+03	5.060440E-04	1.362851E-05
4.945382E+03	5.053416E-04	1.359198E-05
4.955313E+03	5.046420E-04	1.355562E-05
4.965243E+03	5.040344E-04	1.352183E-05
4.975174E+03	5.033435E-04	1.348591E-05
4.985104E+03	5.027462E-04	1.345259E-05
4.995035E+03	5.020678E-04	1.341720E-05
5.004965E+03	5.013966E-04	1.338211E-05
5.014896E+03	5.008214E-04	1.334968E-05
5.024826E+03	5.001673E-04	1.331524E-05
5.034757E+03	4.995228E-04	1.328116E-05
5.044687E+03	4.989754E-04	1.324976E-05
5.054618E+03	4.983511E-04	1.321642E-05
5.064548E+03	4.977377E-04	1.318348E-05
5.074479E+03	4.972224E-04	1.315323E-05
5.084409E+03	4.966317E-04	1.312109E-05
5.094340E+03	4.960528E-04	1.308936E-05
5.104270E+03	4.955727E-04	1.306034E-05
5.114201E+03	4.950180E-04	1.302945E-05
5.124131E+03	4.944757E-04	1.299899E-05
5.134062E+03	4.940324E-04	1.297124E-05
5.143992E+03	4.935154E-04	1.294165E-05
5.153923E+03	4.930110E-04	1.291250E-05
5.163853E+03	4.926056E-04	1.288605E-05
5.173784E+03	4.921269E-04	1.285778E-05
5.183714E+03	4.916611E-04	1.282996E-05
5.193644E+03	4.912942E-04	1.280482E-05
5.203575E+03	4.908543E-04	1.277788E-05
5.213505E+03	4.904274E-04	1.275139E-05
5.223436E+03	4.900135E-04	1.272535E-05
5.233366E+03	4.896981E-04	1.270198E-05
5.243297E+03	4.893101E-04	1.267683E-05
5.253227E+03	4.889351E-04	1.265212E-05
5.263158E+03	4.886585E-04	1.263008E-05
5.273088E+03	4.883093E-04	1.260627E-05
5.283019E+03	4.879731E-04	1.258291E-05
5.292949E+03	4.876498E-04	1.256001E-05
5.302880E+03	4.874245E-04	1.253974E-05
5.312810E+03	4.871266E-04	1.251772E-05
5.322741E+03	4.868415E-04	1.249615E-05
5.332671E+03	4.866537E-04	1.247720E-05
5.342602E+03	4.863933E-04	1.245651E-05
5.352532E+03	4.861447E-04	1.243624E-05
5.362463E+03	4.859080E-04	1.241641E-05
5.372393E+03	4.857672E-04	1.239916E-05
5.382324E+03	4.855524E-04	1.238014E-05
5.392254E+03	4.853478E-04	1.236152E-05
5.402185E+03	4.851525E-04	1.234327E-05
5.412115E+03	4.850503E-04	1.232753E-05
5.422046E+03	4.848710E-04	1.230996E-05
5.431976E+03	4.846981E-04	1.229270E-05
5.441907E+03	4.845304E-04	1.227571E-05
5.451837E+03	4.843671E-04	1.225898E-05
5.461768E+03	4.842925E-04	1.224464E-05
5.471698E+03	4.841386E-04	1.222845E-05
5.481629E+03	4.839917E-04	1.221259E-05
5.491559E+03	4.838537E-04	1.219710E-05
5.501490E+03	4.837263E-04	1.218204E-05
5.511420E+03	4.836955E-04	1.216956E-05
5.521351E+03	4.835941E-04	1.215546E-05
5.531281E+03	4.835078E-04	1.214190E-05
5.541212E+03	4.834380E-04	1.212891E-05
5.551142E+03	4.833856E-04	1.211652E-05
5.561072E+03	4.834360E-04	1.210687E-05
5.571003E+03	4.834213E-04	1.209575E-05
5.580933E+03	4.834269E-04	1.208530E-05
5.590864E+03	4.834534E-04	1.207553E-05
5.600794E+03	4.835013E-04	1.206647E-05
5.610725E+03	4.836558E-04	1.206024E-05
5.620655E+03	4.837487E-04	1.205264E-05
5.630586E+03	4.838647E-04	1.204578E-05
5.640516E+03	4.840042E-04	1.203968E-05
5.650447E+03	4.841677E-04	1.203436E-05
5.660377E+03	4.843557E-04	1.202982E-05
5.670308E+03	4.846527E-04	1.202817E-05
5.680238E+03	4.848903E-04	1.202522E-05
5.690169E+03	4.851531E-04	1.202308E-05
5.700099E+03	4.854413E-04	1.202175E-05
5.710030E+03	4.857551E-04	1.202125E-05
5.719960E+03	4.860945E-04	1.202157E-05
5.729891E+03	4.864598E-04	1.202272E-05
5.739821E+03	4.869358E-04	1.202680E-05
5.749752E+03	4.873527E-04	1.202962E-05
5.759682E+03	4.877956E-04	1.203328E-05
5.769613E+03	4.882640E-04	1.203777E-05
5.779543E+03	4.887579E-04	1.204310E-05
5.789474E+03	4.892772E-04	1.204927E-05
5.799404E+03	4.898214E-04	1.205626E-05
5.809335E+03	4.903903E-04	1.206407E-05
5.819265E+03	4.910691E-04	1.207481E-05
5.829196E+03	4.916862E-04	1.208426E-05
5.839126E+03	4.923266E-04	1.209450E-05
5.849057E+03	4.929895E-04	1.210553E-05
5.858987E+03	4.936745E-04	1.211734E-05
5.868918E+03	4.943806E-04	1.212991E-05
5.878848E+03	4.951069E-04	1.214322E-05
5.888779E+03	4.958526E-04	1.215725E-05
5.898709E+03	4.966164E-04	1.217198E-05
5.908640E+03	4.973975E-04	1.218739E-05
5.918570E+03	4.981945E-04	1.220345E-05
5.928500E+03	4.990929E-04	1.222227E-05
5.938431E+03	4.999177E-04	1.223955E-05
5.948361E+03	5.007539E-04	1.225740E-05
5.958292E+03	5.016000E-04	1.227577E-05
5.968222E+03	5.024542E-04	1.229462E-05
5.978153E+03	5.033145E-04	1.231392E-05
5.988083E+03	5.041790E-04	1.233363E-05
5.998014E+03	5.050455E-04	1.235368E-05
6.007944E+03	5.059116E-04	1.237404E-05
6.017875E+03	5.067751E-04	1.239466E-05
6.027805E+03	5.076332E-04	1.241546E-05
6.037736E+03	5.084834E-04	1.243640E-05
6.047666E+03	5.093227E-04	1.245741E-05
6.057597E+03	5.101482E-04	1.247841E-05
6.067527E+03	5.109567E-04	1.249936E-05
6.077458E+03	5.117450E-04	1.252015E-05
6.087388E+03	5.125093E-04	1.254072E-05
6.097319E+03	5.132461E-04	1.256098E-05
6.107249E+03	5.139515E-04	1.258083E-05
6.117180E+03	5.146212E-04	1.260019E-05
6.127110E+03	5.152511E-04	1.261896E-05
6.137041E+03	5.159263E-04	1.263922E-05
6.146971E+03	5.164623E-04	1.265645E-05
6.156902E+03	5.169438E-04	1.267275E-05
6.166832E+03	5.173652E-04	1.268797E-05
6.176763E+03	5.177206E-04	1.270197E-05
6.186693E+03	5.180042E-04	1.271462E-05
6.196624E+03	5.182107E-04	1.272578E-05
6.206554E+03	5.183379E-04	1.273540E-05
6.216485E+03	5.183863E-04	1.274348E-05
6.226415E+03	5.183585E-04	1.275007E-05
6.236346E+03	5.182567E-04	1.275523E-05
6.246276E+03	5.180831E-04	1.275899E-05
6.256207E+03	5.178399E-04	1.276140E-05
6.266137E+03	5.175289E-04	1.276250E-05
6.276068E+03	5.170614E-04	1.276010E-05
6.285998E+03	5.166193E-04	1.275865E-05
6.295929E+03	5.161141E-04	1.275599E-05
6.305859E+03	5.155470E-04	1.275211E-05
6.315789E+03	5.149193E-04	1.274706E-05
6.325720E+03	5.142326E-04	1.274085E-05
6.335650E+03	5.134882E-04	1.273351E-05
6.345581E+03	5.126874E-04	1.272506E-05
6.355511E+03	5.118319E-04	1.271553E-05
6.365442E+03	5.109230E-04	1.270494E-05
6.375372E+03	5.099624E-04	1.269333E-05
6.385303E+03	5.089519E-04	1.268073E-05
6.395233E+03	5.078931E-04	1.266717E-05
6.405164E+03	5.067879E-04	1.265268E-05
6.415094E+03	5.056383E-04	1.263732E-05
6.425025E+03	5.044463E-04	1.262110E-05
6.434955E+03	5.032140E-04	1.260408E-05
6.444886E+03	5.019436E-04	1.258631E-05
6.454816E+03	5.006375E-04	1.256783E-05
6.464747E+03	4.992979E-04	1.254868E-05
6.474677E+03	4.979272E-04	1.252893E-05
6.484608E+03	4.964415E-04	1.250644E-05
6.494538E+03	4.950165E-04	1.248563E-05
6.504469E+03	4.935682E-04	1.246438E-05
6.514399E+03	4.920992E-04	1.244274E-05
6.524330E+03	4.906121E-04	1.242077E-05
6.534260E+03	4.891094E-04	1.239853E-05
6.544191E+03	4.875942E-04	1.237609E-05
6.554121E+03	4.860690E-04	1.235350E-05
6.564052E+03	4.845365E-04	1.233083E-05
6.573982E+03	4.829994E-04	1.230813E-05
6.583913E+03	4.814603E-04	1.228548E-05
6.593843E+03	4.799220E-04	1.226292E-05
6.603774E+03	4.783036E-04	1.223839E-05
6.613704E+03	4.767746E-04	1.221621E-05
6.623635E+03	4.752540E-04	1.219432E-05
6.633565E+03	4.737441E-04	1.217276E-05
6.643496E+03	4.722472E-04	1.215159E-05
6.653426E+03	4.707656E-04	1.213087E-05
6.663357E+03	4.693015E-04	1.211064E-05
6.673287E+03	4.678569E-04	1.209097E-05
6.683217E+03	4.663525E-04	1.206978E-05
6.693148E+03	4.649530E-04	1.205134E-05
6.703078E+03	4.635785E-04	1.203359E-05
6.713009E+03	4.622307E-04	1.201656E-05
6.722939E+03	4.609110E-04	1.200029E-05
6.732870E+03	4.596209E-04	1.198482E-05
6.742800E+03	4.583615E-04	1.197017E-05
6.752731E+03	4.571339E-04	1.195638E-05
6.762661E+03	4.558598E-04	1.194139E-05
6.772592E+03	4.546988E-04	1.192938E-05
6.782522E+03	4.535722E-04	1.191829E-05
6.792453E+03	4.524806E-04	1.190814E-05
6.802383E+03	4.514240E-04	1.189893E-05
6.812314E+03	4.504031E-04	1.189067E-05
6.822244E+03	4.494178E-04	1.188338E-05
6.832175E+03	4.483900E-04	1.187497E-05
6.842105E+03	4.474760E-04	1.186958E-05
6.852036E+03	4.465972E-04	1.186515E-05
6.861966E+03	4.457533E-04	1.186166E-05
6.871897E+03	4.449436E-04	1.185909E-05
6.881827E+03	4.441675E-04	1.185743E-05
6.891758E+03	4.433469E-04	1.185460E-05
6.901688E+03	4.426357E-04	1.185471E-05
6.911619E+03	4.419555E-04	1.185566E-05
6.921549E+03	4.413050E-04	1.185742E-05
6.931480E+03	4.406831E-04	1.185996E-05
6.941410E+03	4.400885E-04	1.186325E-05
6.951341E+03	4.394430E-04	1.186519E-05
6.961271E+03	4.388987E-04	1.186986E-05
6.971202E+03	4.383772E-04	1.187517E-05
6.981132E+03	4.378768E-04	1.188107E-05
6.991063E+03	4.373959E-04	1.188750E-05
7.000993E+03	4.368563E-04	1.189236E-05
7.010924E+03	4.364091E-04	1.189973E-05
7.020854E+03	4.359759E-04	1.190750E-05
7.030785E+03	4.355548E-04	1.191561E-05
7.040715E+03	4.351439E-04	1.192402E-05
7.050645E+03	4.346656E-04	1.193058E-05
7.060576E+03	4.342695E-04	1.193940E-05
7.070506E+03	4.338779E-04	1.194835E-05
7.080437E+03	4.334888E-04	1.195738E-05
7.090367E+03	4.331002E-04	1.196643E-05
7.100298E+03	4.326348E-04	1.197335E-05
7.110228E+03	4.322419E-04	1.198228E-05
7.120159E+03	4.318439E-04	1.199106E-05
7.130089E+03	4.314391E-04	1.199965E-05
7.140020E+03	4.309505E-04	1.200591E-05
7.149950E+03	4.305269E-04	1.201396E-05
7.159881E+03	4.300916E-04	1.202168E-05
7.169811E+03	4.296427E-04	1.202901E-05
7.179742E+03	4.291041E-04	1.203380E-05
7.189672E+03	4.286240E-04	1.204022E-05
7.199603E+03	4.281263E-04	1.204612E-05
7.209533E+03	4.276096E-04	1.205147E-05
7.219464E+03	4.270727E-04	1.205622E-05
7.229394E+03	4.264402E-04	1.205824E-05
7.239325E+03	4.258600E-04	1.206170E-05
7.249255E+03	4.252566E-04	1.206447E-05
7.259186E+03	4.246293E-04	1.206652E-05
7.269116E+03	4.239032E-04	1.206572E-05
7.279047E+03	4.232256E-04	1.206626E-05
7.288977E+03	4.225221E-04	1.206601E-05
7.298908E+03	4.217920E-04	1.206494E-05
7.308838E+03	4.209613E-04	1.206094E-05
7.318769E+03	4.201769E-04	1.205821E-05
7.328699E+03	4.193646E-04	1.205461E-05
7.338630E+03	4.184510E-04	1.204804E-05
7.348560E+03	4.175824E-04	1.204269E-05
7.358491E+03	4.166851E-04	1.203644E-05
7.368421E+03	4.157591E-04	1.202928E-05
7.378352E+03	4.147315E-04	1.201911E-05
7.388282E+03	4.137473E-04	1.201011E-05
7.398213E+03	4.127337E-04	1.200017E-05
7.408143E+03	4.116904E-04	1.198928E-05
7.418073E+03	4.105455E-04	1.197533E-05
7.428004E+03	4.094422E-04	1.196250E-05
7.437934E+03	4.083083E-04	1.194868E-05
7.447865E+03	4.070722E-04	1.193177E-05
7.457795E+03	4.058759E-04	1.191591E-05
7.467726E+03	4.046475E-04	1.189900E-05
7.477656E+03	4.033862E-04	1.188102E-05
7.487587E+03	4.020209E-04	1.185985E-05
7.497517E+03	4.006915E-04	1.183962E-05
7.507448E+03	3.993266E-04	1.181822E-05
7.517378E+03	3.978555E-04	1.179355E-05
7.527309E+03	3.964166E-04	1.176970E-05
7.537239E+03	3.949388E-04	1.174455E-05
7.547170E+03	3.933526E-04	1.171604E-05
7.557100E+03	3.917956E-04	1.168825E-05
7.567031E+03	3.901992E-04	1.165913E-05
7.576961E+03	3.884981E-04	1.162673E-05
7.586892E+03	3.868322E-04	1.159521E-05
7.596822E+03	3.851371E-04	1.156266E-05
7.606753E+03	3.833501E-04	1.152717E-05
7.616683E+03	3.816096E-04	1.149291E-05
7.626614E+03	3.798522E-04	1.145796E-05
7.636544E+03	3.780818E-04	1.142245E-05
7.646475E+03	3.762360E-04	1.138447E-05
7.656405E+03	3.744503E-04	1.134814E-05
7.666336E+03	3.726618E-04	1.131153E-05
7.676266E+03	3.708083E-04	1.127276E-05
7.686197E+03	3.690230E-04	1.123589E-05
7.696127E+03	3.672432E-04	1.119899E-05
7.706058E+03	3.654072E-04	1.116020E-05
