#wls	flux	fluxerr
1.600000E+03	7.760969E-17	5.523865E-17
1.640000E+03	7.835271E-17	5.552998E-17
1.680000E+03	7.914238E-17	5.582879E-17
1.720000E+03	7.997822E-17	5.613198E-17
1.760000E+03	8.088177E-17	5.645162E-17
1.800000E+03	8.185240E-17	5.678375E-17
1.840000E+03	8.290049E-17	5.713165E-17
1.880000E+03	8.402537E-17	5.749053E-17
1.920000E+03	8.525912E-17	5.787738E-17
1.960000E+03	8.659004E-17	5.827856E-17
2.000000E+03	8.806080E-17	5.871642E-17
2.040000E+03	8.968123E-17	5.918991E-17
2.080000E+03	9.147190E-17	5.970395E-17
2.120000E+03	9.345325E-17	6.026191E-17
2.160000E+03	9.564558E-17	6.086541E-17
2.200000E+03	9.810121E-17	6.153432E-17
2.240000E+03	1.008401E-16	6.226519E-17
2.280000E+03	1.038714E-16	6.304573E-17
2.320000E+03	1.072577E-16	6.389320E-17
2.360000E+03	1.109872E-16	6.477658E-17
2.400000E+03	1.151012E-16	6.569365E-17
2.440000E+03	1.195993E-16	6.661427E-17
2.480000E+03	1.244924E-16	6.751182E-17
2.520000E+03	1.298023E-16	6.836239E-17
2.560000E+03	1.355310E-16	6.912769E-17
2.600000E+03	1.417130E-16	6.978265E-17
2.640000E+03	1.483632E-16	7.028782E-17
2.680000E+03	1.554878E-16	7.059614E-17
2.720000E+03	1.631363E-16	7.067679E-17
2.760000E+03	1.713088E-16	7.047272E-17
2.800000E+03	1.800596E-16	6.994731E-17
2.840000E+03	1.894150E-16	6.904914E-17
2.880000E+03	1.994046E-16	6.772775E-17
2.920000E+03	2.100824E-16	6.594256E-17
2.960000E+03	2.215379E-16	6.366669E-17
3.000000E+03	2.339168E-16	6.089363E-17
3.010000E+03	2.371827E-16	6.012501E-17
3.020000E+03	2.405132E-16	5.932424E-17
3.030000E+03	2.439193E-16	5.849378E-17
3.040000E+03	2.474016E-16	5.763355E-17
3.050000E+03	2.509714E-16	5.674603E-17
3.060000E+03	2.546293E-16	5.583133E-17
3.070000E+03	2.583657E-16	5.488759E-17
3.080000E+03	2.622021E-16	5.391992E-17
3.090000E+03	2.661291E-16	5.292694E-17
3.100000E+03	2.701578E-16	5.191189E-17
3.110000E+03	2.742891E-16	5.087615E-17
3.120000E+03	2.785342E-16	4.982338E-17
3.130000E+03	2.828837E-16	4.875380E-17
3.140000E+03	2.873591E-16	4.767361E-17
3.150000E+03	2.919405E-16	4.658228E-17
3.160000E+03	2.966601E-16	4.548842E-17
3.170000E+03	3.015080E-16	4.439426E-17
3.180000E+03	3.064850E-16	4.330435E-17
3.190000E+03	3.116018E-16	4.222526E-17
3.200000E+03	3.168694E-16	4.116384E-17
3.210000E+03	3.222771E-16	4.012452E-17
3.220000E+03	3.278349E-16	3.911481E-17
3.230000E+03	3.335417E-16	3.814085E-17
3.240000E+03	3.394168E-16	3.721097E-17
3.250000E+03	3.454468E-16	3.632923E-17
3.260000E+03	3.516277E-16	3.550007E-17
3.270000E+03	3.579755E-16	3.472877E-17
3.280000E+03	3.644727E-16	3.401569E-17
3.290000E+03	3.711219E-16	3.336155E-17
3.300000E+03	3.779134E-16	3.276411E-17
3.310000E+03	3.848474E-16	3.222030E-17
3.320000E+03	3.919124E-16	3.172452E-17
3.330000E+03	3.991073E-16	3.127079E-17
3.340000E+03	4.064092E-16	3.085053E-17
3.350000E+03	4.138275E-16	3.045716E-17
3.360000E+03	4.213396E-16	3.008142E-17
3.370000E+03	4.289445E-16	2.971577E-17
3.380000E+03	4.366307E-16	2.935213E-17
3.390000E+03	4.443762E-16	2.898216E-17
3.400000E+03	4.521914E-16	2.860008E-17
3.410000E+03	4.600439E-16	2.819773E-17
3.420000E+03	4.679447E-16	2.777003E-17
3.430000E+03	4.758627E-16	2.730953E-17
3.440000E+03	4.838001E-16	2.681097E-17
3.450000E+03	4.917291E-16	2.626752E-17
3.460000E+03	4.996564E-16	2.567451E-17
3.470000E+03	5.075713E-16	2.502667E-17
3.480000E+03	5.154568E-16	2.431923E-17
3.490000E+03	5.233234E-16	2.354998E-17
3.500000E+03	5.311679E-16	2.271796E-17
3.510000E+03	5.389960E-16	2.182560E-17
3.520000E+03	5.468453E-16	2.088095E-17
3.530000E+03	5.547339E-16	1.989744E-17
3.540000E+03	5.627240E-16	1.889877E-17
3.550000E+03	5.708496E-16	1.791896E-17
3.560000E+03	5.792062E-16	1.700773E-17
3.570000E+03	5.878424E-16	1.622690E-17
3.580000E+03	5.968288E-16	1.564674E-17
3.590000E+03	6.061959E-16	1.532899E-17
3.600000E+03	6.159073E-16	1.530417E-17
3.610000E+03	6.258500E-16	1.555565E-17
3.620000E+03	6.358681E-16	1.602471E-17
3.630000E+03	6.457413E-16	1.663019E-17
3.640000E+03	6.552283E-16	1.729001E-17
3.650000E+03	6.640759E-16	1.793345E-17
3.660000E+03	6.720364E-16	1.850619E-17
3.670000E+03	6.788834E-16	1.897080E-17
3.680000E+03	6.844256E-16	1.930524E-17
3.690000E+03	6.885296E-16	1.950133E-17
3.700000E+03	6.911126E-16	1.956219E-17
3.710000E+03	6.921511E-16	1.950024E-17
3.720000E+03	6.917175E-16	1.933570E-17
3.730000E+03	6.899505E-16	1.909270E-17
3.740000E+03	6.870525E-16	1.879648E-17
3.750000E+03	6.833261E-16	1.847348E-17
3.760000E+03	6.791021E-16	1.814849E-17
3.770000E+03	6.747944E-16	1.784457E-17
3.780000E+03	6.708504E-16	1.758056E-17
3.790000E+03	6.677333E-16	1.736978E-17
3.800000E+03	6.659344E-16	1.722009E-17
3.810000E+03	6.658898E-16	1.713328E-17
3.820000E+03	6.680212E-16	1.710818E-17
3.830000E+03	6.726443E-16	1.714020E-17
3.840000E+03	6.800226E-16	1.722478E-17
3.850000E+03	6.903283E-16	1.735783E-17
3.860000E+03	7.036489E-16	1.753637E-17
3.870000E+03	7.199458E-16	1.775733E-17
3.880000E+03	7.390929E-16	1.801703E-17
3.890000E+03	7.607836E-16	1.830740E-17
3.900000E+03	7.846156E-16	1.861883E-17
3.910000E+03	8.100638E-16	1.894050E-17
3.920000E+03	8.364974E-16	1.926107E-17
3.930000E+03	8.632755E-16	1.957138E-17
3.940000E+03	8.896839E-16	1.986267E-17
3.950000E+03	9.150343E-16	2.012778E-17
3.960000E+03	9.387002E-16	2.036189E-17
3.970000E+03	9.600843E-16	2.056056E-17
3.980000E+03	9.787150E-16	2.071996E-17
3.990000E+03	9.942344E-16	2.083773E-17
4.000000E+03	1.006373E-15	2.091291E-17
4.010000E+03	1.015025E-15	2.094628E-17
4.020000E+03	1.020174E-15	2.093887E-17
4.030000E+03	1.021880E-15	2.088916E-17
4.040000E+03	1.020338E-15	2.079191E-17
4.050000E+03	1.015753E-15	2.063981E-17
4.060000E+03	1.008405E-15	2.042924E-17
4.070000E+03	9.986412E-16	2.016109E-17
4.080000E+03	9.868075E-16	1.984024E-17
4.090000E+03	9.733171E-16	1.947580E-17
4.100000E+03	9.586045E-16	1.907797E-17
4.110000E+03	9.431292E-16	1.865795E-17
4.120000E+03	9.273595E-16	1.822701E-17
4.130000E+03	9.117518E-16	1.779500E-17
4.140000E+03	8.967241E-16	1.737081E-17
4.150000E+03	8.826587E-16	1.696317E-17
4.160000E+03	8.698428E-16	1.657947E-17
4.170000E+03	8.584936E-16	1.622746E-17
4.180000E+03	8.486995E-16	1.591369E-17
4.190000E+03	8.404599E-16	1.564304E-17
4.200000E+03	8.336611E-16	1.541841E-17
4.210000E+03	8.280710E-16	1.523816E-17
4.220000E+03	8.233742E-16	1.509432E-17
4.230000E+03	8.191928E-16	1.497598E-17
4.240000E+03	8.151091E-16	1.487112E-17
4.250000E+03	8.107228E-16	1.476688E-17
4.260000E+03	8.056670E-16	1.465247E-17
4.270000E+03	7.996521E-16	1.452069E-17
4.280000E+03	7.924784E-16	1.436680E-17
4.290000E+03	7.840643E-16	1.419087E-17
4.300000E+03	7.744334E-16	1.399774E-17
4.310000E+03	7.637293E-16	1.379477E-17
4.320000E+03	7.521660E-16	1.358923E-17
4.330000E+03	7.400747E-16	1.338462E-17
4.340000E+03	7.278339E-16	1.317599E-17
4.350000E+03	7.158817E-16	1.295513E-17
4.360000E+03	7.046872E-16	1.271582E-17
4.370000E+03	6.947134E-16	1.245570E-17
4.380000E+03	6.864380E-16	1.217969E-17
4.390000E+03	6.803321E-16	1.190117E-17
4.400000E+03	6.768601E-16	1.164172E-17
4.410000E+03	6.764743E-16	1.143019E-17
4.420000E+03	6.795914E-16	1.129785E-17
4.430000E+03	6.866053E-16	1.127332E-17
4.440000E+03	6.978809E-16	1.137971E-17
4.450000E+03	7.136914E-16	1.162575E-17
4.460000E+03	7.341994E-16	1.199838E-17
4.470000E+03	7.594712E-16	1.247086E-17
4.480000E+03	7.895128E-16	1.301504E-17
4.490000E+03	8.242296E-16	1.360647E-17
4.500000E+03	8.634264E-16	1.422780E-17
4.510000E+03	9.067730E-16	1.486810E-17
4.520000E+03	9.537072E-16	1.551885E-17
4.530000E+03	1.003418E-15	1.617351E-17
4.540000E+03	1.054837E-15	1.682553E-17
4.550000E+03	1.106577E-15	1.746418E-17
4.560000E+03	1.157039E-15	1.807709E-17
4.570000E+03	1.204461E-15	1.864896E-17
4.580000E+03	1.247052E-15	1.915972E-17
4.590000E+03	1.283160E-15	1.959033E-17
4.600000E+03	1.311448E-15	1.992519E-17
4.610000E+03	1.330970E-15	2.014888E-17
4.620000E+03	1.341297E-15	2.025299E-17
4.630000E+03	1.342505E-15	2.023916E-17
4.640000E+03	1.335157E-15	2.011681E-17
4.650000E+03	1.320196E-15	1.990374E-17
4.660000E+03	1.298856E-15	1.962297E-17
4.670000E+03	1.272563E-15	1.929656E-17
4.680000E+03	1.242779E-15	1.894490E-17
4.690000E+03	1.210877E-15	1.858399E-17
4.700000E+03	1.178141E-15	1.822314E-17
4.710000E+03	1.145626E-15	1.786773E-17
4.720000E+03	1.114201E-15	1.752267E-17
4.730000E+03	1.084550E-15	1.719160E-17
4.740000E+03	1.057181E-15	1.687987E-17
4.750000E+03	1.032454E-15	1.659429E-17
4.760000E+03	1.010608E-15	1.634026E-17
4.770000E+03	9.918139E-16	1.612379E-17
4.780000E+03	9.761403E-16	1.594985E-17
4.790000E+03	9.635828E-16	1.581981E-17
4.800000E+03	9.540889E-16	1.573280E-17
4.810000E+03	9.475132E-16	1.568506E-17
4.820000E+03	9.436639E-16	1.566884E-17
4.830000E+03	9.422964E-16	1.567363E-17
4.840000E+03	9.430792E-16	1.568654E-17
4.850000E+03	9.456416E-16	1.569317E-17
4.860000E+03	9.495574E-16	1.568037E-17
4.870000E+03	9.543759E-16	1.563879E-17
4.880000E+03	9.596230E-16	1.556337E-17
4.890000E+03	9.648024E-16	1.545481E-17
4.900000E+03	9.694109E-16	1.531828E-17
4.910000E+03	9.729909E-16	1.516113E-17
4.920000E+03	9.750920E-16	1.499262E-17
4.930000E+03	9.752980E-16	1.482208E-17
4.940000E+03	9.732932E-16	1.465533E-17
4.950000E+03	9.688261E-16	1.449312E-17
4.960000E+03	9.618229E-16	1.433030E-17
4.970000E+03	9.523660E-16	1.415343E-17
4.980000E+03	9.406940E-16	1.394710E-17
4.990000E+03	9.272534E-16	1.370141E-17
5.000000E+03	9.125906E-16	1.341363E-17
5.010000E+03	8.973866E-16	1.309194E-17
5.020000E+03	8.823756E-16	1.275417E-17
5.030000E+03	8.682981E-16	1.242396E-17
5.040000E+03	8.558660E-16	1.212783E-17
5.050000E+03	8.456767E-16	1.188909E-17
5.060000E+03	8.381772E-16	1.172299E-17
5.070000E+03	8.336821E-16	1.163872E-17
5.080000E+03	8.323424E-16	1.163903E-17
5.090000E+03	8.341892E-16	1.171917E-17
5.100000E+03	8.391447E-16	1.186965E-17
5.110000E+03	8.470529E-16	1.207746E-17
5.120000E+03	8.577639E-16	1.232629E-17
5.130000E+03	8.710693E-16	1.259968E-17
5.140000E+03	8.868016E-16	1.288592E-17
5.150000E+03	9.047995E-16	1.317795E-17
5.160000E+03	9.249228E-16	1.347475E-17
5.170000E+03	9.470006E-16	1.377799E-17
5.180000E+03	9.708537E-16	1.408793E-17
5.190000E+03	9.962903E-16	1.440426E-17
5.200000E+03	1.023027E-15	1.472476E-17
5.210000E+03	1.050772E-15	1.504489E-17
5.220000E+03	1.079158E-15	1.536001E-17
5.230000E+03	1.107798E-15	1.566782E-17
5.240000E+03	1.136282E-15	1.596691E-17
5.250000E+03	1.164185E-15	1.625860E-17
5.260000E+03	1.191111E-15	1.654504E-17
5.270000E+03	1.216667E-15	1.682370E-17
5.280000E+03	1.240529E-15	1.709075E-17
5.290000E+03	1.262409E-15	1.734106E-17
5.300000E+03	1.282163E-15	1.756696E-17
5.310000E+03	1.299749E-15	1.776164E-17
5.320000E+03	1.315253E-15	1.791930E-17
5.330000E+03	1.328919E-15	1.803284E-17
5.340000E+03	1.341116E-15	1.810040E-17
5.350000E+03	1.352233E-15	1.812652E-17
5.360000E+03	1.362714E-15	1.811892E-17
5.370000E+03	1.372974E-15	1.809011E-17
5.380000E+03	1.383315E-15	1.805260E-17
5.390000E+03	1.393864E-15	1.801156E-17
5.400000E+03	1.404624E-15	1.797176E-17
5.410000E+03	1.415398E-15	1.793870E-17
5.420000E+03	1.425867E-15	1.791543E-17
5.430000E+03	1.435560E-15	1.790593E-17
5.440000E+03	1.444037E-15	1.791171E-17
5.450000E+03	1.450908E-15	1.792312E-17
5.460000E+03	1.455875E-15	1.793030E-17
5.470000E+03	1.458785E-15	1.792849E-17
5.480000E+03	1.459643E-15	1.791353E-17
5.490000E+03	1.458608E-15	1.788825E-17
5.500000E+03	1.455957E-15	1.785691E-17
5.510000E+03	1.452056E-15	1.781308E-17
5.520000E+03	1.447299E-15	1.774963E-17
5.530000E+03	1.442051E-15	1.766442E-17
5.540000E+03	1.436556E-15	1.755529E-17
5.550000E+03	1.430999E-15	1.742823E-17
5.560000E+03	1.425409E-15	1.729585E-17
5.570000E+03	1.419671E-15	1.717013E-17
5.580000E+03	1.413584E-15	1.706705E-17
5.590000E+03	1.406840E-15	1.699897E-17
5.600000E+03	1.399123E-15	1.696347E-17
5.610000E+03	1.390109E-15	1.695282E-17
5.620000E+03	1.379530E-15	1.695790E-17
5.630000E+03	1.367229E-15	1.696173E-17
5.640000E+03	1.353169E-15	1.694706E-17
5.650000E+03	1.337508E-15	1.690098E-17
5.660000E+03	1.320530E-15	1.681073E-17
5.670000E+03	1.302672E-15	1.667213E-17
5.680000E+03	1.284473E-15	1.649404E-17
5.690000E+03	1.266496E-15	1.629397E-17
5.700000E+03	1.249314E-15	1.609660E-17
5.710000E+03	1.233467E-15	1.592621E-17
5.720000E+03	1.219337E-15	1.579668E-17
5.730000E+03	1.207205E-15	1.571446E-17
5.740000E+03	1.197241E-15	1.567920E-17
5.750000E+03	1.189426E-15	1.568162E-17
5.760000E+03	1.183632E-15	1.571114E-17
5.770000E+03	1.179640E-15	1.575992E-17
5.780000E+03	1.177119E-15	1.582089E-17
5.790000E+03	1.175754E-15	1.589137E-17
5.800000E+03	1.175155E-15	1.597026E-17
5.810000E+03	1.174970E-15	1.605471E-17
5.820000E+03	1.174895E-15	1.614122E-17
5.830000E+03	1.174627E-15	1.622465E-17
5.840000E+03	1.173908E-15	1.629741E-17
5.850000E+03	1.172510E-15	1.635253E-17
5.860000E+03	1.170244E-15	1.638508E-17
5.870000E+03	1.166922E-15	1.639098E-17
5.880000E+03	1.162369E-15	1.637105E-17
5.890000E+03	1.156477E-15	1.633266E-17
5.900000E+03	1.149191E-15	1.628667E-17
5.910000E+03	1.140519E-15	1.624680E-17
5.920000E+03	1.130596E-15	1.622625E-17
5.930000E+03	1.119691E-15	1.623119E-17
5.940000E+03	1.108152E-15	1.625878E-17
5.950000E+03	1.096429E-15	1.629639E-17
5.960000E+03	1.084958E-15	1.632029E-17
5.970000E+03	1.074167E-15	1.630454E-17
5.980000E+03	1.064416E-15	1.622863E-17
5.990000E+03	1.055979E-15	1.608142E-17
6.000000E+03	1.049013E-15	1.586502E-17
6.010000E+03	1.043554E-15	1.559503E-17
6.020000E+03	1.039573E-15	1.529712E-17
6.030000E+03	1.036905E-15	1.500033E-17
6.040000E+03	1.035359E-15	1.472977E-17
6.050000E+03	1.034637E-15	1.449830E-17
6.060000E+03	1.034454E-15	1.431025E-17
6.070000E+03	1.034465E-15	1.416366E-17
6.080000E+03	1.034325E-15	1.405262E-17
6.090000E+03	1.033699E-15	1.397129E-17
6.100000E+03	1.032231E-15	1.391337E-17
6.110000E+03	1.029605E-15	1.387003E-17
6.120000E+03	1.025551E-15	1.383174E-17
6.130000E+03	1.019855E-15	1.378837E-17
6.140000E+03	1.012484E-15	1.372958E-17
6.150000E+03	1.003496E-15	1.364672E-17
6.160000E+03	9.930780E-16	1.353495E-17
6.170000E+03	9.815273E-16	1.339223E-17
6.180000E+03	9.692048E-16	1.322209E-17
6.190000E+03	9.565402E-16	1.303423E-17
6.200000E+03	9.439571E-16	1.284070E-17
6.210000E+03	9.319087E-16	1.265623E-17
6.220000E+03	9.208133E-16	1.249430E-17
6.230000E+03	9.111169E-16	1.236373E-17
6.240000E+03	9.031924E-16	1.226845E-17
6.250000E+03	8.973629E-16	1.220753E-17
6.260000E+03	8.938745E-16	1.217339E-17
6.270000E+03	8.928853E-16	1.215590E-17
6.280000E+03	8.944608E-16	1.214576E-17
6.290000E+03	8.985162E-16	1.213460E-17
6.300000E+03	9.049121E-16	1.211938E-17
6.310000E+03	9.133429E-16	1.210137E-17
6.320000E+03	9.234359E-16	1.208590E-17
6.330000E+03	9.347358E-16	1.208240E-17
6.340000E+03	9.467667E-16	1.210023E-17
6.350000E+03	9.590786E-16	1.214233E-17
6.360000E+03	9.712960E-16	1.220649E-17
6.370000E+03	9.831316E-16	1.228320E-17
6.380000E+03	9.944852E-16	1.235377E-17
6.390000E+03	1.005313E-15	1.239749E-17
6.400000E+03	1.015672E-15	1.240076E-17
6.410000E+03	1.025628E-15	1.235885E-17
6.420000E+03	1.035230E-15	1.228024E-17
6.430000E+03	1.044505E-15	1.218395E-17
6.440000E+03	1.053383E-15	1.209285E-17
6.450000E+03	1.061834E-15	1.203610E-17
6.460000E+03	1.069710E-15	1.203635E-17
6.470000E+03	1.076921E-15	1.209873E-17
6.480000E+03	1.083364E-15	1.222037E-17
6.490000E+03	1.088932E-15	1.239167E-17
6.500000E+03	1.093527E-15	1.258788E-17
6.510000E+03	1.097049E-15	1.278299E-17
6.520000E+03	1.099391E-15	1.296151E-17
6.530000E+03	1.100463E-15	1.311635E-17
6.540000E+03	1.100141E-15	1.324901E-17
6.550000E+03	1.098412E-15	1.336462E-17
6.560000E+03	1.095279E-15	1.346073E-17
6.570000E+03	1.090895E-15	1.353410E-17
6.580000E+03	1.085428E-15	1.358303E-17
6.590000E+03	1.079083E-15	1.360490E-17
6.600000E+03	1.072095E-15	1.359990E-17
6.610000E+03	1.064708E-15	1.357164E-17
6.620000E+03	1.057117E-15	1.352380E-17
6.630000E+03	1.049514E-15	1.346424E-17
6.640000E+03	1.042002E-15	1.340451E-17
6.650000E+03	1.034677E-15	1.335686E-17
6.660000E+03	1.027520E-15	1.333264E-17
6.670000E+03	1.020511E-15	1.333999E-17
6.680000E+03	1.013583E-15	1.337814E-17
6.690000E+03	1.006649E-15	1.344066E-17
6.700000E+03	9.996258E-16	1.351865E-17
6.710000E+03	9.923946E-16	1.360023E-17
6.720000E+03	9.849045E-16	1.367562E-17
6.730000E+03	9.770882E-16	1.373743E-17
6.740000E+03	9.688825E-16	1.377967E-17
6.750000E+03	9.602778E-16	1.379963E-17
6.760000E+03	9.512614E-16	1.379695E-17
6.770000E+03	9.418793E-16	1.377287E-17
6.780000E+03	9.321923E-16	1.373048E-17
6.790000E+03	9.222865E-16	1.367474E-17
6.800000E+03	9.122679E-16	1.361097E-17
6.810000E+03	9.022437E-16	1.354501E-17
6.820000E+03	8.923724E-16	1.348328E-17
6.830000E+03	8.827689E-16	1.342962E-17
6.840000E+03	8.735595E-16	1.338637E-17
6.850000E+03	8.648474E-16	1.335367E-17
6.860000E+03	8.567738E-16	1.332980E-17
6.870000E+03	8.493751E-16	1.331054E-17
6.880000E+03	8.427294E-16	1.329277E-17
6.890000E+03	8.368236E-16	1.327263E-17
6.900000E+03	8.316595E-16	1.324845E-17
6.910000E+03	8.271696E-16	1.321959E-17
6.920000E+03	8.232188E-16	1.318561E-17
6.930000E+03	8.196939E-16	1.314768E-17
6.940000E+03	8.164350E-16	1.310680E-17
6.950000E+03	8.132498E-16	1.306288E-17
6.960000E+03	8.100119E-16	1.301663E-17
6.970000E+03	8.065927E-16	1.296844E-17
6.980000E+03	8.028860E-16	1.291841E-17
6.990000E+03	7.988418E-16	1.286737E-17
7.000000E+03	7.944521E-16	1.281663E-17
7.010000E+03	7.897600E-16	1.276753E-17
7.020000E+03	7.848126E-16	1.272120E-17
7.030000E+03	7.797066E-16	1.267932E-17
7.040000E+03	7.745231E-16	1.264243E-17
7.050000E+03	7.693764E-16	1.261114E-17
7.060000E+03	7.643545E-16	1.258512E-17
7.070000E+03	7.595546E-16	1.256330E-17
7.080000E+03	7.550807E-16	1.254469E-17
7.090000E+03	7.510005E-16	1.252824E-17
7.100000E+03	7.473963E-16	1.251359E-17
7.110000E+03	7.443076E-16	1.250070E-17
7.120000E+03	7.417797E-16	1.249067E-17
7.130000E+03	7.398189E-16	1.248443E-17
7.140000E+03	7.383900E-16	1.248286E-17
7.150000E+03	7.374416E-16	1.248700E-17
7.160000E+03	7.369197E-16	1.249772E-17
7.170000E+03	7.366797E-16	1.251440E-17
7.180000E+03	7.366451E-16	1.253749E-17
7.190000E+03	7.366812E-16	1.256570E-17
7.200000E+03	7.366595E-16	1.259733E-17
7.210000E+03	7.365106E-16	1.263096E-17
7.220000E+03	7.361348E-16	1.266340E-17
7.230000E+03	7.355196E-16	1.269214E-17
7.240000E+03	7.346434E-16	1.271396E-17
7.250000E+03	7.335444E-16	1.272606E-17
7.260000E+03	7.322599E-16	1.272597E-17
7.270000E+03	7.308752E-16	1.271295E-17
7.280000E+03	7.294696E-16	1.268716E-17
7.290000E+03	7.281338E-16	1.265051E-17
7.300000E+03	7.269143E-16	1.260564E-17
7.310000E+03	7.258581E-16	1.255601E-17
7.320000E+03	7.249605E-16	1.250483E-17
7.330000E+03	7.241729E-16	1.245452E-17
7.340000E+03	7.234122E-16	1.240606E-17
7.350000E+03	7.225460E-16	1.235900E-17
7.360000E+03	7.213655E-16	1.231113E-17
7.370000E+03	7.196517E-16	1.225948E-17
7.380000E+03	7.171437E-16	1.220033E-17
7.390000E+03	7.135853E-16	1.213021E-17
7.400000E+03	7.087171E-16	1.204543E-17
7.410000E+03	7.023131E-16	1.194312E-17
7.420000E+03	6.941905E-16	1.182118E-17
7.430000E+03	6.842895E-16	1.167889E-17
7.440000E+03	6.725839E-16	1.151532E-17
7.450000E+03	6.591751E-16	1.133049E-17
7.460000E+03	6.442755E-16	1.112488E-17
7.470000E+03	6.281530E-16	1.089949E-17
7.480000E+03	6.111404E-16	1.065702E-17
7.490000E+03	5.936268E-16	1.040208E-17
7.500000E+03	5.760057E-16	1.014097E-17
7.510000E+03	5.586895E-16	9.881700E-18
7.520000E+03	5.420300E-16	9.631720E-18
7.530000E+03	5.263796E-16	9.398511E-18
7.540000E+03	5.120352E-16	9.187747E-18
7.550000E+03	4.992268E-16	9.002296E-18
7.560000E+03	4.881645E-16	8.843327E-18
7.570000E+03	4.790289E-16	8.710473E-18
7.580000E+03	4.719534E-16	8.601815E-18
7.590000E+03	4.670182E-16	8.514789E-18
7.600000E+03	4.643024E-16	8.447931E-18
7.610000E+03	4.638424E-16	8.400382E-18
7.620000E+03	4.656398E-16	8.372345E-18
7.630000E+03	4.696572E-16	8.364754E-18
7.640000E+03	4.758036E-16	8.378411E-18
7.650000E+03	4.839619E-16	8.414399E-18
7.660000E+03	4.939446E-16	8.472960E-18
7.670000E+03	5.055268E-16	8.553727E-18
7.680000E+03	5.184520E-16	8.656452E-18
7.690000E+03	5.324201E-16	8.781188E-18
7.700000E+03	5.471014E-16	8.928138E-18
7.710000E+03	5.621755E-16	9.097844E-18
7.720000E+03	5.773510E-16	9.289952E-18
7.730000E+03	5.923565E-16	9.501272E-18
7.740000E+03	6.069483E-16	9.725945E-18
7.750000E+03	6.209407E-16	9.956281E-18
7.760000E+03	6.342081E-16	1.018313E-17
