#wls	flux	fluxerr
1.600000E+03	9.317235E-18	6.716182E-18
1.640000E+03	9.373766E-18	6.737646E-18
1.680000E+03	9.437254E-18	6.762306E-18
1.720000E+03	9.504619E-18	6.787782E-18
1.760000E+03	9.579386E-18	6.816407E-18
1.800000E+03	9.660161E-18	6.846978E-18
1.840000E+03	9.747219E-18	6.879470E-18
1.880000E+03	9.842535E-18	6.915033E-18
1.920000E+03	9.944784E-18	6.952465E-18
1.960000E+03	1.005770E-17	6.994083E-18
2.000000E+03	1.017835E-17	7.037513E-18
2.040000E+03	1.031059E-17	7.085065E-18
2.080000E+03	1.045495E-17	7.136702E-18
2.120000E+03	1.061032E-17	7.191219E-18
2.160000E+03	1.077905E-17	7.249743E-18
2.200000E+03	1.096361E-17	7.313390E-18
2.240000E+03	1.116309E-17	7.380944E-18
2.280000E+03	1.138014E-17	7.453505E-18
2.320000E+03	1.161576E-17	7.530999E-18
2.360000E+03	1.187286E-17	7.614493E-18
2.400000E+03	1.215088E-17	7.702721E-18
2.440000E+03	1.245484E-17	7.797852E-18
2.480000E+03	1.278630E-17	7.899707E-18
2.520000E+03	1.314507E-17	8.006920E-18
2.560000E+03	1.353867E-17	8.122644E-18
2.600000E+03	1.396535E-17	8.244230E-18
2.640000E+03	1.443313E-17	8.374634E-18
2.680000E+03	1.494056E-17	8.510990E-18
2.720000E+03	1.549619E-17	8.655947E-18
2.760000E+03	1.610083E-17	8.807415E-18
2.800000E+03	1.676153E-17	8.966443E-18
2.840000E+03	1.748140E-17	9.131521E-18
2.880000E+03	1.826567E-17	9.301904E-18
2.920000E+03	1.911962E-17	9.476419E-18
2.960000E+03	2.004845E-17	9.653419E-18
3.000000E+03	2.105714E-17	9.830738E-18
3.010000E+03	2.132208E-17	9.874687E-18
3.020000E+03	2.159452E-17	9.919436E-18
3.030000E+03	2.186982E-17	9.962764E-18
3.040000E+03	2.215034E-17	1.000569E-17
3.050000E+03	2.243847E-17	1.004920E-17
3.060000E+03	2.273187E-17	1.009216E-17
3.070000E+03	2.303056E-17	1.013450E-17
3.080000E+03	2.333454E-17	1.017615E-17
3.090000E+03	2.364381E-17	1.021703E-17
3.100000E+03	2.396083E-17	1.025812E-17
3.110000E+03	2.428317E-17	1.029831E-17
3.120000E+03	2.461082E-17	1.033750E-17
3.130000E+03	2.494377E-17	1.037563E-17
3.140000E+03	2.528449E-17	1.041367E-17
3.150000E+03	2.563050E-17	1.045051E-17
3.160000E+03	2.598431E-17	1.048709E-17
3.170000E+03	2.634336E-17	1.052234E-17
3.180000E+03	2.670764E-17	1.055618E-17
3.190000E+03	2.707968E-17	1.058958E-17
3.200000E+03	2.745689E-17	1.062145E-17
3.210000E+03	2.784183E-17	1.065276E-17
3.220000E+03	2.823189E-17	1.068245E-17
3.230000E+03	2.862964E-17	1.071149E-17
3.240000E+03	2.903243E-17	1.073885E-17
3.250000E+03	2.944288E-17	1.076549E-17
3.260000E+03	2.986097E-17	1.079138E-17
3.270000E+03	3.028402E-17	1.081556E-17
3.280000E+03	3.071468E-17	1.083900E-17
3.290000E+03	3.115294E-17	1.086171E-17
3.300000E+03	3.159609E-17	1.088277E-17
3.310000E+03	3.204684E-17	1.090318E-17
3.320000E+03	3.250520E-17	1.092301E-17
3.330000E+03	3.296842E-17	1.094139E-17
3.340000E+03	3.344208E-17	1.096027E-17
3.350000E+03	3.392065E-17	1.097792E-17
3.360000E+03	3.440696E-17	1.099539E-17
3.370000E+03	3.490392E-17	1.101372E-17
3.380000E+03	3.540597E-17	1.103129E-17
3.390000E+03	3.591603E-17	1.104917E-17
3.400000E+03	3.643421E-17	1.106757E-17
3.410000E+03	3.696067E-17	1.108672E-17
3.420000E+03	3.749555E-17	1.110685E-17
3.430000E+03	3.803905E-17	1.112822E-17
3.440000E+03	3.859136E-17	1.115111E-17
3.450000E+03	3.915565E-17	1.117663E-17
3.460000E+03	3.972630E-17	1.120342E-17
3.470000E+03	4.030946E-17	1.123342E-17
3.480000E+03	4.090249E-17	1.126613E-17
3.490000E+03	4.150570E-17	1.130185E-17
3.500000E+03	4.212241E-17	1.134169E-17
3.510000E+03	4.274999E-17	1.138515E-17
3.520000E+03	4.338881E-17	1.143251E-17
3.530000E+03	4.404227E-17	1.148484E-17
3.540000E+03	4.470773E-17	1.154159E-17
3.550000E+03	4.538863E-17	1.160377E-17
3.560000E+03	4.608234E-17	1.167080E-17
3.570000E+03	4.678922E-17	1.174283E-17
3.580000E+03	4.751276E-17	1.182076E-17
3.590000E+03	4.825334E-17	1.190465E-17
3.600000E+03	4.900824E-17	1.199377E-17
3.610000E+03	4.978091E-17	1.208886E-17
3.620000E+03	5.056852E-17	1.218909E-17
3.630000E+03	5.137452E-17	1.229507E-17
3.640000E+03	5.219917E-17	1.240664E-17
3.650000E+03	5.304269E-17	1.252354E-17
3.660000E+03	5.390203E-17	1.264472E-17
3.670000E+03	5.478050E-17	1.277059E-17
3.680000E+03	5.567816E-17	1.290074E-17
3.690000E+03	5.659172E-17	1.303395E-17
3.700000E+03	5.752762E-17	1.317122E-17
3.710000E+03	5.847913E-17	1.331048E-17
3.720000E+03	5.945261E-17	1.345264E-17
3.730000E+03	6.044106E-17	1.359554E-17
3.740000E+03	6.144736E-17	1.373924E-17
3.750000E+03	6.247094E-17	1.388304E-17
3.760000E+03	6.351114E-17	1.402616E-17
3.770000E+03	6.456718E-17	1.416784E-17
3.780000E+03	6.563815E-17	1.430725E-17
3.790000E+03	6.671957E-17	1.444284E-17
3.800000E+03	6.781714E-17	1.457526E-17
3.810000E+03	6.892614E-17	1.470292E-17
3.820000E+03	7.004512E-17	1.482495E-17
3.830000E+03	7.117252E-17	1.494052E-17
3.840000E+03	7.230662E-17	1.504879E-17
3.850000E+03	7.344559E-17	1.514893E-17
3.860000E+03	7.458746E-17	1.524015E-17
3.870000E+03	7.573014E-17	1.532166E-17
3.880000E+03	7.687146E-17	1.539275E-17
3.890000E+03	7.800913E-17	1.545272E-17
3.900000E+03	7.914077E-17	1.550092E-17
3.910000E+03	8.026397E-17	1.553679E-17
3.920000E+03	8.137625E-17	1.555980E-17
3.930000E+03	8.247511E-17	1.556951E-17
3.940000E+03	8.355807E-17	1.556556E-17
3.950000E+03	8.462266E-17	1.554764E-17
3.960000E+03	8.566647E-17	1.551556E-17
3.970000E+03	8.668716E-17	1.546917E-17
3.980000E+03	8.767889E-17	1.540780E-17
3.990000E+03	8.864318E-17	1.533212E-17
4.000000E+03	8.958174E-17	1.524285E-17
4.010000E+03	9.048196E-17	1.513830E-17
4.020000E+03	9.135318E-17	1.502055E-17
4.030000E+03	9.218687E-17	1.488865E-17
4.040000E+03	9.298200E-17	1.474294E-17
4.050000E+03	9.374497E-17	1.458490E-17
4.060000E+03	9.446453E-17	1.441320E-17
4.070000E+03	9.514763E-17	1.422930E-17
4.080000E+03	9.579429E-17	1.403355E-17
4.090000E+03	9.639781E-17	1.382524E-17
4.100000E+03	9.696585E-17	1.360575E-17
4.110000E+03	9.749578E-17	1.337486E-17
4.120000E+03	9.798871E-17	1.313286E-17
4.130000E+03	9.844599E-17	1.287999E-17
4.140000E+03	9.886916E-17	1.261650E-17
4.150000E+03	9.925991E-17	1.234258E-17
4.160000E+03	9.961674E-17	1.205802E-17
4.170000E+03	9.994500E-17	1.176344E-17
4.180000E+03	1.002467E-16	1.145902E-17
4.190000E+03	1.005208E-16	1.114462E-17
4.200000E+03	1.007693E-16	1.082051E-17
4.210000E+03	1.009946E-16	1.048707E-17
4.220000E+03	1.012022E-16	1.014506E-17
4.230000E+03	1.013877E-16	9.794401E-18
4.240000E+03	1.015599E-16	9.436469E-18
4.250000E+03	1.017147E-16	9.071642E-18
4.260000E+03	1.018541E-16	8.701234E-18
4.270000E+03	1.019867E-16	8.327436E-18
4.280000E+03	1.021053E-16	7.951625E-18
4.290000E+03	1.022181E-16	7.577064E-18
4.300000E+03	1.023240E-16	7.207033E-18
4.310000E+03	1.024250E-16	6.845983E-18
4.320000E+03	1.025229E-16	6.499466E-18
4.330000E+03	1.026166E-16	6.174114E-18
4.340000E+03	1.027136E-16	5.878417E-18
4.350000E+03	1.028065E-16	5.621209E-18
4.360000E+03	1.029026E-16	5.412917E-18
4.370000E+03	1.030002E-16	5.263298E-18
4.380000E+03	1.031030E-16	5.180724E-18
4.390000E+03	1.032067E-16	5.169510E-18
4.400000E+03	1.033150E-16	5.229080E-18
4.410000E+03	1.034293E-16	5.353497E-18
4.420000E+03	1.035478E-16	5.533263E-18
4.430000E+03	1.036741E-16	5.757742E-18
4.440000E+03	1.038060E-16	6.016075E-18
4.450000E+03	1.039436E-16	6.298502E-18
4.460000E+03	1.040895E-16	6.596804E-18
4.470000E+03	1.042378E-16	6.903713E-18
4.480000E+03	1.043901E-16	7.213799E-18
4.490000E+03	1.045451E-16	7.522639E-18
4.500000E+03	1.047011E-16	7.826784E-18
4.510000E+03	1.048535E-16	8.123381E-18
4.520000E+03	1.050003E-16	8.410395E-18
4.530000E+03	1.051413E-16	8.686509E-18
4.540000E+03	1.052714E-16	8.950401E-18
4.550000E+03	1.053878E-16	9.201271E-18
4.560000E+03	1.054879E-16	9.438572E-18
4.570000E+03	1.055712E-16	9.662187E-18
4.580000E+03	1.056303E-16	9.871490E-18
4.590000E+03	1.056627E-16	1.006642E-17
4.600000E+03	1.056713E-16	1.024751E-17
4.610000E+03	1.056492E-16	1.041445E-17
4.620000E+03	1.055978E-16	1.056768E-17
4.630000E+03	1.055160E-16	1.070752E-17
4.640000E+03	1.054011E-16	1.083408E-17
4.650000E+03	1.052533E-16	1.094776E-17
4.660000E+03	1.050757E-16	1.104928E-17
4.670000E+03	1.048672E-16	1.113889E-17
4.680000E+03	1.046319E-16	1.121740E-17
4.690000E+03	1.043697E-16	1.128517E-17
4.700000E+03	1.040832E-16	1.134284E-17
4.710000E+03	1.037756E-16	1.139109E-17
4.720000E+03	1.034522E-16	1.143089E-17
4.730000E+03	1.031145E-16	1.146272E-17
4.740000E+03	1.027662E-16	1.148736E-17
4.750000E+03	1.024111E-16	1.150559E-17
4.760000E+03	1.020552E-16	1.151844E-17
4.770000E+03	1.016981E-16	1.152621E-17
4.780000E+03	1.013476E-16	1.153013E-17
4.790000E+03	1.010075E-16	1.153093E-17
4.800000E+03	1.006768E-16	1.152880E-17
4.810000E+03	1.003629E-16	1.152484E-17
4.820000E+03	1.000665E-16	1.151934E-17
4.830000E+03	9.979217E-17	1.151300E-17
4.840000E+03	9.953806E-17	1.150570E-17
4.850000E+03	9.931008E-17	1.149817E-17
4.860000E+03	9.910975E-17	1.149057E-17
4.870000E+03	9.893626E-17	1.148277E-17
4.880000E+03	9.879054E-17	1.147477E-17
4.890000E+03	9.867520E-17	1.146673E-17
4.900000E+03	9.859067E-17	1.145857E-17
4.910000E+03	9.853524E-17	1.144993E-17
4.920000E+03	9.850907E-17	1.144067E-17
4.930000E+03	9.851421E-17	1.143091E-17
4.940000E+03	9.855077E-17	1.142053E-17
4.950000E+03	9.861894E-17	1.140948E-17
4.960000E+03	9.871904E-17	1.139774E-17
4.970000E+03	9.884971E-17	1.138512E-17
4.980000E+03	9.901364E-17	1.137196E-17
4.990000E+03	9.921193E-17	1.135841E-17
5.000000E+03	9.944596E-17	1.134467E-17
5.010000E+03	9.971748E-17	1.133102E-17
5.020000E+03	1.000286E-16	1.131776E-17
5.030000E+03	1.003818E-16	1.130524E-17
5.040000E+03	1.007797E-16	1.129382E-17
5.050000E+03	1.012275E-16	1.128409E-17
5.060000E+03	1.017244E-16	1.127600E-17
5.070000E+03	1.022779E-16	1.127035E-17
5.080000E+03	1.028895E-16	1.126726E-17
5.090000E+03	1.035629E-16	1.126700E-17
5.100000E+03	1.043015E-16	1.126981E-17
5.110000E+03	1.051107E-16	1.127606E-17
5.120000E+03	1.059914E-16	1.128558E-17
5.130000E+03	1.069486E-16	1.129853E-17
5.140000E+03	1.079823E-16	1.131453E-17
5.150000E+03	1.090942E-16	1.133324E-17
5.160000E+03	1.102875E-16	1.135441E-17
5.170000E+03	1.115605E-16	1.137719E-17
5.180000E+03	1.129147E-16	1.140099E-17
5.190000E+03	1.143467E-16	1.142460E-17
5.200000E+03	1.158566E-16	1.144709E-17
5.210000E+03	1.174391E-16	1.146695E-17
5.220000E+03	1.190924E-16	1.148292E-17
5.230000E+03	1.208093E-16	1.149320E-17
5.240000E+03	1.225863E-16	1.149628E-17
5.250000E+03	1.244164E-16	1.149037E-17
5.260000E+03	1.262899E-16	1.147339E-17
5.270000E+03	1.281981E-16	1.144345E-17
5.280000E+03	1.301342E-16	1.139889E-17
5.290000E+03	1.320882E-16	1.133787E-17
5.300000E+03	1.340474E-16	1.125846E-17
5.310000E+03	1.360033E-16	1.115929E-17
5.320000E+03	1.379424E-16	1.103877E-17
5.330000E+03	1.398560E-16	1.089603E-17
5.340000E+03	1.417306E-16	1.073011E-17
5.350000E+03	1.435580E-16	1.054090E-17
5.360000E+03	1.453281E-16	1.032858E-17
5.370000E+03	1.470286E-16	1.009381E-17
5.380000E+03	1.486534E-16	9.838387E-18
5.390000E+03	1.501947E-16	9.564817E-18
5.400000E+03	1.516404E-16	9.276380E-18
5.410000E+03	1.529927E-16	8.978508E-18
5.420000E+03	1.542414E-16	8.677300E-18
5.430000E+03	1.553854E-16	8.381064E-18
5.440000E+03	1.564219E-16	8.099775E-18
5.450000E+03	1.573460E-16	7.845047E-18
5.460000E+03	1.581590E-16	7.630190E-18
5.470000E+03	1.588571E-16	7.468768E-18
5.480000E+03	1.594429E-16	7.373625E-18
5.490000E+03	1.599164E-16	7.354219E-18
5.500000E+03	1.602777E-16	7.414144E-18
5.510000E+03	1.605243E-16	7.549808E-18
5.520000E+03	1.606596E-16	7.752366E-18
5.530000E+03	1.606844E-16	8.009868E-18
5.540000E+03	1.606001E-16	8.309492E-18
5.550000E+03	1.604086E-16	8.638966E-18
5.560000E+03	1.601122E-16	8.987374E-18
5.570000E+03	1.597111E-16	9.345325E-18
5.580000E+03	1.592149E-16	9.705648E-18
5.590000E+03	1.586224E-16	1.006209E-17
5.600000E+03	1.579444E-16	1.041048E-17
5.610000E+03	1.571841E-16	1.074725E-17
5.620000E+03	1.563482E-16	1.106994E-17
5.630000E+03	1.554438E-16	1.137683E-17
5.640000E+03	1.544787E-16	1.166677E-17
5.650000E+03	1.534611E-16	1.193907E-17
5.660000E+03	1.524024E-16	1.219359E-17
5.670000E+03	1.513088E-16	1.243006E-17
5.680000E+03	1.501923E-16	1.264887E-17
5.690000E+03	1.490595E-16	1.285013E-17
5.700000E+03	1.479202E-16	1.303436E-17
5.710000E+03	1.467866E-16	1.320240E-17
5.720000E+03	1.456684E-16	1.335502E-17
5.730000E+03	1.445725E-16	1.349280E-17
5.740000E+03	1.435109E-16	1.361688E-17
5.750000E+03	1.424900E-16	1.372797E-17
5.760000E+03	1.415210E-16	1.382726E-17
5.770000E+03	1.406119E-16	1.391575E-17
5.780000E+03	1.397673E-16	1.399417E-17
5.790000E+03	1.389988E-16	1.406396E-17
5.800000E+03	1.383069E-16	1.412554E-17
5.810000E+03	1.376987E-16	1.418007E-17
5.820000E+03	1.371776E-16	1.422839E-17
5.830000E+03	1.367461E-16	1.427129E-17
5.840000E+03	1.364053E-16	1.430954E-17
5.850000E+03	1.361555E-16	1.434385E-17
5.860000E+03	1.359955E-16	1.437490E-17
5.870000E+03	1.359236E-16	1.440333E-17
5.880000E+03	1.359365E-16	1.442972E-17
5.890000E+03	1.360306E-16	1.445464E-17
5.900000E+03	1.362010E-16	1.447861E-17
5.910000E+03	1.364426E-16	1.450210E-17
5.920000E+03	1.367521E-16	1.452580E-17
5.930000E+03	1.371182E-16	1.454953E-17
5.940000E+03	1.375397E-16	1.457412E-17
5.950000E+03	1.380079E-16	1.459952E-17
5.960000E+03	1.385167E-16	1.462584E-17
5.970000E+03	1.390602E-16	1.465314E-17
5.980000E+03	1.396334E-16	1.468136E-17
5.990000E+03	1.402342E-16	1.471065E-17
6.000000E+03	1.408538E-16	1.474029E-17
6.010000E+03	1.414944E-16	1.477057E-17
6.020000E+03	1.421516E-16	1.480097E-17
6.030000E+03	1.428243E-16	1.483118E-17
6.040000E+03	1.435152E-16	1.486122E-17
6.050000E+03	1.442197E-16	1.489026E-17
6.060000E+03	1.449449E-16	1.491864E-17
6.070000E+03	1.456905E-16	1.494587E-17
6.080000E+03	1.464594E-16	1.497178E-17
6.090000E+03	1.472553E-16	1.499624E-17
6.100000E+03	1.480847E-16	1.501940E-17
6.110000E+03	1.489460E-16	1.504057E-17
6.120000E+03	1.498488E-16	1.506016E-17
6.130000E+03	1.507941E-16	1.507771E-17
6.140000E+03	1.517852E-16	1.509293E-17
6.150000E+03	1.528279E-16	1.510578E-17
6.160000E+03	1.539185E-16	1.511523E-17
6.170000E+03	1.550641E-16	1.512126E-17
6.180000E+03	1.562617E-16	1.512289E-17
6.190000E+03	1.575105E-16	1.511926E-17
6.200000E+03	1.588080E-16	1.510939E-17
6.210000E+03	1.601535E-16	1.509248E-17
6.220000E+03	1.615389E-16	1.506703E-17
6.230000E+03	1.629575E-16	1.503173E-17
6.240000E+03	1.644011E-16	1.498521E-17
6.250000E+03	1.658603E-16	1.492607E-17
6.260000E+03	1.673273E-16	1.485313E-17
6.270000E+03	1.687868E-16	1.476468E-17
6.280000E+03	1.702256E-16	1.465925E-17
6.290000E+03	1.716328E-16	1.453574E-17
6.300000E+03	1.729872E-16	1.439220E-17
6.310000E+03	1.742805E-16	1.422789E-17
6.320000E+03	1.754978E-16	1.404155E-17
6.330000E+03	1.766214E-16	1.383177E-17
6.340000E+03	1.776377E-16	1.359752E-17
6.350000E+03	1.785346E-16	1.333794E-17
6.360000E+03	1.793054E-16	1.305261E-17
6.370000E+03	1.799418E-16	1.274116E-17
6.380000E+03	1.804348E-16	1.240329E-17
6.390000E+03	1.807818E-16	1.203943E-17
6.400000E+03	1.809864E-16	1.165086E-17
6.410000E+03	1.810484E-16	1.123907E-17
6.420000E+03	1.809775E-16	1.080697E-17
6.430000E+03	1.807828E-16	1.035836E-17
6.440000E+03	1.804719E-16	9.898237E-18
6.450000E+03	1.800657E-16	9.433945E-18
6.460000E+03	1.795685E-16	8.973969E-18
6.470000E+03	1.790073E-16	8.530410E-18
6.480000E+03	1.783917E-16	8.117290E-18
6.490000E+03	1.777421E-16	7.752034E-18
6.500000E+03	1.770748E-16	7.454255E-18
6.510000E+03	1.764050E-16	7.244388E-18
6.520000E+03	1.757462E-16	7.140793E-18
6.530000E+03	1.751091E-16	7.155554E-18
6.540000E+03	1.745011E-16	7.290443E-18
6.550000E+03	1.739250E-16	7.536449E-18
6.560000E+03	1.733813E-16	7.877507E-18
6.570000E+03	1.728682E-16	8.294897E-18
6.580000E+03	1.723860E-16	8.770532E-18
6.590000E+03	1.719238E-16	9.287922E-18
6.600000E+03	1.714836E-16	9.833993E-18
6.610000E+03	1.710604E-16	1.039800E-17
6.620000E+03	1.706417E-16	1.097108E-17
6.630000E+03	1.702293E-16	1.154714E-17
6.640000E+03	1.698180E-16	1.212123E-17
6.650000E+03	1.693996E-16	1.268932E-17
6.660000E+03	1.689734E-16	1.324881E-17
6.670000E+03	1.685322E-16	1.379725E-17
6.680000E+03	1.680730E-16	1.433300E-17
6.690000E+03	1.676003E-16	1.485542E-17
6.700000E+03	1.671056E-16	1.536301E-17
6.710000E+03	1.665915E-16	1.585538E-17
6.720000E+03	1.660546E-16	1.633171E-17
6.730000E+03	1.655022E-16	1.679233E-17
6.740000E+03	1.649289E-16	1.723633E-17
6.750000E+03	1.643401E-16	1.766397E-17
6.760000E+03	1.637385E-16	1.807524E-17
6.770000E+03	1.631236E-16	1.846988E-17
6.780000E+03	1.625060E-16	1.884887E-17
6.790000E+03	1.618862E-16	1.921215E-17
6.800000E+03	1.612651E-16	1.955973E-17
6.810000E+03	1.606539E-16	1.989296E-17
6.820000E+03	1.600539E-16	2.021204E-17
6.830000E+03	1.594699E-16	2.051771E-17
6.840000E+03	1.589033E-16	2.081030E-17
6.850000E+03	1.583655E-16	2.109155E-17
6.860000E+03	1.578576E-16	2.136196E-17
6.870000E+03	1.573842E-16	2.162248E-17
6.880000E+03	1.569527E-16	2.187458E-17
6.890000E+03	1.565603E-16	2.211834E-17
6.900000E+03	1.562140E-16	2.235523E-17
6.910000E+03	1.559203E-16	2.258672E-17
6.920000E+03	1.556789E-16	2.281334E-17
6.930000E+03	1.554888E-16	2.303550E-17
6.940000E+03	1.553589E-16	2.325509E-17
6.950000E+03	1.552876E-16	2.347246E-17
6.960000E+03	1.552762E-16	2.368838E-17
6.970000E+03	1.553290E-16	2.390409E-17
6.980000E+03	1.554399E-16	2.411921E-17
6.990000E+03	1.556126E-16	2.433483E-17
7.000000E+03	1.558505E-16	2.455201E-17
7.010000E+03	1.561465E-16	2.477015E-17
7.020000E+03	1.565069E-16	2.499072E-17
7.030000E+03	1.569276E-16	2.521353E-17
7.040000E+03	1.574045E-16	2.543832E-17
7.050000E+03	1.579433E-16	2.566645E-17
7.060000E+03	1.585361E-16	2.589700E-17
7.070000E+03	1.591852E-16	2.613069E-17
7.080000E+03	1.598894E-16	2.636766E-17
7.090000E+03	1.606475E-16	2.660801E-17
7.100000E+03	1.614581E-16	2.685178E-17
7.110000E+03	1.623199E-16	2.709901E-17
7.120000E+03	1.632279E-16	2.734909E-17
7.130000E+03	1.641840E-16	2.760254E-17
7.140000E+03	1.651866E-16	2.785927E-17
7.150000E+03	1.662302E-16	2.811849E-17
7.160000E+03	1.673164E-16	2.838060E-17
7.170000E+03	1.684427E-16	2.864529E-17
7.180000E+03	1.696029E-16	2.891158E-17
7.190000E+03	1.707938E-16	2.917898E-17
7.200000E+03	1.720156E-16	2.944757E-17
7.210000E+03	1.732607E-16	2.971605E-17
7.220000E+03	1.745285E-16	2.998431E-17
7.230000E+03	1.758100E-16	3.025080E-17
7.240000E+03	1.770998E-16	3.051454E-17
7.250000E+03	1.783918E-16	3.077441E-17
7.260000E+03	1.796793E-16	3.102920E-17
7.270000E+03	1.809591E-16	3.127828E-17
7.280000E+03	1.822197E-16	3.151958E-17
7.290000E+03	1.834490E-16	3.175090E-17
7.300000E+03	1.846468E-16	3.197210E-17
7.310000E+03	1.857964E-16	3.218019E-17
7.320000E+03	1.868972E-16	3.237500E-17
7.330000E+03	1.879324E-16	3.255349E-17
7.340000E+03	1.888975E-16	3.271482E-17
7.350000E+03	1.897844E-16	3.285747E-17
7.360000E+03	1.905810E-16	3.297930E-17
7.370000E+03	1.912845E-16	3.307974E-17
7.380000E+03	1.918883E-16	3.315760E-17
7.390000E+03	1.923871E-16	3.321190E-17
7.400000E+03	1.927720E-16	3.324107E-17
7.410000E+03	1.930440E-16	3.324523E-17
7.420000E+03	1.931967E-16	3.322326E-17
7.430000E+03	1.932293E-16	3.317498E-17
7.440000E+03	1.931466E-16	3.310119E-17
7.450000E+03	1.929506E-16	3.300221E-17
7.460000E+03	1.926359E-16	3.287708E-17
7.470000E+03	1.922201E-16	3.272876E-17
7.480000E+03	1.916960E-16	3.255599E-17
7.490000E+03	1.910791E-16	3.236136E-17
7.500000E+03	1.903733E-16	3.214544E-17
7.510000E+03	1.895874E-16	3.190964E-17
7.520000E+03	1.887351E-16	3.165619E-17
7.530000E+03	1.878225E-16	3.138596E-17
7.540000E+03	1.868599E-16	3.110054E-17
7.550000E+03	1.858581E-16	3.080155E-17
7.560000E+03	1.848277E-16	3.049055E-17
7.570000E+03	1.837834E-16	3.016970E-17
7.580000E+03	1.827269E-16	2.983901E-17
7.590000E+03	1.816759E-16	2.950108E-17
7.600000E+03	1.806353E-16	2.915630E-17
7.610000E+03	1.796129E-16	2.880555E-17
7.620000E+03	1.786156E-16	2.844950E-17
7.630000E+03	1.776494E-16	2.808861E-17
7.640000E+03	1.767188E-16	2.772308E-17
7.650000E+03	1.758273E-16	2.735288E-17
7.660000E+03	1.749769E-16	2.697775E-17
7.670000E+03	1.741685E-16	2.659717E-17
7.680000E+03	1.734014E-16	2.621038E-17
7.690000E+03	1.726736E-16	2.581645E-17
7.700000E+03	1.719821E-16	2.541420E-17
7.710000E+03	1.713225E-16	2.500230E-17
7.720000E+03	1.706891E-16	2.457927E-17
7.730000E+03	1.700756E-16	2.414352E-17
7.740000E+03	1.694705E-16	2.369282E-17
7.750000E+03	1.688738E-16	2.322656E-17
7.760000E+03	1.682687E-16	2.274194E-17
