#wls	flux	fluxerr
1.600000E+03	3.781213E-18	2.766888E-18
1.640000E+03	3.808225E-18	2.782765E-18
1.680000E+03	3.836899E-18	2.799508E-18
1.720000E+03	3.868039E-18	2.817671E-18
1.760000E+03	3.901098E-18	2.836823E-18
1.800000E+03	3.936215E-18	2.857027E-18
1.840000E+03	3.974238E-18	2.878859E-18
1.880000E+03	4.013934E-18	2.901382E-18
1.920000E+03	4.056879E-18	2.925691E-18
1.960000E+03	4.103279E-18	2.951880E-18
2.000000E+03	4.151904E-18	2.979006E-18
2.040000E+03	4.204414E-18	3.008203E-18
2.080000E+03	4.260324E-18	3.039053E-18
2.120000E+03	4.320636E-18	3.072199E-18
2.160000E+03	4.384888E-18	3.107229E-18
2.200000E+03	4.453373E-18	3.144265E-18
2.240000E+03	4.526408E-18	3.183435E-18
2.280000E+03	4.605130E-18	3.225433E-18
2.320000E+03	4.689946E-18	3.270423E-18
2.360000E+03	4.779653E-18	3.317440E-18
2.400000E+03	4.876318E-18	3.367783E-18
2.440000E+03	4.979606E-18	3.421064E-18
2.480000E+03	5.090898E-18	3.478066E-18
2.520000E+03	5.209916E-18	3.538409E-18
2.560000E+03	5.337268E-18	3.602307E-18
2.600000E+03	5.474542E-18	3.670610E-18
2.640000E+03	5.621573E-18	3.742960E-18
2.680000E+03	5.779151E-18	3.819617E-18
2.720000E+03	5.949140E-18	3.901521E-18
2.760000E+03	6.131536E-18	3.988340E-18
2.800000E+03	6.328443E-18	4.081086E-18
2.840000E+03	6.540007E-18	4.179455E-18
2.880000E+03	6.767493E-18	4.283828E-18
2.920000E+03	7.012296E-18	4.394619E-18
2.960000E+03	7.277166E-18	4.513020E-18
3.000000E+03	7.563937E-18	4.639566E-18
3.010000E+03	7.638457E-18	4.672034E-18
3.020000E+03	7.714411E-18	4.705001E-18
3.030000E+03	7.793119E-18	4.739259E-18
3.040000E+03	7.872051E-18	4.773254E-18
3.050000E+03	7.952516E-18	4.807775E-18
3.060000E+03	8.035874E-18	4.843627E-18
3.070000E+03	8.119524E-18	4.879228E-18
3.080000E+03	8.206166E-18	4.916190E-18
3.090000E+03	8.293148E-18	4.952909E-18
3.100000E+03	8.383226E-18	4.991018E-18
3.110000E+03	8.475087E-18	5.029717E-18
3.120000E+03	8.567369E-18	5.068184E-18
3.130000E+03	8.662911E-18	5.108087E-18
3.140000E+03	8.758928E-18	5.147765E-18
3.150000E+03	8.858322E-18	5.188909E-18
3.160000E+03	8.959717E-18	5.230692E-18
3.170000E+03	9.061680E-18	5.272261E-18
3.180000E+03	9.167204E-18	5.315343E-18
3.190000E+03	9.274874E-18	5.359093E-18
3.200000E+03	9.383209E-18	5.402638E-18
3.210000E+03	9.495305E-18	5.447744E-18
3.220000E+03	9.609701E-18	5.493545E-18
3.230000E+03	9.726451E-18	5.540050E-18
3.240000E+03	9.844011E-18	5.586361E-18
3.250000E+03	9.965619E-18	5.634296E-18
3.260000E+03	1.008975E-17	5.682961E-18
3.270000E+03	1.021647E-17	5.732365E-18
3.280000E+03	1.034583E-17	5.782515E-18
3.290000E+03	1.047790E-17	5.833420E-18
3.300000E+03	1.061274E-17	5.885086E-18
3.310000E+03	1.074867E-17	5.936560E-18
3.320000E+03	1.088923E-17	5.989759E-18
3.330000E+03	1.103275E-17	6.043737E-18
3.340000E+03	1.117931E-17	6.098499E-18
3.350000E+03	1.132897E-17	6.154048E-18
3.360000E+03	1.148182E-17	6.210388E-18
3.370000E+03	1.163792E-17	6.267520E-18
3.380000E+03	1.179735E-17	6.325446E-18
3.390000E+03	1.196018E-17	6.384167E-18
3.400000E+03	1.212649E-17	6.443681E-18
3.410000E+03	1.229635E-17	6.503986E-18
3.420000E+03	1.246986E-17	6.565079E-18
3.430000E+03	1.264708E-17	6.626955E-18
3.440000E+03	1.283015E-17	6.690677E-18
3.450000E+03	1.301508E-17	6.754105E-18
3.460000E+03	1.320397E-17	6.818293E-18
3.470000E+03	1.339692E-17	6.883226E-18
3.480000E+03	1.359400E-17	6.948892E-18
3.490000E+03	1.379531E-17	7.015275E-18
3.500000E+03	1.400092E-17	7.082355E-18
3.510000E+03	1.421093E-17	7.150114E-18
3.520000E+03	1.442772E-17	7.219673E-18
3.530000E+03	1.464683E-17	7.288724E-18
3.540000E+03	1.487059E-17	7.358373E-18
3.550000E+03	1.509911E-17	7.428589E-18
3.560000E+03	1.533247E-17	7.499337E-18
3.570000E+03	1.557323E-17	7.571776E-18
3.580000E+03	1.581657E-17	7.643477E-18
3.590000E+03	1.606502E-17	7.715583E-18
3.600000E+03	1.631866E-17	7.788042E-18
3.610000E+03	1.658020E-17	7.862042E-18
3.620000E+03	1.684453E-17	7.935053E-18
3.630000E+03	1.711430E-17	8.008242E-18
3.640000E+03	1.739234E-17	8.082812E-18
3.650000E+03	1.767329E-17	8.156158E-18
3.660000E+03	1.795994E-17	8.229462E-18
3.670000E+03	1.825234E-17	8.302640E-18
3.680000E+03	1.855349E-17	8.376918E-18
3.690000E+03	1.885767E-17	8.449582E-18
3.700000E+03	1.916783E-17	8.521835E-18
3.710000E+03	1.948706E-17	8.594914E-18
3.720000E+03	1.980938E-17	8.666025E-18
3.730000E+03	2.013784E-17	8.736383E-18
3.740000E+03	2.047567E-17	8.807233E-18
3.750000E+03	2.081659E-17	8.875703E-18
3.760000E+03	2.116376E-17	8.943015E-18
3.770000E+03	2.152057E-17	9.010422E-18
3.780000E+03	2.188039E-17	9.074970E-18
3.790000E+03	2.224653E-17	9.137889E-18
3.800000E+03	2.262251E-17	9.200434E-18
3.810000E+03	2.300134E-17	9.259575E-18
3.820000E+03	2.338648E-17	9.316545E-18
3.830000E+03	2.378157E-17	9.372596E-18
3.840000E+03	2.417927E-17	9.424629E-18
3.850000E+03	2.458316E-17	9.473873E-18
3.860000E+03	2.499704E-17	9.521578E-18
3.870000E+03	2.541317E-17	9.564577E-18
3.880000E+03	2.583526E-17	9.604098E-18
3.890000E+03	2.626725E-17	9.641381E-18
3.900000E+03	2.670098E-17	9.673204E-18
3.910000E+03	2.714032E-17	9.700789E-18
3.920000E+03	2.758934E-17	9.725361E-18
3.930000E+03	2.803946E-17	9.743658E-18
3.940000E+03	2.849466E-17	9.756891E-18
3.950000E+03	2.895917E-17	9.766273E-18
3.960000E+03	2.942394E-17	9.768514E-18
3.970000E+03	2.989310E-17	9.764817E-18
3.980000E+03	3.037102E-17	9.756376E-18
3.990000E+03	3.084818E-17	9.739899E-18
4.000000E+03	3.132883E-17	9.716579E-18
4.010000E+03	3.181750E-17	9.687591E-18
4.020000E+03	3.230418E-17	9.649670E-18
4.030000E+03	3.279326E-17	9.604001E-18
4.040000E+03	3.328432E-17	9.550289E-18
4.050000E+03	3.378208E-17	9.489692E-18
4.060000E+03	3.427585E-17	9.419029E-18
4.070000E+03	3.477022E-17	9.339487E-18
4.080000E+03	3.526469E-17	9.250811E-18
4.090000E+03	3.576414E-17	9.154152E-18
4.100000E+03	3.625725E-17	9.046497E-18
4.110000E+03	3.674878E-17	8.929056E-18
4.120000E+03	3.723815E-17	8.801661E-18
4.130000E+03	3.772473E-17	8.664178E-18
4.140000E+03	3.821367E-17	8.517794E-18
4.150000E+03	3.869285E-17	8.359856E-18
4.160000E+03	3.916731E-17	8.191670E-18
4.170000E+03	3.963638E-17	8.013287E-18
4.180000E+03	4.009938E-17	7.824828E-18
4.190000E+03	4.055563E-17	7.626488E-18
4.200000E+03	4.100445E-17	7.418555E-18
4.210000E+03	4.145138E-17	7.202503E-18
4.220000E+03	4.188335E-17	6.976650E-18
4.230000E+03	4.230587E-17	6.742773E-18
4.240000E+03	4.271828E-17	6.501711E-18
4.250000E+03	4.311995E-17	6.254511E-18
4.260000E+03	4.351027E-17	6.002469E-18
4.270000E+03	4.388866E-17	5.747188E-18
4.280000E+03	4.425457E-17	5.490638E-18
4.290000E+03	4.460748E-17	5.235236E-18
4.300000E+03	4.494694E-17	4.983931E-18
4.310000E+03	4.527250E-17	4.740307E-18
4.320000E+03	4.558380E-17	4.508668E-18
4.330000E+03	4.587368E-17	4.293469E-18
4.340000E+03	4.615549E-17	4.101883E-18
4.350000E+03	4.642224E-17	3.939730E-18
4.360000E+03	4.667375E-17	3.813764E-18
4.370000E+03	4.690992E-17	3.730379E-18
4.380000E+03	4.713071E-17	3.694744E-18
4.390000E+03	4.732906E-17	3.709322E-18
4.400000E+03	4.751897E-17	3.775373E-18
4.410000E+03	4.769346E-17	3.889692E-18
4.420000E+03	4.785254E-17	4.047486E-18
4.430000E+03	4.798921E-17	4.242124E-18
4.440000E+03	4.811776E-17	4.468446E-18
4.450000E+03	4.823130E-17	4.719689E-18
4.460000E+03	4.832296E-17	4.989517E-18
4.470000E+03	4.840729E-17	5.274465E-18
4.480000E+03	4.847752E-17	5.569663E-18
4.490000E+03	4.852692E-17	5.870738E-18
4.500000E+03	4.857025E-17	6.176451E-18
4.510000E+03	4.859374E-17	6.482604E-18
4.520000E+03	4.861222E-17	6.789051E-18
4.530000E+03	4.861201E-17	7.092181E-18
4.540000E+03	4.860803E-17	7.392662E-18
4.550000E+03	4.858666E-17	7.687240E-18
4.560000E+03	4.856286E-17	7.977197E-18
4.570000E+03	4.852310E-17	8.259481E-18
4.580000E+03	4.847524E-17	8.534606E-18
4.590000E+03	4.842711E-17	8.803371E-18
4.600000E+03	4.836529E-17	9.062853E-18
4.610000E+03	4.829764E-17	9.314010E-18
4.620000E+03	4.823197E-17	9.558022E-18
4.630000E+03	4.815496E-17	9.791984E-18
4.640000E+03	4.807442E-17	1.001717E-17
4.650000E+03	4.799112E-17	1.023354E-17
4.660000E+03	4.790581E-17	1.044110E-17
4.670000E+03	4.782619E-17	1.064145E-17
4.680000E+03	4.773904E-17	1.083160E-17
4.690000E+03	4.765207E-17	1.101317E-17
4.700000E+03	4.756597E-17	1.118629E-17
4.710000E+03	4.748141E-17	1.135110E-17
4.720000E+03	4.739907E-17	1.150779E-17
4.730000E+03	4.731957E-17	1.165651E-17
4.740000E+03	4.724355E-17	1.179747E-17
4.750000E+03	4.717161E-17	1.193084E-17
4.760000E+03	4.709749E-17	1.205510E-17
4.770000E+03	4.703541E-17	1.217390E-17
4.780000E+03	4.697907E-17	1.228573E-17
4.790000E+03	4.692898E-17	1.239078E-17
4.800000E+03	4.688562E-17	1.248924E-17
4.810000E+03	4.684270E-17	1.257949E-17
4.820000E+03	4.681420E-17	1.266534E-17
4.830000E+03	4.679375E-17	1.274514E-17
4.840000E+03	4.677502E-17	1.281722E-17
4.850000E+03	4.677187E-17	1.288541E-17
4.860000E+03	4.677790E-17	1.294802E-17
4.870000E+03	4.678670E-17	1.300331E-17
4.880000E+03	4.681205E-17	1.305513E-17
4.890000E+03	4.684077E-17	1.309982E-17
4.900000E+03	4.688658E-17	1.314125E-17
4.910000E+03	4.693624E-17	1.317569E-17
4.920000E+03	4.700346E-17	1.320701E-17
4.930000E+03	4.707494E-17	1.323143E-17
4.940000E+03	4.715758E-17	1.325088E-17
4.950000E+03	4.725831E-17	1.326726E-17
4.960000E+03	4.736371E-17	1.327675E-17
4.970000E+03	4.748064E-17	1.328123E-17
4.980000E+03	4.760919E-17	1.328065E-17
4.990000E+03	4.774940E-17	1.327493E-17
5.000000E+03	4.790816E-17	1.326589E-17
5.010000E+03	4.807178E-17	1.324963E-17
5.020000E+03	4.824707E-17	1.322792E-17
5.030000E+03	4.843399E-17	1.320063E-17
5.040000E+03	4.863246E-17	1.316760E-17
5.050000E+03	4.884237E-17	1.312865E-17
5.060000E+03	4.906360E-17	1.308359E-17
5.070000E+03	4.929598E-17	1.303222E-17
5.080000E+03	4.953933E-17	1.297432E-17
5.090000E+03	4.979343E-17	1.290965E-17
5.100000E+03	5.005088E-17	1.283612E-17
5.110000E+03	5.032564E-17	1.275716E-17
5.120000E+03	5.061028E-17	1.267065E-17
5.130000E+03	5.090447E-17	1.257632E-17
5.140000E+03	5.120052E-17	1.247210E-17
5.150000E+03	5.151256E-17	1.236126E-17
5.160000E+03	5.183288E-17	1.224174E-17
5.170000E+03	5.215358E-17	1.211150E-17
5.180000E+03	5.248892E-17	1.197374E-17
5.190000E+03	5.282348E-17	1.182475E-17
5.200000E+03	5.317161E-17	1.166765E-17
5.210000E+03	5.351765E-17	1.149884E-17
5.220000E+03	5.387608E-17	1.132139E-17
5.230000E+03	5.423098E-17	1.113186E-17
5.240000E+03	5.459696E-17	1.093326E-17
5.250000E+03	5.495784E-17	1.072234E-17
5.260000E+03	5.532055E-17	1.050059E-17
5.270000E+03	5.569218E-17	1.026945E-17
5.280000E+03	5.605620E-17	1.002603E-17
5.290000E+03	5.641962E-17	9.771952E-18
5.300000E+03	5.678160E-17	9.507439E-18
5.310000E+03	5.714130E-17	9.232841E-18
5.320000E+03	5.749787E-17	8.948645E-18
5.330000E+03	5.785864E-17	8.656725E-18
5.340000E+03	5.820648E-17	8.355440E-18
5.350000E+03	5.854869E-17	8.047141E-18
5.360000E+03	5.888447E-17	7.733200E-18
5.370000E+03	5.921304E-17	7.415334E-18
5.380000E+03	5.953367E-17	7.095680E-18
5.390000E+03	5.983721E-17	6.775924E-18
5.400000E+03	6.013985E-17	6.461270E-18
5.410000E+03	6.043257E-17	6.154689E-18
5.420000E+03	6.071484E-17	5.860982E-18
5.430000E+03	6.098615E-17	5.585878E-18
5.440000E+03	6.124610E-17	5.336055E-18
5.450000E+03	6.148565E-17	5.118323E-18
5.460000E+03	6.172182E-17	4.942217E-18
5.470000E+03	6.194576E-17	4.814989E-18
5.480000E+03	6.214854E-17	4.743014E-18
5.490000E+03	6.234751E-17	4.732597E-18
5.500000E+03	6.252504E-17	4.784253E-18
5.510000E+03	6.269854E-17	4.897661E-18
5.520000E+03	6.285028E-17	5.066795E-18
5.530000E+03	6.299782E-17	5.286441E-18
5.540000E+03	6.312346E-17	5.547610E-18
5.550000E+03	6.324496E-17	5.844235E-18
5.560000E+03	6.334470E-17	6.167601E-18
5.570000E+03	6.343175E-17	6.512138E-18
5.580000E+03	6.351530E-17	6.873320E-18
5.590000E+03	6.357787E-17	7.244609E-18
5.600000E+03	6.362880E-17	7.623013E-18
5.610000E+03	6.367750E-17	8.006403E-18
5.620000E+03	6.370665E-17	8.389883E-18
5.630000E+03	6.372578E-17	8.772284E-18
5.640000E+03	6.373554E-17	9.151751E-18
5.650000E+03	6.373663E-17	9.526752E-18
5.660000E+03	6.372979E-17	9.896018E-18
5.670000E+03	6.371578E-17	1.025851E-17
5.680000E+03	6.369539E-17	1.061337E-17
5.690000E+03	6.366944E-17	1.095990E-17
5.700000E+03	6.363876E-17	1.129755E-17
5.710000E+03	6.360419E-17	1.162587E-17
5.720000E+03	6.356659E-17	1.194451E-17
5.730000E+03	6.352679E-17	1.225323E-17
5.740000E+03	6.348565E-17	1.255182E-17
5.750000E+03	6.344400E-17	1.284016E-17
5.760000E+03	6.340268E-17	1.311819E-17
5.770000E+03	6.336249E-17	1.338588E-17
5.780000E+03	6.331537E-17	1.364133E-17
5.790000E+03	6.327983E-17	1.388837E-17
5.800000E+03	6.324777E-17	1.412520E-17
5.810000E+03	6.321105E-17	1.434990E-17
5.820000E+03	6.318808E-17	1.456657E-17
5.830000E+03	6.317070E-17	1.477335E-17
5.840000E+03	6.315070E-17	1.496827E-17
5.850000E+03	6.314639E-17	1.515564E-17
5.860000E+03	6.314067E-17	1.533138E-17
5.870000E+03	6.315177E-17	1.549989E-17
5.880000E+03	6.316253E-17	1.565699E-17
5.890000E+03	6.319112E-17	1.580716E-17
5.900000E+03	6.322030E-17	1.594613E-17
5.910000E+03	6.326818E-17	1.607844E-17
5.920000E+03	6.331743E-17	1.619971E-17
5.930000E+03	6.338613E-17	1.631453E-17
5.940000E+03	6.345685E-17	1.641842E-17
5.950000E+03	6.353873E-17	1.651370E-17
5.960000E+03	6.364090E-17	1.660273E-17
5.970000E+03	6.374577E-17	1.668088E-17
5.980000E+03	6.386241E-17	1.675045E-17
5.990000E+03	6.399094E-17	1.681142E-17
6.000000E+03	6.414042E-17	1.686611E-17
6.010000E+03	6.429300E-17	1.690972E-17
6.020000E+03	6.445763E-17	1.694451E-17
6.030000E+03	6.463430E-17	1.697038E-17
6.040000E+03	6.482297E-17	1.698719E-17
6.050000E+03	6.502352E-17	1.699477E-17
6.060000E+03	6.523584E-17	1.699295E-17
6.070000E+03	6.546891E-17	1.698389E-17
6.080000E+03	6.570423E-17	1.696262E-17
6.090000E+03	6.595070E-17	1.693126E-17
6.100000E+03	6.620800E-17	1.688956E-17
6.110000E+03	6.647583E-17	1.683723E-17
6.120000E+03	6.674447E-17	1.677162E-17
6.130000E+03	6.703214E-17	1.669711E-17
6.140000E+03	6.732910E-17	1.661101E-17
6.150000E+03	6.763486E-17	1.651297E-17
6.160000E+03	6.794888E-17	1.640264E-17
6.170000E+03	6.827059E-17	1.627965E-17
6.180000E+03	6.859937E-17	1.614361E-17
6.190000E+03	6.893457E-17	1.599416E-17
6.200000E+03	6.926580E-17	1.582870E-17
6.210000E+03	6.961166E-17	1.565129E-17
6.220000E+03	6.996174E-17	1.545933E-17
6.230000E+03	7.031523E-17	1.525246E-17
6.240000E+03	7.066139E-17	1.502823E-17
6.250000E+03	7.101908E-17	1.479055E-17
6.260000E+03	7.137755E-17	1.453697E-17
6.270000E+03	7.172583E-17	1.426523E-17
6.280000E+03	7.208297E-17	1.397913E-17
6.290000E+03	7.242788E-17	1.367452E-17
6.300000E+03	7.277977E-17	1.335515E-17
6.310000E+03	7.312754E-17	1.301899E-17
6.320000E+03	7.345989E-17	1.266427E-17
6.330000E+03	7.379630E-17	1.229468E-17
6.340000E+03	7.411514E-17	1.190693E-17
6.350000E+03	7.443608E-17	1.150474E-17
6.360000E+03	7.473733E-17	1.108531E-17
6.370000E+03	7.503877E-17	1.065246E-17
6.380000E+03	7.531847E-17	1.020403E-17
6.390000E+03	7.558597E-17	9.742716E-18
6.400000E+03	7.585100E-17	9.271310E-18
6.410000E+03	7.609149E-17	8.789055E-18
6.420000E+03	7.632794E-17	8.300927E-18
6.430000E+03	7.653825E-17	7.807683E-18
6.440000E+03	7.673242E-17	7.314621E-18
6.450000E+03	7.692061E-17	6.827974E-18
6.460000E+03	7.708077E-17	6.352621E-18
6.470000E+03	7.722320E-17	5.898499E-18
6.480000E+03	7.734753E-17	5.477085E-18
6.490000E+03	7.746433E-17	5.103521E-18
6.500000E+03	7.755167E-17	4.793616E-18
6.510000E+03	7.762026E-17	4.567091E-18
6.520000E+03	7.767001E-17	4.441680E-18
6.530000E+03	7.771177E-17	4.430104E-18
6.540000E+03	7.772368E-17	4.533507E-18
6.550000E+03	7.771653E-17	4.744379E-18
6.560000E+03	7.769026E-17	5.047264E-18
6.570000E+03	7.764485E-17	5.423926E-18
6.580000E+03	7.758034E-17	5.856826E-18
6.590000E+03	7.749686E-17	6.330864E-18
6.600000E+03	7.739462E-17	6.833805E-18
6.610000E+03	7.727390E-17	7.356040E-18
6.620000E+03	7.714590E-17	7.891228E-18
6.630000E+03	7.698938E-17	8.431465E-18
6.640000E+03	7.681571E-17	8.973310E-18
6.650000E+03	7.662547E-17	9.513269E-18
6.660000E+03	7.641929E-17	1.004860E-17
6.670000E+03	7.618719E-17	1.057563E-17
6.680000E+03	7.595135E-17	1.109556E-17
6.690000E+03	7.570184E-17	1.160559E-17
6.700000E+03	7.543949E-17	1.210465E-17
6.710000E+03	7.516517E-17	1.259187E-17
6.720000E+03	7.487975E-17	1.306658E-17
6.730000E+03	7.458416E-17	1.352828E-17
6.740000E+03	7.427931E-17	1.397660E-17
6.750000E+03	7.396613E-17	1.441125E-17
6.760000E+03	7.363518E-17	1.483000E-17
6.770000E+03	7.330816E-17	1.523686E-17
6.780000E+03	7.297558E-17	1.562980E-17
6.790000E+03	7.263836E-17	1.600887E-17
6.800000E+03	7.229737E-17	1.637416E-17
6.810000E+03	7.194336E-17	1.672347E-17
6.820000E+03	7.159750E-17	1.706165E-17
6.830000E+03	7.125043E-17	1.738661E-17
6.840000E+03	7.090296E-17	1.769861E-17
6.850000E+03	7.054591E-17	1.799538E-17
6.860000E+03	7.019996E-17	1.828226E-17
6.870000E+03	6.985583E-17	1.855706E-17
6.880000E+03	6.950440E-17	1.881746E-17
6.890000E+03	6.916597E-17	1.906906E-17
6.900000E+03	6.883130E-17	1.930959E-17
6.910000E+03	6.849131E-17	1.953665E-17
6.920000E+03	6.816593E-17	1.975607E-17
6.930000E+03	6.783639E-17	1.996265E-17
6.940000E+03	6.752235E-17	2.016236E-17
6.950000E+03	6.720517E-17	2.034988E-17
6.960000E+03	6.690428E-17	2.053128E-17
6.970000E+03	6.661054E-17	2.070403E-17
6.980000E+03	6.631493E-17	2.086553E-17
6.990000E+03	6.603655E-17	2.102196E-17
7.000000E+03	6.575702E-17	2.116772E-17
7.010000E+03	6.549521E-17	2.130907E-17
7.020000E+03	6.523281E-17	2.144030E-17
7.030000E+03	6.497934E-17	2.156467E-17
7.040000E+03	6.474414E-17	2.168552E-17
7.050000E+03	6.450902E-17	2.179699E-17
7.060000E+03	6.429242E-17	2.190546E-17
7.070000E+03	6.407623E-17	2.200498E-17
7.080000E+03	6.386967E-17	2.209885E-17
7.090000E+03	6.368184E-17	2.219039E-17
7.100000E+03	6.349473E-17	2.227354E-17
7.110000E+03	6.331742E-17	2.235158E-17
7.120000E+03	6.315889E-17	2.242784E-17
7.130000E+03	6.300121E-17	2.249613E-17
7.140000E+03	6.285334E-17	2.255974E-17
7.150000E+03	6.272416E-17	2.262199E-17
7.160000E+03	6.259580E-17	2.267657E-17
7.170000E+03	6.247712E-17	2.272677E-17
7.180000E+03	6.236805E-17	2.277265E-17
7.190000E+03	6.227734E-17	2.281751E-17
7.200000E+03	6.218721E-17	2.285493E-17
7.210000E+03	6.210639E-17	2.288816E-17
7.220000E+03	6.203476E-17	2.291723E-17
7.230000E+03	6.197219E-17	2.294214E-17
7.240000E+03	6.191853E-17	2.296289E-17
7.250000E+03	6.188242E-17	2.298271E-17
7.260000E+03	6.184610E-17	2.299505E-17
7.270000E+03	6.181820E-17	2.300312E-17
7.280000E+03	6.179853E-17	2.300686E-17
7.290000E+03	6.178688E-17	2.300622E-17
7.300000E+03	6.178307E-17	2.300111E-17
7.310000E+03	6.178686E-17	2.299144E-17
7.320000E+03	6.179803E-17	2.297711E-17
7.330000E+03	6.181635E-17	2.295801E-17
7.340000E+03	6.184157E-17	2.293401E-17
7.350000E+03	6.187344E-17	2.290498E-17
7.360000E+03	6.191168E-17	2.287079E-17
7.370000E+03	6.195603E-17	2.283128E-17
7.380000E+03	6.200620E-17	2.278630E-17
7.390000E+03	6.206189E-17	2.273566E-17
7.400000E+03	6.212279E-17	2.267920E-17
7.410000E+03	6.218858E-17	2.261672E-17
7.420000E+03	6.225893E-17	2.254804E-17
7.430000E+03	6.232460E-17	2.246974E-17
7.440000E+03	6.240303E-17	2.238805E-17
7.450000E+03	6.248496E-17	2.229953E-17
7.460000E+03	6.257000E-17	2.220396E-17
7.470000E+03	6.265778E-17	2.210111E-17
7.480000E+03	6.274787E-17	2.199076E-17
7.490000E+03	6.283087E-17	2.186953E-17
7.500000E+03	6.292432E-17	2.174346E-17
7.510000E+03	6.301879E-17	2.160916E-17
7.520000E+03	6.311381E-17	2.146639E-17
7.530000E+03	6.319986E-17	2.131184E-17
7.540000E+03	6.329453E-17	2.115140E-17
7.550000E+03	6.338829E-17	2.098175E-17
7.560000E+03	6.347149E-17	2.079965E-17
7.570000E+03	6.356181E-17	2.061085E-17
7.580000E+03	6.364960E-17	2.041210E-17
7.590000E+03	6.372512E-17	2.020026E-17
7.600000E+03	6.380611E-17	1.998094E-17
7.610000E+03	6.387364E-17	1.974815E-17
7.620000E+03	6.394545E-17	1.950737E-17
7.630000E+03	6.401174E-17	1.925553E-17
7.640000E+03	6.406268E-17	1.898971E-17
7.650000E+03	6.411603E-17	1.871524E-17
7.660000E+03	6.415270E-17	1.842652E-17
7.670000E+03	6.419049E-17	1.812876E-17
7.680000E+03	6.421025E-17	1.781657E-17
7.690000E+03	6.422980E-17	1.749503E-17
7.700000E+03	6.422995E-17	1.715896E-17
7.710000E+03	6.421927E-17	1.681090E-17
7.720000E+03	6.420636E-17	1.645318E-17
7.730000E+03	6.417201E-17	1.608101E-17
7.740000E+03	6.413408E-17	1.569913E-17
7.750000E+03	6.407337E-17	1.530303E-17
7.760000E+03	6.399852E-17	1.489514E-17
