#wls	flux	fluxerr
1.600000E+03	3.667499E-18	2.684743E-18
1.640000E+03	3.694027E-18	2.700486E-18
1.680000E+03	3.722186E-18	2.717092E-18
1.720000E+03	3.752093E-18	2.734615E-18
1.760000E+03	3.783873E-18	2.753117E-18
1.800000E+03	3.818334E-18	2.773151E-18
1.840000E+03	3.854958E-18	2.794301E-18
1.880000E+03	3.893900E-18	2.816639E-18
1.920000E+03	3.935329E-18	2.840244E-18
1.960000E+03	3.980124E-18	2.865701E-18
2.000000E+03	4.027794E-18	2.892603E-18
2.040000E+03	4.078551E-18	2.921042E-18
2.080000E+03	4.133344E-18	2.951636E-18
2.120000E+03	4.190980E-18	2.983463E-18
2.160000E+03	4.253177E-18	3.017672E-18
2.200000E+03	4.320251E-18	3.054401E-18
2.240000E+03	4.391781E-18	3.093257E-18
2.280000E+03	4.468100E-18	3.134378E-18
2.320000E+03	4.549572E-18	3.177909E-18
2.360000E+03	4.636588E-18	3.224007E-18
2.400000E+03	4.730388E-18	3.273399E-18
2.440000E+03	4.831477E-18	3.326285E-18
2.480000E+03	4.938711E-18	3.381718E-18
2.520000E+03	5.054316E-18	3.441050E-18
2.560000E+03	5.178056E-18	3.503927E-18
2.600000E+03	5.311486E-18	3.571186E-18
2.640000E+03	5.454450E-18	3.642487E-18
2.680000E+03	5.607726E-18	3.718095E-18
2.720000E+03	5.772162E-18	3.798295E-18
2.760000E+03	5.949694E-18	3.884051E-18
2.800000E+03	6.140398E-18	3.975062E-18
2.840000E+03	6.346469E-18	4.072372E-18
2.880000E+03	6.567051E-18	4.175010E-18
2.920000E+03	6.805689E-18	4.284781E-18
2.960000E+03	7.064021E-18	4.402183E-18
3.000000E+03	7.341413E-18	4.526244E-18
3.010000E+03	7.414441E-18	4.558661E-18
3.020000E+03	7.488883E-18	4.591583E-18
3.030000E+03	7.564773E-18	4.625016E-18
3.040000E+03	7.642142E-18	4.658971E-18
3.050000E+03	7.721024E-18	4.693455E-18
3.060000E+03	7.801455E-18	4.728477E-18
3.070000E+03	7.883468E-18	4.764047E-18
3.080000E+03	7.967102E-18	4.800173E-18
3.090000E+03	8.052393E-18	4.836865E-18
3.100000E+03	8.140726E-18	4.874938E-18
3.110000E+03	8.229460E-18	4.912793E-18
3.120000E+03	8.319969E-18	4.951242E-18
3.130000E+03	8.412294E-18	4.990293E-18
3.140000E+03	8.506477E-18	5.029955E-18
3.150000E+03	8.602563E-18	5.070239E-18
3.160000E+03	8.702028E-18	5.111996E-18
3.170000E+03	8.802067E-18	5.153556E-18
3.180000E+03	8.904145E-18	5.195764E-18
3.190000E+03	9.008309E-18	5.238631E-18
3.200000E+03	9.116107E-18	5.283034E-18
3.210000E+03	9.224609E-18	5.327251E-18
3.220000E+03	9.335348E-18	5.372153E-18
3.230000E+03	9.448377E-18	5.417749E-18
3.240000E+03	9.565319E-18	5.464942E-18
3.250000E+03	9.683109E-18	5.511958E-18
3.260000E+03	9.804960E-18	5.560601E-18
3.270000E+03	9.927738E-18	5.609068E-18
3.280000E+03	1.005309E-17	5.658268E-18
3.290000E+03	1.018273E-17	5.709141E-18
3.300000E+03	1.031343E-17	5.759835E-18
3.310000E+03	1.044859E-17	5.812230E-18
3.320000E+03	1.058489E-17	5.864442E-18
3.330000E+03	1.072408E-17	5.917417E-18
3.340000E+03	1.086798E-17	5.972129E-18
3.350000E+03	1.101317E-17	6.026648E-18
3.360000E+03	1.116326E-17	6.082928E-18
3.370000E+03	1.131472E-17	6.139001E-18
3.380000E+03	1.147128E-17	6.196854E-18
3.390000E+03	1.162930E-17	6.254483E-18
3.400000E+03	1.179263E-17	6.313908E-18
3.410000E+03	1.195946E-17	6.374120E-18
3.420000E+03	1.212791E-17	6.434074E-18
3.430000E+03	1.230197E-17	6.495838E-18
3.440000E+03	1.247775E-17	6.557314E-18
3.450000E+03	1.265936E-17	6.620601E-18
3.460000E+03	1.284280E-17	6.683563E-18
3.470000E+03	1.303227E-17	6.748333E-18
3.480000E+03	1.322583E-17	6.813828E-18
3.490000E+03	1.342138E-17	6.878926E-18
3.500000E+03	1.362331E-17	6.945811E-18
3.510000E+03	1.382957E-17	7.013366E-18
3.520000E+03	1.403800E-17	7.080430E-18
3.530000E+03	1.425315E-17	7.149240E-18
3.540000E+03	1.447290E-17	7.218640E-18
3.550000E+03	1.469497E-17	7.287431E-18
3.560000E+03	1.492413E-17	7.357902E-18
3.570000E+03	1.515815E-17	7.428856E-18
3.580000E+03	1.539464E-17	7.499053E-18
3.590000E+03	1.563858E-17	7.570834E-18
3.600000E+03	1.588764E-17	7.642960E-18
3.610000E+03	1.614189E-17	7.715377E-18
3.620000E+03	1.639880E-17	7.786785E-18
3.630000E+03	1.666365E-17	7.859594E-18
3.640000E+03	1.693394E-17	7.932504E-18
3.650000E+03	1.720975E-17	8.005444E-18
3.660000E+03	1.748837E-17	8.077051E-18
3.670000E+03	1.777539E-17	8.149800E-18
3.680000E+03	1.806815E-17	8.222329E-18
3.690000E+03	1.836672E-17	8.294543E-18
3.700000E+03	1.866819E-17	8.365017E-18
3.710000E+03	1.897851E-17	8.436284E-18
3.720000E+03	1.929480E-17	8.506918E-18
3.730000E+03	1.961713E-17	8.576798E-18
3.740000E+03	1.994553E-17	8.645797E-18
3.750000E+03	2.027685E-17	8.712409E-18
3.760000E+03	2.061746E-17	8.779233E-18
3.770000E+03	2.096425E-17	8.844756E-18
3.780000E+03	2.131723E-17	8.908822E-18
3.790000E+03	2.167642E-17	8.971271E-18
3.800000E+03	2.203835E-17	9.030510E-18
3.810000E+03	2.240988E-17	9.089193E-18
3.820000E+03	2.278760E-17	9.145724E-18
3.830000E+03	2.317148E-17	9.199906E-18
3.840000E+03	2.356147E-17	9.251539E-18
3.850000E+03	2.395378E-17	9.298956E-18
3.860000E+03	2.435579E-17	9.344844E-18
3.870000E+03	2.476373E-17	9.387529E-18
3.880000E+03	2.517751E-17	9.426776E-18
3.890000E+03	2.559304E-17	9.460866E-18
3.900000E+03	2.601812E-17	9.492502E-18
3.910000E+03	2.644868E-17	9.519954E-18
3.920000E+03	2.688458E-17	9.542959E-18
3.930000E+03	2.732564E-17	9.561248E-18
3.940000E+03	2.776736E-17	9.573056E-18
3.950000E+03	2.821810E-17	9.581081E-18
3.960000E+03	2.867338E-17	9.583551E-18
3.970000E+03	2.913297E-17	9.580175E-18
3.980000E+03	2.959199E-17	9.569176E-18
3.990000E+03	3.005928E-17	9.553234E-18
4.000000E+03	3.053000E-17	9.530565E-18
4.010000E+03	3.100383E-17	9.500875E-18
4.020000E+03	3.147553E-17	9.462405E-18
4.030000E+03	3.195439E-17	9.417802E-18
4.040000E+03	3.243523E-17	9.365309E-18
4.050000E+03	3.291761E-17	9.304647E-18
4.060000E+03	3.339593E-17	9.234121E-18
4.070000E+03	3.387997E-17	9.156335E-18
4.080000E+03	3.436415E-17	9.069608E-18
4.090000E+03	3.484260E-17	8.972328E-18
4.100000E+03	3.532544E-17	8.867068E-18
4.110000E+03	3.580682E-17	8.752243E-18
4.120000E+03	3.628061E-17	8.626372E-18
4.130000E+03	3.675730E-17	8.491998E-18
4.140000E+03	3.723078E-17	8.347686E-18
4.150000E+03	3.769465E-17	8.192134E-18
4.160000E+03	3.815979E-17	8.027879E-18
4.170000E+03	3.861985E-17	7.853700E-18
4.180000E+03	3.906822E-17	7.668548E-18
4.190000E+03	3.951613E-17	7.474997E-18
4.200000E+03	3.995093E-17	7.271023E-18
4.210000E+03	4.038414E-17	7.059271E-18
4.220000E+03	4.080285E-17	6.838069E-18
4.230000E+03	4.121883E-17	6.610193E-18
4.240000E+03	4.161898E-17	6.374423E-18
4.250000E+03	4.201534E-17	6.133766E-18
4.260000E+03	4.239461E-17	5.887598E-18
4.270000E+03	4.276910E-17	5.639320E-18
4.280000E+03	4.312537E-17	5.389112E-18
4.290000E+03	4.347600E-17	5.141016E-18
4.300000E+03	4.380743E-17	4.896317E-18
4.310000E+03	4.413250E-17	4.660032E-18
4.320000E+03	4.443757E-17	4.434903E-18
4.330000E+03	4.472899E-17	4.226612E-18
4.340000E+03	4.501334E-17	4.041445E-18
4.350000E+03	4.527686E-17	3.884413E-18
4.360000E+03	4.553307E-17	3.763212E-18
4.370000E+03	4.576817E-17	3.682823E-18
4.380000E+03	4.598896E-17	3.648824E-18
4.390000E+03	4.619544E-17	3.664254E-18
4.400000E+03	4.639458E-17	3.729851E-18
4.410000E+03	4.657240E-17	3.841842E-18
4.420000E+03	4.673586E-17	3.996183E-18
4.430000E+03	4.688500E-17	4.187140E-18
4.440000E+03	4.702698E-17	4.409260E-18
4.450000E+03	4.714782E-17	4.655324E-18
4.460000E+03	4.725477E-17	4.920549E-18
4.470000E+03	4.734807E-17	5.200188E-18
4.480000E+03	4.742803E-17	5.490176E-18
4.490000E+03	4.749500E-17	5.787088E-18
4.500000E+03	4.754937E-17	6.088061E-18
4.510000E+03	4.759160E-17	6.390713E-18
4.520000E+03	4.762929E-17	6.694066E-18
4.530000E+03	4.764872E-17	6.994518E-18
4.540000E+03	4.765758E-17	7.291665E-18
4.550000E+03	4.765647E-17	7.584379E-18
4.560000E+03	4.763890E-17	7.870554E-18
4.570000E+03	4.761974E-17	8.151730E-18
4.580000E+03	4.759254E-17	8.426150E-18
4.590000E+03	4.755798E-17	8.693307E-18
4.600000E+03	4.751677E-17	8.952798E-18
4.610000E+03	4.746961E-17	9.204309E-18
4.620000E+03	4.741720E-17	9.447600E-18
4.630000E+03	4.736027E-17	9.682500E-18
4.640000E+03	4.729249E-17	9.907426E-18
4.650000E+03	4.722866E-17	1.012522E-17
4.660000E+03	4.716242E-17	1.033444E-17
4.670000E+03	4.709448E-17	1.053508E-17
4.680000E+03	4.701856E-17	1.072562E-17
4.690000E+03	4.694928E-17	1.090929E-17
4.700000E+03	4.687338E-17	1.108299E-17
4.710000E+03	4.680541E-17	1.125010E-17
4.720000E+03	4.673903E-17	1.140914E-17
4.730000E+03	4.666797E-17	1.155856E-17
4.740000E+03	4.660661E-17	1.170192E-17
4.750000E+03	4.654177E-17	1.183596E-17
4.760000E+03	4.648774E-17	1.196432E-17
4.770000E+03	4.643133E-17	1.208368E-17
4.780000E+03	4.638675E-17	1.219778E-17
4.790000E+03	4.634082E-17	1.230320E-17
4.800000E+03	4.630085E-17	1.240191E-17
4.810000E+03	4.627409E-17	1.249593E-17
4.820000E+03	4.624734E-17	1.258175E-17
4.830000E+03	4.622782E-17	1.266138E-17
4.840000E+03	4.622270E-17	1.273682E-17
4.850000E+03	4.621876E-17	1.280450E-17
4.860000E+03	4.622312E-17	1.286640E-17
4.870000E+03	4.623609E-17	1.292264E-17
4.880000E+03	4.625798E-17	1.297334E-17
4.890000E+03	4.629584E-17	1.302050E-17
4.900000E+03	4.633634E-17	1.306038E-17
4.910000E+03	4.638649E-17	1.309496E-17
4.920000E+03	4.644651E-17	1.312429E-17
4.930000E+03	4.651657E-17	1.314840E-17
4.940000E+03	4.659683E-17	1.316732E-17
4.950000E+03	4.668743E-17	1.318103E-17
4.960000E+03	4.678848E-17	1.318955E-17
4.970000E+03	4.690008E-17	1.319282E-17
4.980000E+03	4.702230E-17	1.319081E-17
4.990000E+03	4.714830E-17	1.318153E-17
5.000000E+03	4.729185E-17	1.316875E-17
5.010000E+03	4.744608E-17	1.315044E-17
5.020000E+03	4.761097E-17	1.312649E-17
5.030000E+03	4.778646E-17	1.309677E-17
5.040000E+03	4.796549E-17	1.305924E-17
5.050000E+03	4.816191E-17	1.301753E-17
5.060000E+03	4.836861E-17	1.296957E-17
5.070000E+03	4.857839E-17	1.291329E-17
5.080000E+03	4.880515E-17	1.285224E-17
5.090000E+03	4.904164E-17	1.278433E-17
5.100000E+03	4.928046E-17	1.270748E-17
5.110000E+03	4.953563E-17	1.262515E-17
5.120000E+03	4.979249E-17	1.253342E-17
5.130000E+03	5.006512E-17	1.243570E-17
5.140000E+03	5.033867E-17	1.232810E-17
5.150000E+03	5.061996E-17	1.221218E-17
5.160000E+03	5.091596E-17	1.208944E-17
5.170000E+03	5.121149E-17	1.195610E-17
5.180000E+03	5.151339E-17	1.181367E-17
5.190000E+03	5.182866E-17	1.166361E-17
5.200000E+03	5.214179E-17	1.150228E-17
5.210000E+03	5.245966E-17	1.133118E-17
5.220000E+03	5.278167E-17	1.115012E-17
5.230000E+03	5.311489E-17	1.096053E-17
5.240000E+03	5.344335E-17	1.075907E-17
5.250000E+03	5.377400E-17	1.054726E-17
5.260000E+03	5.410618E-17	1.032507E-17
5.270000E+03	5.443916E-17	1.009250E-17
5.280000E+03	5.477224E-17	9.849641E-18
5.290000E+03	5.510468E-17	9.596658E-18
5.300000E+03	5.543576E-17	9.333806E-18
5.310000E+03	5.576474E-17	9.061459E-18
5.320000E+03	5.609089E-17	8.780120E-18
5.330000E+03	5.641348E-17	8.490455E-18
5.340000E+03	5.673181E-17	8.193320E-18
5.350000E+03	5.704516E-17	7.889799E-18
5.360000E+03	5.734462E-17	7.580159E-18
5.370000E+03	5.764602E-17	7.268323E-18
5.380000E+03	5.794052E-17	6.955251E-18
5.390000E+03	5.822757E-17	6.643523E-18
5.400000E+03	5.849819E-17	6.335389E-18
5.410000E+03	5.876873E-17	6.036570E-18
5.420000E+03	5.903037E-17	5.750754E-18
5.430000E+03	5.927421E-17	5.482670E-18
5.440000E+03	5.951695E-17	5.240344E-18
5.450000E+03	5.974127E-17	5.029424E-18
5.460000E+03	5.996410E-17	4.859062E-18
5.470000E+03	6.016810E-17	4.735417E-18
5.480000E+03	6.037044E-17	4.666548E-18
5.490000E+03	6.055374E-17	4.655923E-18
5.500000E+03	6.073530E-17	4.706809E-18
5.510000E+03	6.089753E-17	4.816078E-18
5.520000E+03	6.105775E-17	4.980610E-18
5.530000E+03	6.119833E-17	5.192725E-18
5.540000E+03	6.132795E-17	5.445970E-18
5.550000E+03	6.145542E-17	5.733938E-18
5.560000E+03	6.156317E-17	6.048228E-18
5.570000E+03	6.166013E-17	6.383532E-18
5.580000E+03	6.174649E-17	6.734564E-18
5.590000E+03	6.182248E-17	7.096827E-18
5.600000E+03	6.189731E-17	7.467607E-18
5.610000E+03	6.195359E-17	7.841658E-18
5.620000E+03	6.200062E-17	8.217365E-18
5.630000E+03	6.203889E-17	8.592540E-18
5.640000E+03	6.206893E-17	8.965364E-18
5.650000E+03	6.209130E-17	9.334325E-18
5.660000E+03	6.210662E-17	9.698169E-18
5.670000E+03	6.211554E-17	1.005585E-17
5.680000E+03	6.211872E-17	1.040652E-17
5.690000E+03	6.211686E-17	1.074947E-17
5.700000E+03	6.211067E-17	1.108412E-17
5.710000E+03	6.210089E-17	1.141001E-17
5.720000E+03	6.208825E-17	1.172677E-17
5.730000E+03	6.206462E-17	1.203239E-17
5.740000E+03	6.204850E-17	1.233005E-17
5.750000E+03	6.203175E-17	1.261792E-17
5.760000E+03	6.201511E-17	1.289589E-17
5.770000E+03	6.199044E-17	1.316203E-17
5.780000E+03	6.197619E-17	1.342003E-17
5.790000E+03	6.196419E-17	1.366807E-17
5.800000E+03	6.194625E-17	1.390418E-17
5.810000E+03	6.194077E-17	1.413237E-17
5.820000E+03	6.193953E-17	1.435076E-17
5.830000E+03	6.193428E-17	1.455736E-17
5.840000E+03	6.194332E-17	1.475638E-17
5.850000E+03	6.194952E-17	1.494376E-17
5.860000E+03	6.197112E-17	1.512384E-17
5.870000E+03	6.199091E-17	1.529242E-17
5.880000E+03	6.202710E-17	1.545397E-17
5.890000E+03	6.206240E-17	1.560418E-17
5.900000E+03	6.211498E-17	1.574759E-17
5.910000E+03	6.216746E-17	1.587980E-17
5.920000E+03	6.223797E-17	1.600541E-17
5.930000E+03	6.230905E-17	1.611991E-17
5.940000E+03	6.238987E-17	1.622563E-17
5.950000E+03	6.248961E-17	1.632493E-17
5.960000E+03	6.259066E-17	1.641318E-17
5.970000E+03	6.270211E-17	1.649270E-17
5.980000E+03	6.282412E-17	1.656347E-17
5.990000E+03	6.296580E-17	1.662782E-17
6.000000E+03	6.310926E-17	1.668097E-17
6.010000E+03	6.326353E-17	1.672519E-17
6.020000E+03	6.342863E-17	1.676040E-17
6.030000E+03	6.360453E-17	1.678648E-17
6.040000E+03	6.380028E-17	1.680568E-17
6.050000E+03	6.399760E-17	1.681306E-17
6.060000E+03	6.420544E-17	1.681084E-17
6.070000E+03	6.442363E-17	1.679881E-17
6.080000E+03	6.465197E-17	1.677676E-17
6.090000E+03	6.489021E-17	1.674446E-17
6.100000E+03	6.513808E-17	1.670164E-17
6.110000E+03	6.539526E-17	1.664804E-17
6.120000E+03	6.566139E-17	1.658338E-17
6.130000E+03	6.593607E-17	1.650735E-17
6.140000E+03	6.621888E-17	1.641963E-17
6.150000E+03	6.650935E-17	1.631991E-17
6.160000E+03	6.680696E-17	1.620784E-17
6.170000E+03	6.711116E-17	1.608308E-17
6.180000E+03	6.741175E-17	1.594300E-17
6.190000E+03	6.772731E-17	1.579184E-17
6.200000E+03	6.804761E-17	1.562694E-17
6.210000E+03	6.837195E-17	1.544797E-17
6.220000E+03	6.869961E-17	1.525457E-17
6.230000E+03	6.901996E-17	1.504428E-17
6.240000E+03	6.935189E-17	1.482111E-17
6.250000E+03	6.968478E-17	1.458260E-17
6.260000E+03	7.001779E-17	1.432847E-17
6.270000E+03	7.033998E-17	1.405649E-17
6.280000E+03	7.067054E-17	1.377051E-17
6.290000E+03	7.099856E-17	1.346834E-17
6.300000E+03	7.131293E-17	1.314801E-17
6.310000E+03	7.163307E-17	1.281328E-17
6.320000E+03	7.194790E-17	1.246227E-17
6.330000E+03	7.224616E-17	1.209338E-17
6.340000E+03	7.254756E-17	1.171036E-17
6.350000E+03	7.283047E-17	1.131016E-17
6.360000E+03	7.311480E-17	1.089657E-17
6.370000E+03	7.337880E-17	1.046710E-17
6.380000E+03	7.364258E-17	1.002570E-17
6.390000E+03	7.388431E-17	9.570582E-18
6.400000E+03	7.412432E-17	9.106039E-18
6.410000E+03	7.434073E-17	8.631289E-18
6.420000E+03	7.455410E-17	8.151290E-18
6.430000E+03	7.474253E-17	7.666743E-18
6.440000E+03	7.492682E-17	7.183907E-18
6.450000E+03	7.508508E-17	6.705827E-18
6.460000E+03	7.522760E-17	6.240307E-18
6.470000E+03	7.536483E-17	5.796869E-18
6.480000E+03	7.547495E-17	5.384954E-18
6.490000E+03	7.556854E-17	5.019440E-18
6.500000E+03	7.565628E-17	4.717695E-18
6.510000E+03	7.571647E-17	4.496595E-18
6.520000E+03	7.575989E-17	4.373985E-18
6.530000E+03	7.579742E-17	4.362492E-18
6.540000E+03	7.580730E-17	4.463297E-18
6.550000E+03	7.580023E-17	4.668767E-18
6.560000E+03	7.577609E-17	4.963921E-18
6.570000E+03	7.574566E-17	5.331962E-18
6.580000E+03	7.568720E-17	5.754499E-18
6.590000E+03	7.561162E-17	6.217619E-18
6.600000E+03	7.551903E-17	6.709435E-18
6.610000E+03	7.540961E-17	7.220585E-18
6.620000E+03	7.528361E-17	7.743793E-18
6.630000E+03	7.515216E-17	8.274606E-18
6.640000E+03	7.499406E-17	8.806344E-18
6.650000E+03	7.482058E-17	9.336685E-18
6.660000E+03	7.463226E-17	9.862927E-18
6.670000E+03	7.442966E-17	1.038293E-17
6.680000E+03	7.421343E-17	1.089499E-17
6.690000E+03	7.398424E-17	1.139774E-17
6.700000E+03	7.374282E-17	1.189010E-17
6.710000E+03	7.348992E-17	1.237121E-17
6.720000E+03	7.322632E-17	1.284039E-17
6.730000E+03	7.295282E-17	1.329711E-17
6.740000E+03	7.267026E-17	1.374098E-17
6.750000E+03	7.237947E-17	1.417170E-17
6.760000E+03	7.208128E-17	1.458910E-17
6.770000E+03	7.177654E-17	1.499305E-17
6.780000E+03	7.146610E-17	1.538351E-17
6.790000E+03	7.115078E-17	1.576051E-17
6.800000E+03	7.083142E-17	1.612411E-17
6.810000E+03	7.050882E-17	1.647443E-17
6.820000E+03	7.017370E-17	1.680921E-17
6.830000E+03	6.984705E-17	1.713344E-17
6.840000E+03	6.951950E-17	1.744496E-17
6.850000E+03	6.919178E-17	1.774403E-17
6.860000E+03	6.886459E-17	1.803091E-17
6.870000E+03	6.853862E-17	1.830589E-17
6.880000E+03	6.820470E-17	1.856659E-17
6.890000E+03	6.788314E-17	1.881864E-17
6.900000E+03	6.756467E-17	1.905972E-17
6.910000E+03	6.724985E-17	1.929017E-17
6.920000E+03	6.692958E-17	1.950749E-17
6.930000E+03	6.662370E-17	1.971760E-17
6.940000E+03	6.632298E-17	1.991808E-17
6.950000E+03	6.602788E-17	2.010923E-17
6.960000E+03	6.572933E-17	2.028846E-17
6.970000E+03	6.544672E-17	2.046193E-17
6.980000E+03	6.517089E-17	2.062703E-17
6.990000E+03	6.489280E-17	2.078109E-17
7.000000E+03	6.463152E-17	2.093037E-17
7.010000E+03	6.436864E-17	2.106914E-17
7.020000E+03	6.412302E-17	2.120376E-17
7.030000E+03	6.388556E-17	2.133145E-17
7.040000E+03	6.364727E-17	2.144940E-17
7.050000E+03	6.342674E-17	2.156400E-17
7.060000E+03	6.320578E-17	2.166930E-17
7.070000E+03	6.300281E-17	2.177175E-17
7.080000E+03	6.279970E-17	2.186529E-17
7.090000E+03	6.261473E-17	2.195642E-17
7.100000E+03	6.242984E-17	2.203898E-17
7.110000E+03	6.226316E-17	2.211950E-17
7.120000E+03	6.209669E-17	2.219175E-17
7.130000E+03	6.194845E-17	2.226228E-17
7.140000E+03	6.180048E-17	2.232479E-17
7.150000E+03	6.167068E-17	2.238584E-17
7.160000E+03	6.154116E-17	2.243906E-17
7.170000E+03	6.142970E-17	2.249102E-17
7.180000E+03	6.131844E-17	2.253530E-17
7.190000E+03	6.121623E-17	2.257520E-17
7.200000E+03	6.113182E-17	2.261405E-17
7.210000E+03	6.104740E-17	2.264533E-17
7.220000E+03	6.098058E-17	2.267563E-17
7.230000E+03	6.091353E-17	2.269837E-17
7.240000E+03	6.085497E-17	2.271685E-17
7.250000E+03	6.080477E-17	2.273104E-17
7.260000E+03	6.077158E-17	2.274422E-17
7.270000E+03	6.073760E-17	2.274975E-17
7.280000E+03	6.071147E-17	2.275088E-17
7.290000E+03	6.070183E-17	2.275084E-17
7.300000E+03	6.069085E-17	2.274296E-17
7.310000E+03	6.068713E-17	2.273046E-17
7.320000E+03	6.069046E-17	2.271325E-17
7.330000E+03	6.070061E-17	2.269120E-17
7.340000E+03	6.072618E-17	2.266752E-17
7.350000E+03	6.074925E-17	2.263547E-17
7.360000E+03	6.077841E-17	2.259822E-17
7.370000E+03	6.081337E-17	2.255562E-17
7.380000E+03	6.085386E-17	2.250752E-17
7.390000E+03	6.089960E-17	2.245377E-17
7.400000E+03	6.095026E-17	2.239418E-17
7.410000E+03	6.101444E-17	2.233184E-17
7.420000E+03	6.107404E-17	2.226004E-17
7.430000E+03	6.113760E-17	2.218185E-17
7.440000E+03	6.120478E-17	2.209707E-17
7.450000E+03	6.127520E-17	2.200550E-17
7.460000E+03	6.134850E-17	2.190691E-17
7.470000E+03	6.142430E-17	2.180110E-17
7.480000E+03	6.150218E-17	2.168784E-17
7.490000E+03	6.158173E-17	2.156690E-17
7.500000E+03	6.166254E-17	2.143805E-17
7.510000E+03	6.174415E-17	2.130107E-17
7.520000E+03	6.182611E-17	2.115572E-17
7.530000E+03	6.190795E-17	2.100175E-17
7.540000E+03	6.198918E-17	2.083893E-17
7.550000E+03	6.206024E-17	2.066401E-17
7.560000E+03	6.213875E-17	2.048283E-17
7.570000E+03	6.221511E-17	2.029209E-17
7.580000E+03	6.228880E-17	2.009158E-17
7.590000E+03	6.235924E-17	1.988107E-17
7.600000E+03	6.242589E-17	1.966035E-17
7.610000E+03	6.248816E-17	1.942921E-17
7.620000E+03	6.253628E-17	1.918463E-17
7.630000E+03	6.258798E-17	1.893209E-17
7.640000E+03	6.263350E-17	1.866857E-17
7.650000E+03	6.267220E-17	1.839390E-17
7.660000E+03	6.269426E-17	1.810529E-17
7.670000E+03	6.271744E-17	1.780795E-17
7.680000E+03	6.273190E-17	1.749909E-17
7.690000E+03	6.273699E-17	1.717861E-17
7.700000E+03	6.272286E-17	1.684397E-17
7.710000E+03	6.270728E-17	1.650015E-17
7.720000E+03	6.268041E-17	1.614460E-17
7.730000E+03	6.263238E-17	1.577503E-17
7.740000E+03	6.258101E-17	1.539618E-17
7.750000E+03	6.251646E-17	1.500576E-17
7.760000E+03	6.242892E-17	1.460176E-17
