#wls	flux	fluxerr
1.548287E+03	1.652479E-17	6.846410E-19
1.586994E+03	1.808146E-17	7.337998E-19
1.625702E+03	1.947179E-17	7.735019E-19
1.664409E+03	2.059993E-17	8.004150E-19
1.703116E+03	2.136928E-17	8.115293E-19
1.741823E+03	2.166937E-17	8.036812E-19
1.780530E+03	2.140608E-17	7.747176E-19
1.819237E+03	2.053352E-17	7.245554E-19
1.857945E+03	1.908271E-17	6.559485E-19
1.896652E+03	1.721295E-17	5.758550E-19
1.935359E+03	1.523184E-17	4.954864E-19
1.974066E+03	1.360098E-17	4.297858E-19
2.012773E+03	1.286268E-17	3.944427E-19
2.051481E+03	1.342175E-17	3.990147E-19
2.090188E+03	1.539860E-17	4.433370E-19
2.128895E+03	1.891373E-17	5.267923E-19
2.167602E+03	2.418101E-17	6.508421E-19
2.206309E+03	3.128341E-17	8.127916E-19
2.245016E+03	3.988488E-17	9.992194E-19
2.283724E+03	4.911110E-17	1.185070E-18
2.322431E+03	5.768227E-17	1.339191E-18
2.361138E+03	6.431385E-17	1.435059E-18
2.399845E+03	6.820778E-17	1.461185E-18
2.438552E+03	6.945985E-17	1.427163E-18
2.477260E+03	6.950468E-17	1.368413E-18
2.515967E+03	7.159810E-17	1.349610E-18
2.554674E+03	7.958950E-17	1.435388E-18
2.593381E+03	9.501245E-17	1.638643E-18
2.632088E+03	1.161860E-16	1.915728E-18
2.670795E+03	1.406840E-16	2.217740E-18
2.709503E+03	1.664560E-16	2.509475E-18
2.748210E+03	1.917865E-16	2.765879E-18
2.786917E+03	2.153207E-16	2.970712E-18
2.825624E+03	2.361075E-16	3.115819E-18
2.864331E+03	2.536161E-16	3.199984E-18
2.903039E+03	2.676835E-16	3.227129E-18
2.912715E+03	2.706792E-16	3.225889E-18
2.922392E+03	2.734638E-16	3.221582E-18
2.932069E+03	2.760530E-16	3.214476E-18
2.941746E+03	2.784498E-16	3.204687E-18
2.951422E+03	2.806863E-16	3.192659E-18
2.961099E+03	2.827950E-16	3.178825E-18
2.970776E+03	2.847610E-16	3.163074E-18
2.980453E+03	2.866001E-16	3.145640E-18
2.990130E+03	2.882984E-16	3.126429E-18
2.999806E+03	2.898660E-16	3.105611E-18
3.009483E+03	2.912958E-16	3.083173E-18
3.019160E+03	2.925869E-16	3.059167E-18
3.028837E+03	2.937499E-16	3.033769E-18
3.038514E+03	2.947770E-16	3.006963E-18
3.048190E+03	2.956944E-16	2.979081E-18
3.057867E+03	2.965075E-16	2.950236E-18
3.067544E+03	2.972270E-16	2.920591E-18
3.077221E+03	2.978367E-16	2.890049E-18
3.086898E+03	2.983423E-16	2.858727E-18
3.096574E+03	2.987337E-16	2.826596E-18
3.106251E+03	2.990126E-16	2.793741E-18
3.115928E+03	2.991748E-16	2.760197E-18
3.125605E+03	2.992176E-16	2.726012E-18
3.135282E+03	2.991334E-16	2.691197E-18
3.144958E+03	2.989311E-16	2.655911E-18
3.154635E+03	2.986048E-16	2.620182E-18
3.164312E+03	2.981602E-16	2.584144E-18
3.173989E+03	2.975941E-16	2.547850E-18
3.183666E+03	2.969107E-16	2.511419E-18
3.193342E+03	2.961199E-16	2.475018E-18
3.203019E+03	2.952251E-16	2.438753E-18
3.212696E+03	2.942415E-16	2.402827E-18
3.222373E+03	2.931828E-16	2.367425E-18
3.232050E+03	2.920580E-16	2.332688E-18
3.241726E+03	2.908974E-16	2.298923E-18
3.251403E+03	2.897231E-16	2.266359E-18
3.261080E+03	2.885671E-16	2.235297E-18
3.270757E+03	2.874662E-16	2.206063E-18
3.280434E+03	2.864540E-16	2.178948E-18
3.290110E+03	2.855835E-16	2.154382E-18
3.299787E+03	2.848944E-16	2.132682E-18
3.309464E+03	2.844197E-16	2.114111E-18
3.319141E+03	2.841754E-16	2.098799E-18
3.328817E+03	2.841305E-16	2.086537E-18
3.338494E+03	2.841469E-16	2.076336E-18
3.348171E+03	2.839167E-16	2.065993E-18
3.357848E+03	2.828149E-16	2.050980E-18
3.367525E+03	2.801887E-16	2.026544E-18
3.377201E+03	2.767876E-16	1.998056E-18
3.386878E+03	2.734230E-16	1.971261E-18
3.396555E+03	2.705290E-16	1.949148E-18
3.406232E+03	2.683119E-16	1.933068E-18
3.415909E+03	2.668389E-16	1.923386E-18
3.425585E+03	2.661034E-16	1.919955E-18
3.435262E+03	2.660699E-16	1.922436E-18
3.444939E+03	2.666960E-16	1.930452E-18
3.454616E+03	2.679569E-16	1.943766E-18
3.464293E+03	2.698534E-16	1.962335E-18
3.473969E+03	2.724338E-16	1.986467E-18
3.483646E+03	2.757222E-16	2.016309E-18
3.493323E+03	2.795284E-16	2.050433E-18
3.503000E+03	2.835647E-16	2.086688E-18
3.512677E+03	2.875863E-16	2.123207E-18
3.522353E+03	2.913961E-16	2.158457E-18
3.532030E+03	2.948721E-16	2.191436E-18
3.541707E+03	2.979487E-16	2.221557E-18
3.551384E+03	3.006060E-16	2.248565E-18
3.561061E+03	3.028643E-16	2.272508E-18
3.570737E+03	3.047694E-16	2.293632E-18
3.580414E+03	3.063779E-16	2.312270E-18
3.590091E+03	3.077581E-16	2.328855E-18
3.599768E+03	3.089702E-16	2.343767E-18
3.609445E+03	3.100746E-16	2.357397E-18
3.619121E+03	3.111119E-16	2.369994E-18
3.628798E+03	3.121073E-16	2.381693E-18
3.638475E+03	3.130721E-16	2.392531E-18
3.648152E+03	3.140030E-16	2.402434E-18
3.657829E+03	3.148755E-16	2.411170E-18
3.667505E+03	3.156568E-16	2.418448E-18
3.677182E+03	3.162994E-16	2.423865E-18
3.686859E+03	3.167570E-16	2.427032E-18
3.696536E+03	3.169948E-16	2.427656E-18
3.706213E+03	3.169941E-16	2.425571E-18
3.715889E+03	3.167468E-16	2.420702E-18
3.725566E+03	3.162640E-16	2.413125E-18
3.735243E+03	3.155563E-16	2.402921E-18
3.744920E+03	3.146552E-16	2.390336E-18
3.754596E+03	3.135884E-16	2.375589E-18
3.764273E+03	3.124022E-16	2.359045E-18
3.773950E+03	3.111366E-16	2.341022E-18
3.783627E+03	3.098315E-16	2.321839E-18
3.793304E+03	3.085146E-16	2.301718E-18
3.802980E+03	3.072010E-16	2.280793E-18
3.812657E+03	3.058868E-16	2.259053E-18
3.822334E+03	3.045528E-16	2.236381E-18
3.832011E+03	3.031564E-16	2.212496E-18
3.841688E+03	3.016475E-16	2.187070E-18
3.851364E+03	2.999683E-16	2.159737E-18
3.861041E+03	2.980757E-16	2.130253E-18
3.870718E+03	2.959488E-16	2.098544E-18
3.880395E+03	2.936065E-16	2.064828E-18
3.890072E+03	2.911123E-16	2.029637E-18
3.899748E+03	2.885672E-16	1.993750E-18
3.909425E+03	2.860716E-16	1.957919E-18
3.919102E+03	2.837480E-16	1.923026E-18
3.928779E+03	2.817034E-16	1.889814E-18
3.938456E+03	2.800025E-16	1.858718E-18
3.948132E+03	2.786792E-16	1.829951E-18
3.957809E+03	2.777320E-16	1.803489E-18
3.967486E+03	2.771060E-16	1.778966E-18
3.977163E+03	2.767198E-16	1.755867E-18
3.986840E+03	2.764881E-16	1.733680E-18
3.996516E+03	2.763103E-16	1.711831E-18
4.006193E+03	2.761041E-16	1.689890E-18
4.015870E+03	2.758077E-16	1.667587E-18
4.025547E+03	2.753831E-16	1.644813E-18
4.035224E+03	2.748248E-16	1.621671E-18
4.044900E+03	2.741472E-16	1.598383E-18
4.054577E+03	2.733689E-16	1.575199E-18
4.064254E+03	2.725201E-16	1.552431E-18
4.073931E+03	2.716481E-16	1.530483E-18
4.083608E+03	2.707930E-16	1.509709E-18
4.093284E+03	2.700006E-16	1.490490E-18
4.102961E+03	2.693111E-16	1.473166E-18
4.112638E+03	2.687557E-16	1.458027E-18
4.122315E+03	2.683496E-16	1.445271E-18
4.131991E+03	2.680978E-16	1.435043E-18
4.141668E+03	2.679969E-16	1.427444E-18
4.151345E+03	2.680334E-16	1.422525E-18
4.161022E+03	2.682024E-16	1.420379E-18
4.170699E+03	2.685548E-16	1.421393E-18
4.180375E+03	2.691484E-16	1.425986E-18
4.190052E+03	2.700402E-16	1.434523E-18
4.199729E+03	2.713229E-16	1.447456E-18
4.209406E+03	2.730232E-16	1.464880E-18
4.219083E+03	2.749755E-16	1.485857E-18
4.228759E+03	2.768724E-16	1.508654E-18
4.238436E+03	2.786850E-16	1.533007E-18
4.248113E+03	2.801509E-16	1.557337E-18
4.257790E+03	2.811440E-16	1.580757E-18
4.267467E+03	2.817393E-16	1.603471E-18
4.277143E+03	2.819927E-16	1.625584E-18
4.286820E+03	2.819994E-16	1.647438E-18
4.296497E+03	2.818446E-16	1.669342E-18
4.306174E+03	2.815997E-16	1.691549E-18
4.315851E+03	2.813477E-16	1.714411E-18
4.325527E+03	2.811520E-16	1.738193E-18
4.335204E+03	2.810397E-16	1.762963E-18
4.344881E+03	2.809947E-16	1.788528E-18
4.354558E+03	2.809821E-16	1.814578E-18
4.364235E+03	2.809585E-16	1.840737E-18
4.373911E+03	2.808925E-16	1.866701E-18
4.383588E+03	2.807637E-16	1.892234E-18
4.393265E+03	2.805586E-16	1.917144E-18
4.402942E+03	2.802843E-16	1.941383E-18
4.412619E+03	2.799520E-16	1.964940E-18
4.422295E+03	2.795753E-16	1.987829E-18
4.431972E+03	2.791547E-16	2.009982E-18
4.441649E+03	2.786891E-16	2.031322E-18
4.451326E+03	2.781586E-16	2.051639E-18
4.461003E+03	2.775365E-16	2.070671E-18
4.470679E+03	2.767737E-16	2.087980E-18
4.480356E+03	2.758214E-16	2.103122E-18
4.490033E+03	2.746439E-16	2.115742E-18
4.499710E+03	2.732066E-16	2.125489E-18
4.509386E+03	2.714772E-16	2.132025E-18
4.519063E+03	2.694849E-16	2.135503E-18
4.528740E+03	2.672604E-16	2.136097E-18
4.538417E+03	2.648376E-16	2.134025E-18
4.548094E+03	2.623006E-16	2.129930E-18
4.557770E+03	2.597243E-16	2.124403E-18
4.567447E+03	2.571709E-16	2.117951E-18
4.577124E+03	2.546965E-16	2.111052E-18
4.586801E+03	2.523491E-16	2.104125E-18
4.596478E+03	2.501555E-16	2.097421E-18
4.606154E+03	2.481424E-16	2.091196E-18
4.615831E+03	2.463251E-16	2.085612E-18
4.625508E+03	2.447130E-16	2.080779E-18
4.635185E+03	2.432941E-16	2.076626E-18
4.644862E+03	2.420525E-16	2.073041E-18
4.654538E+03	2.409698E-16	2.069888E-18
4.664215E+03	2.400217E-16	2.066978E-18
4.673892E+03	2.391814E-16	2.064090E-18
4.683569E+03	2.384224E-16	2.061010E-18
4.693246E+03	2.377358E-16	2.057668E-18
4.702922E+03	2.371096E-16	2.053971E-18
4.712599E+03	2.365321E-16	2.049824E-18
4.722276E+03	2.360116E-16	2.045306E-18
4.731953E+03	2.355579E-16	2.040510E-18
4.741630E+03	2.351700E-16	2.035434E-18
4.751306E+03	2.348627E-16	2.030212E-18
4.760983E+03	2.346393E-16	2.024878E-18
4.770660E+03	2.344954E-16	2.019399E-18
4.780337E+03	2.344308E-16	2.013778E-18
4.790014E+03	2.344390E-16	2.007961E-18
4.799690E+03	2.345087E-16	2.001857E-18
4.809367E+03	2.346343E-16	1.995422E-18
4.819044E+03	2.348040E-16	1.988561E-18
4.828721E+03	2.350153E-16	1.981259E-18
4.838398E+03	2.352606E-16	1.973460E-18
4.848074E+03	2.355316E-16	1.965103E-18
4.857751E+03	2.358202E-16	1.956132E-18
4.867428E+03	2.361081E-16	1.946409E-18
4.877105E+03	2.363747E-16	1.935783E-18
4.886781E+03	2.365962E-16	1.924083E-18
4.896458E+03	2.367483E-16	1.911143E-18
4.906135E+03	2.368058E-16	1.896798E-18
4.915812E+03	2.367555E-16	1.880987E-18
4.925489E+03	2.365925E-16	1.863723E-18
4.935165E+03	2.363220E-16	1.845099E-18
4.944842E+03	2.359504E-16	1.825227E-18
4.954519E+03	2.354916E-16	1.804271E-18
4.964196E+03	2.349494E-16	1.782321E-18
4.973873E+03	2.343293E-16	1.759482E-18
4.983549E+03	2.336200E-16	1.735734E-18
4.993226E+03	2.328097E-16	1.711062E-18
5.002903E+03	2.318798E-16	1.685407E-18
5.012580E+03	2.308134E-16	1.658734E-18
5.022257E+03	2.296026E-16	1.631078E-18
5.031933E+03	2.282443E-16	1.602513E-18
5.041610E+03	2.267560E-16	1.573263E-18
5.051287E+03	2.251676E-16	1.543630E-18
5.060964E+03	2.235135E-16	1.513940E-18
5.070641E+03	2.218361E-16	1.484564E-18
5.080317E+03	2.201796E-16	1.455869E-18
5.089994E+03	2.185889E-16	1.428218E-18
5.099671E+03	2.170918E-16	1.401851E-18
5.109348E+03	2.157152E-16	1.376993E-18
5.119025E+03	2.144831E-16	1.353850E-18
5.128701E+03	2.134066E-16	1.332540E-18
5.138378E+03	2.124939E-16	1.313165E-18
5.148055E+03	2.117448E-16	1.295778E-18
5.157732E+03	2.111434E-16	1.280342E-18
5.167409E+03	2.106612E-16	1.266747E-18
5.177085E+03	2.102547E-16	1.254808E-18
5.186762E+03	2.098460E-16	1.244139E-18
5.196439E+03	2.093525E-16	1.234339E-18
5.206116E+03	2.087078E-16	1.225107E-18
5.215793E+03	2.078802E-16	1.216338E-18
5.225469E+03	2.068771E-16	1.208147E-18
5.235146E+03	2.057926E-16	1.201118E-18
5.244823E+03	2.048249E-16	1.196358E-18
5.254500E+03	2.042145E-16	1.195194E-18
5.264177E+03	2.040938E-16	1.198334E-18
5.273853E+03	2.044300E-16	1.205534E-18
5.283530E+03	2.050591E-16	1.215783E-18
5.293207E+03	2.057757E-16	1.227808E-18
5.302884E+03	2.063140E-16	1.239949E-18
5.312560E+03	2.063955E-16	1.250415E-18
5.322237E+03	2.058517E-16	1.258024E-18
5.331914E+03	2.048460E-16	1.263589E-18
5.341591E+03	2.035670E-16	1.268110E-18
5.351268E+03	2.021693E-16	1.272412E-18
5.360944E+03	2.007504E-16	1.277000E-18
5.370621E+03	1.993787E-16	1.282220E-18
5.380298E+03	1.981006E-16	1.288304E-18
5.389975E+03	1.969356E-16	1.295324E-18
5.399652E+03	1.958902E-16	1.303276E-18
5.409328E+03	1.949773E-16	1.312212E-18
5.419005E+03	1.941862E-16	1.322030E-18
5.428682E+03	1.935141E-16	1.332685E-18
5.438359E+03	1.929582E-16	1.344136E-18
5.448036E+03	1.924899E-16	1.356166E-18
5.457712E+03	1.920870E-16	1.368595E-18
5.467389E+03	1.917244E-16	1.381223E-18
5.477066E+03	1.913801E-16	1.393865E-18
5.486743E+03	1.910434E-16	1.406417E-18
5.496420E+03	1.906976E-16	1.418729E-18
5.506096E+03	1.903354E-16	1.430724E-18
5.515773E+03	1.899544E-16	1.442356E-18
5.525450E+03	1.895528E-16	1.453592E-18
5.535127E+03	1.891290E-16	1.464400E-18
5.544804E+03	1.886856E-16	1.474785E-18
5.554480E+03	1.882324E-16	1.484810E-18
5.564157E+03	1.877794E-16	1.494547E-18
5.573834E+03	1.873341E-16	1.504052E-18
5.583511E+03	1.869136E-16	1.513464E-18
5.593188E+03	1.865169E-16	1.522781E-18
5.602864E+03	1.861481E-16	1.532043E-18
5.612541E+03	1.857991E-16	1.541195E-18
5.622218E+03	1.854494E-16	1.550075E-18
5.631895E+03	1.850714E-16	1.558460E-18
5.641572E+03	1.846399E-16	1.566141E-18
5.651248E+03	1.841234E-16	1.572852E-18
5.660925E+03	1.834957E-16	1.578367E-18
5.670602E+03	1.827441E-16	1.582575E-18
5.680279E+03	1.818734E-16	1.585511E-18
5.689955E+03	1.808925E-16	1.587258E-18
5.699632E+03	1.798238E-16	1.588014E-18
5.709309E+03	1.786864E-16	1.587959E-18
5.718986E+03	1.775068E-16	1.587342E-18
5.728663E+03	1.763079E-16	1.586389E-18
5.738339E+03	1.751007E-16	1.585224E-18
5.748016E+03	1.739006E-16	1.584012E-18
5.757693E+03	1.727195E-16	1.582892E-18
5.767370E+03	1.715534E-16	1.581860E-18
5.777047E+03	1.704061E-16	1.580982E-18
5.786723E+03	1.692799E-16	1.580315E-18
5.796400E+03	1.681818E-16	1.579957E-18
5.806077E+03	1.671204E-16	1.580025E-18
5.815754E+03	1.661045E-16	1.580642E-18
5.825431E+03	1.651434E-16	1.581935E-18
5.835107E+03	1.642376E-16	1.583951E-18
5.844784E+03	1.633965E-16	1.586825E-18
5.854461E+03	1.626278E-16	1.590675E-18
5.864138E+03	1.619441E-16	1.595674E-18
5.873815E+03	1.613502E-16	1.601921E-18
5.883491E+03	1.608487E-16	1.609493E-18
5.893168E+03	1.604351E-16	1.618401E-18
5.902845E+03	1.600980E-16	1.628581E-18
5.912522E+03	1.598184E-16	1.639895E-18
5.922199E+03	1.595672E-16	1.652089E-18
5.931875E+03	1.593266E-16	1.665018E-18
5.941552E+03	1.590779E-16	1.678520E-18
5.951229E+03	1.588158E-16	1.692567E-18
5.960906E+03	1.585379E-16	1.707158E-18
5.970583E+03	1.582607E-16	1.722497E-18
5.980259E+03	1.580025E-16	1.738810E-18
5.989936E+03	1.577842E-16	1.756341E-18
5.999613E+03	1.576046E-16	1.775071E-18
6.009290E+03	1.574548E-16	1.794897E-18
6.018967E+03	1.572831E-16	1.815211E-18
6.028643E+03	1.569384E-16	1.834221E-18
6.038320E+03	1.562110E-16	1.849339E-18
6.047997E+03	1.550804E-16	1.860121E-18
6.057674E+03	1.538294E-16	1.869774E-18
6.067350E+03	1.526716E-16	1.880841E-18
6.077027E+03	1.517595E-16	1.895234E-18
6.086704E+03	1.511491E-16	1.913754E-18
6.096381E+03	1.508429E-16	1.936565E-18
6.106058E+03	1.508277E-16	1.963630E-18
6.115734E+03	1.510617E-16	1.994537E-18
6.125411E+03	1.514915E-16	2.028691E-18
6.135088E+03	1.520597E-16	2.065406E-18
6.144765E+03	1.527196E-16	2.104106E-18
6.154442E+03	1.534254E-16	2.144190E-18
6.164118E+03	1.541350E-16	2.185079E-18
6.173795E+03	1.548138E-16	2.226263E-18
6.183472E+03	1.554320E-16	2.267276E-18
6.193149E+03	1.559666E-16	2.307729E-18
6.202826E+03	1.564122E-16	2.347476E-18
6.212502E+03	1.567668E-16	2.386413E-18
6.222179E+03	1.570268E-16	2.424413E-18
6.231856E+03	1.572099E-16	2.461679E-18
6.241533E+03	1.573283E-16	2.498336E-18
6.251210E+03	1.573936E-16	2.534517E-18
6.260886E+03	1.574180E-16	2.570369E-18
6.270563E+03	1.574042E-16	2.605896E-18
6.280240E+03	1.573601E-16	2.641187E-18
6.289917E+03	1.572859E-16	2.676215E-18
6.299594E+03	1.571838E-16	2.710982E-18
6.309270E+03	1.570493E-16	2.745375E-18
6.318947E+03	1.568923E-16	2.779536E-18
6.328624E+03	1.567114E-16	2.813409E-18
6.338301E+03	1.565137E-16	2.847098E-18
6.347978E+03	1.563093E-16	2.880761E-18
6.357654E+03	1.561055E-16	2.914520E-18
6.367331E+03	1.559126E-16	2.948559E-18
6.377008E+03	1.557365E-16	2.982989E-18
6.386685E+03	1.555776E-16	3.017818E-18
6.396362E+03	1.554349E-16	3.053029E-18
6.406038E+03	1.553043E-16	3.088546E-18
6.415715E+03	1.551817E-16	3.124283E-18
6.425392E+03	1.550533E-16	3.159957E-18
6.435069E+03	1.549131E-16	3.195432E-18
6.444746E+03	1.547525E-16	3.230511E-18
6.454422E+03	1.545609E-16	3.264949E-18
6.464099E+03	1.543365E-16	3.298674E-18
6.473776E+03	1.540731E-16	3.331518E-18
6.483453E+03	1.537707E-16	3.363451E-18
6.493129E+03	1.534247E-16	3.394330E-18
6.502806E+03	1.530386E-16	3.424197E-18
6.512483E+03	1.526150E-16	3.453070E-18
6.522160E+03	1.521480E-16	3.480784E-18
6.531837E+03	1.516390E-16	3.507328E-18
6.541513E+03	1.510831E-16	3.532554E-18
6.551190E+03	1.504818E-16	3.556454E-18
6.560867E+03	1.498314E-16	3.578900E-18
6.570544E+03	1.491325E-16	3.599863E-18
6.580221E+03	1.483922E-16	3.619478E-18
6.589897E+03	1.476117E-16	3.637735E-18
6.599574E+03	1.468044E-16	3.654934E-18
6.609251E+03	1.459776E-16	3.671231E-18
6.618928E+03	1.451498E-16	3.687083E-18
6.628605E+03	1.443282E-16	3.702667E-18
6.638281E+03	1.435260E-16	3.718325E-18
6.647958E+03	1.427565E-16	3.734419E-18
6.657635E+03	1.420270E-16	3.751159E-18
6.667312E+03	1.413362E-16	3.768540E-18
6.676989E+03	1.406896E-16	3.786739E-18
6.686665E+03	1.400826E-16	3.805656E-18
6.696342E+03	1.395157E-16	3.825337E-18
6.706019E+03	1.389804E-16	3.845571E-18
6.715696E+03	1.384763E-16	3.866370E-18
6.725373E+03	1.380042E-16	3.887779E-18
6.735049E+03	1.375632E-16	3.909791E-18
6.744726E+03	1.371580E-16	3.932563E-18
6.754403E+03	1.367934E-16	3.956261E-18
6.764080E+03	1.364711E-16	3.980959E-18
6.773757E+03	1.361933E-16	4.006755E-18
6.783433E+03	1.359618E-16	4.033731E-18
6.793110E+03	1.357782E-16	4.061970E-18
6.802787E+03	1.356333E-16	4.091226E-18
6.812464E+03	1.355270E-16	4.121525E-18
6.822141E+03	1.354464E-16	4.152497E-18
6.831817E+03	1.353852E-16	4.183964E-18
6.841494E+03	1.353321E-16	4.215589E-18
6.851171E+03	1.352810E-16	4.247181E-18
6.860848E+03	1.352230E-16	4.278461E-18
6.870524E+03	1.351481E-16	4.309100E-18
6.880201E+03	1.350466E-16	4.338779E-18
6.889878E+03	1.349184E-16	4.367466E-18
6.899555E+03	1.347580E-16	4.394967E-18
6.909232E+03	1.345640E-16	4.421210E-18
6.918908E+03	1.343361E-16	4.446159E-18
6.928585E+03	1.340743E-16	4.469788E-18
6.938262E+03	1.337844E-16	4.492265E-18
6.947939E+03	1.334665E-16	4.513573E-18
6.957616E+03	1.331238E-16	4.533805E-18
6.967292E+03	1.327617E-16	4.553119E-18
6.976969E+03	1.323779E-16	4.571430E-18
6.986646E+03	1.319761E-16	4.588848E-18
6.996323E+03	1.315505E-16	4.605152E-18
7.006000E+03	1.311030E-16	4.620397E-18
7.015676E+03	1.306341E-16	4.634583E-18
7.025353E+03	1.301443E-16	4.647716E-18
7.035030E+03	1.296344E-16	4.659808E-18
7.044707E+03	1.291072E-16	4.670943E-18
7.054384E+03	1.285625E-16	4.681109E-18
7.064060E+03	1.280059E-16	4.690492E-18
7.073737E+03	1.274409E-16	4.699216E-18
7.083414E+03	1.268700E-16	4.707368E-18
7.093091E+03	1.262913E-16	4.714876E-18
7.102768E+03	1.257084E-16	4.721872E-18
7.112444E+03	1.251235E-16	4.728427E-18
7.122121E+03	1.245298E-16	4.734294E-18
7.131798E+03	1.239322E-16	4.739644E-18
7.141475E+03	1.233336E-16	4.744596E-18
7.151152E+03	1.227420E-16	4.749454E-18
7.160828E+03	1.221644E-16	4.754498E-18
7.170505E+03	1.216153E-16	4.760304E-18
7.180182E+03	1.211099E-16	4.767491E-18
7.189859E+03	1.206592E-16	4.776527E-18
7.199536E+03	1.202816E-16	4.788179E-18
7.209212E+03	1.199817E-16	4.802681E-18
7.218889E+03	1.197693E-16	4.820478E-18
7.228566E+03	1.196451E-16	4.841655E-18
7.238243E+03	1.196116E-16	4.866375E-18
7.247919E+03	1.196601E-16	4.894337E-18
7.257596E+03	1.197870E-16	4.925448E-18
7.267273E+03	1.199841E-16	4.959423E-18
7.276950E+03	1.202390E-16	4.995786E-18
7.286627E+03	1.205458E-16	5.034328E-18
7.296303E+03	1.208847E-16	5.074250E-18
7.305980E+03	1.212417E-16	5.114983E-18
7.315657E+03	1.215954E-16	5.155630E-18
7.325334E+03	1.219295E-16	5.195490E-18
7.335011E+03	1.222235E-16	5.233671E-18
7.344687E+03	1.224652E-16	5.269631E-18
7.354364E+03	1.226413E-16	5.302750E-18
7.364041E+03	1.227470E-16	5.332782E-18
7.373718E+03	1.227864E-16	5.359868E-18
7.383395E+03	1.227641E-16	5.384157E-18
7.393071E+03	1.226920E-16	5.406143E-18
7.402748E+03	1.225887E-16	5.426616E-18
7.412425E+03	1.224682E-16	5.446181E-18
7.422102E+03	1.223505E-16	5.465720E-18
7.431779E+03	1.222449E-16	5.485656E-18
7.441455E+03	1.221703E-16	5.506840E-18
7.451132E+03	1.221365E-16	5.529743E-18
7.460809E+03	1.221476E-16	5.554572E-18
7.470486E+03	1.222113E-16	5.581700E-18
7.480163E+03	1.223270E-16	5.611145E-18
7.489839E+03	1.224950E-16	5.642939E-18
7.499516E+03	1.227154E-16	5.677117E-18
7.509193E+03	1.229820E-16	5.713428E-18
