#wls	flux	fluxerr
1.548287E+03	7.802209E-19	2.428721E-20
1.586994E+03	7.996006E-19	2.481492E-20
1.625702E+03	8.176038E-19	2.529446E-20
1.664409E+03	8.345206E-19	2.573503E-20
1.703116E+03	8.506060E-19	2.614460E-20
1.741823E+03	8.652391E-19	2.650428E-20
1.780530E+03	8.771130E-19	2.677446E-20
1.819237E+03	8.842098E-19	2.689452E-20
1.857945E+03	8.839671E-19	2.678829E-20
1.896652E+03	8.744347E-19	2.639930E-20
1.935359E+03	8.552314E-19	2.571932E-20
1.974066E+03	8.302322E-19	2.486795E-20
2.012773E+03	8.094262E-19	2.414541E-20
2.051481E+03	8.082805E-19	2.400974E-20
2.090188E+03	8.459600E-19	2.502034E-20
2.128895E+03	9.418248E-19	2.773193E-20
2.167602E+03	1.116003E-18	3.271068E-20
2.206309E+03	1.388330E-18	4.050206E-20
2.245016E+03	1.776977E-18	5.159065E-20
2.283724E+03	2.295455E-18	6.631414E-20
2.322431E+03	2.952041E-18	8.484958E-20
2.361138E+03	3.748047E-18	1.071675E-19
2.399845E+03	4.680037E-18	1.330996E-19
2.438552E+03	5.737383E-18	1.622738E-19
2.477260E+03	6.903103E-18	1.941430E-19
2.515967E+03	8.154604E-18	2.280120E-19
2.554674E+03	9.461501E-18	2.629814E-19
2.593381E+03	1.079503E-17	2.982156E-19
2.632088E+03	1.212460E-17	3.328470E-19
2.670795E+03	1.342888E-17	3.662822E-19
2.709503E+03	1.468912E-17	3.980121E-19
2.748210E+03	1.589616E-17	4.278011E-19
2.786917E+03	1.703794E-17	4.553427E-19
2.825624E+03	1.811352E-17	4.806361E-19
2.864331E+03	1.911932E-17	5.036131E-19
2.903039E+03	2.006590E-17	5.245798E-19
2.912715E+03	2.029383E-17	5.295240E-19
2.922392E+03	2.051726E-17	5.343238E-19
2.932069E+03	2.073974E-17	5.390719E-19
2.941746E+03	2.095834E-17	5.436921E-19
2.951422E+03	2.117655E-17	5.482752E-19
2.961099E+03	2.139613E-17	5.528667E-19
2.970776E+03	2.161664E-17	5.574551E-19
2.980453E+03	2.183591E-17	5.619837E-19
2.990130E+03	2.205703E-17	5.665323E-19
2.999806E+03	2.227782E-17	5.710448E-19
3.009483E+03	2.249792E-17	5.755116E-19
3.019160E+03	2.271693E-17	5.799221E-19
3.028837E+03	2.293618E-17	5.843109E-19
3.038514E+03	2.315214E-17	5.885877E-19
3.048190E+03	2.337047E-17	5.928964E-19
3.057867E+03	2.358730E-17	5.971385E-19
3.067544E+03	2.380712E-17	6.014279E-19
3.077221E+03	2.402567E-17	6.056562E-19
3.086898E+03	2.424213E-17	6.098029E-19
3.096574E+03	2.445932E-17	6.139390E-19
3.106251E+03	2.467466E-17	6.179998E-19
3.115928E+03	2.488742E-17	6.219669E-19
3.125605E+03	2.509678E-17	6.258204E-19
3.135282E+03	2.530198E-17	6.295417E-19
3.144958E+03	2.550394E-17	6.331543E-19
3.154635E+03	2.570011E-17	6.365952E-19
3.164312E+03	2.589316E-17	6.399316E-19
3.173989E+03	2.607871E-17	6.430554E-19
3.183666E+03	2.625938E-17	6.460327E-19
3.193342E+03	2.643248E-17	6.487980E-19
3.203019E+03	2.659883E-17	6.513724E-19
3.212696E+03	2.675569E-17	6.536899E-19
3.222373E+03	2.690554E-17	6.558129E-19
3.232050E+03	2.704560E-17	6.576747E-19
3.241726E+03	2.717476E-17	6.592502E-19
3.251403E+03	2.729538E-17	6.605977E-19
3.261080E+03	2.740453E-17	6.616487E-19
3.270757E+03	2.750103E-17	6.623758E-19
3.280434E+03	2.758534E-17	6.627929E-19
3.290110E+03	2.765781E-17	6.629105E-19
3.299787E+03	2.771706E-17	6.626974E-19
3.309464E+03	2.776174E-17	6.621234E-19
3.319141E+03	2.779202E-17	6.611956E-19
3.328817E+03	2.780638E-17	6.598806E-19
3.338494E+03	2.780492E-17	6.581832E-19
3.348171E+03	2.778757E-17	6.561048E-19
3.357848E+03	2.775117E-17	6.535739E-19
3.367525E+03	2.769900E-17	6.506707E-19
3.377201E+03	2.763142E-17	6.474068E-19
3.386878E+03	2.754943E-17	6.438083E-19
3.396555E+03	2.745533E-17	6.399316E-19
3.406232E+03	2.734993E-17	6.357977E-19
3.415909E+03	2.723809E-17	6.315212E-19
3.425585E+03	2.711768E-17	6.270544E-19
3.435262E+03	2.699068E-17	6.224443E-19
3.444939E+03	2.685762E-17	6.177047E-19
3.454616E+03	2.671911E-17	6.128506E-19
3.464293E+03	2.657570E-17	6.078955E-19
3.473969E+03	2.642673E-17	6.028258E-19
3.483646E+03	2.627291E-17	5.976585E-19
3.493323E+03	2.611374E-17	5.923835E-19
3.503000E+03	2.595107E-17	5.870434E-19
3.512677E+03	2.578452E-17	5.816305E-19
3.522353E+03	2.561487E-17	5.761635E-19
3.532030E+03	2.544084E-17	5.706140E-19
3.541707E+03	2.526538E-17	5.650491E-19
3.551384E+03	2.508736E-17	5.594441E-19
3.561061E+03	2.490771E-17	5.538200E-19
3.570737E+03	2.472651E-17	5.481792E-19
3.580414E+03	2.454564E-17	5.425637E-19
3.590091E+03	2.436519E-17	5.369755E-19
3.599768E+03	2.418536E-17	5.314189E-19
3.609445E+03	2.400720E-17	5.259170E-19
3.619121E+03	2.383176E-17	5.204928E-19
3.628798E+03	2.365934E-17	5.151518E-19
3.638475E+03	2.349100E-17	5.099172E-19
3.648152E+03	2.332783E-17	5.048113E-19
3.657829E+03	2.317015E-17	4.998406E-19
3.667505E+03	2.301906E-17	4.950274E-19
3.677182E+03	2.287495E-17	4.903788E-19
3.686859E+03	2.273889E-17	4.859167E-19
3.696536E+03	2.261197E-17	4.816623E-19
3.706213E+03	2.249458E-17	4.776227E-19
3.715889E+03	2.238780E-17	4.738184E-19
3.725566E+03	2.229207E-17	4.702566E-19
3.735243E+03	2.220844E-17	4.669574E-19
3.744920E+03	2.213794E-17	4.639400E-19
3.754596E+03	2.208103E-17	4.612111E-19
3.764273E+03	2.203874E-17	4.587894E-19
3.773950E+03	2.201153E-17	4.566814E-19
3.783627E+03	2.200042E-17	4.549053E-19
3.793304E+03	2.200643E-17	4.534783E-19
3.802980E+03	2.203002E-17	4.524068E-19
3.812657E+03	2.207170E-17	4.516971E-19
3.822334E+03	2.213298E-17	4.513762E-19
3.832011E+03	2.221434E-17	4.514499E-19
3.841688E+03	2.231630E-17	4.519240E-19
3.851364E+03	2.243985E-17	4.528143E-19
3.861041E+03	2.258550E-17	4.541263E-19
3.870718E+03	2.275473E-17	4.558848E-19
3.880395E+03	2.294806E-17	4.580948E-19
3.890072E+03	2.316597E-17	4.607609E-19
3.899748E+03	2.340898E-17	4.638876E-19
3.909425E+03	2.367902E-17	4.675074E-19
3.919102E+03	2.397561E-17	4.716050E-19
3.928779E+03	2.430018E-17	4.762023E-19
3.938456E+03	2.465317E-17	4.813016E-19
3.948132E+03	2.503549E-17	4.869142E-19
3.957809E+03	2.544801E-17	4.930501E-19
3.967486E+03	2.589109E-17	4.997093E-19
3.977163E+03	2.636550E-17	5.068999E-19
3.986840E+03	2.687153E-17	5.146198E-19
3.996516E+03	2.740984E-17	5.228745E-19
4.006193E+03	2.798102E-17	5.316677E-19
4.015870E+03	2.858564E-17	5.410023E-19
4.025547E+03	2.922355E-17	5.508680E-19
4.035224E+03	2.989515E-17	5.612641E-19
4.044900E+03	3.060112E-17	5.721956E-19
4.054577E+03	3.134047E-17	5.836359E-19
4.064254E+03	3.211366E-17	5.955853E-19
4.073931E+03	3.291983E-17	6.080203E-19
4.083608E+03	3.375911E-17	6.209352E-19
4.093284E+03	3.463081E-17	6.343094E-19
4.102961E+03	3.553347E-17	6.481086E-19
4.112638E+03	3.646704E-17	6.623242E-19
4.122315E+03	3.742894E-17	6.769022E-19
4.131991E+03	3.841861E-17	6.918253E-19
4.141668E+03	3.943399E-17	7.070502E-19
4.151345E+03	4.047267E-17	7.225274E-19
4.161022E+03	4.153248E-17	7.382126E-19
4.170699E+03	4.261028E-17	7.540450E-19
4.180375E+03	4.370312E-17	7.699680E-19
4.190052E+03	4.480698E-17	7.859075E-19
4.199729E+03	4.591945E-17	8.018182E-19
4.209406E+03	4.703422E-17	8.175885E-19
4.219083E+03	4.814805E-17	8.331615E-19
4.228759E+03	4.925553E-17	8.484439E-19
4.238436E+03	5.035394E-17	8.633906E-19
4.248113E+03	5.143927E-17	8.779350E-19
4.257790E+03	5.251046E-17	8.920619E-19
4.267467E+03	5.356734E-17	9.057721E-19
4.277143E+03	5.460981E-17	9.190671E-19
4.286820E+03	5.563707E-17	9.319368E-19
4.296497E+03	5.665066E-17	9.444107E-19
4.306174E+03	5.764899E-17	9.564654E-19
4.315851E+03	5.863044E-17	9.680784E-19
4.325527E+03	5.959416E-17	9.792394E-19
4.335204E+03	6.053939E-17	9.899404E-19
4.344881E+03	6.146195E-17	1.000118E-18
4.354558E+03	6.236271E-17	1.009792E-18
4.364235E+03	6.323758E-17	1.018902E-18
4.373911E+03	6.408749E-17	1.027468E-18
4.383588E+03	6.490933E-17	1.035447E-18
4.393265E+03	6.570174E-17	1.042824E-18
4.402942E+03	6.646427E-17	1.049598E-18
4.412619E+03	6.719582E-17	1.055760E-18
4.422295E+03	6.789459E-17	1.061288E-18
4.431972E+03	6.856140E-17	1.066204E-18
4.441649E+03	6.919478E-17	1.070491E-18
4.451326E+03	6.979508E-17	1.074164E-18
4.461003E+03	7.036191E-17	1.077225E-18
4.470679E+03	7.089508E-17	1.079678E-18
4.480356E+03	7.139536E-17	1.081543E-18
4.490033E+03	7.186372E-17	1.082843E-18
4.499710E+03	7.230029E-17	1.083588E-18
4.509386E+03	7.270699E-17	1.083815E-18
4.519063E+03	7.308328E-17	1.083521E-18
4.528740E+03	7.343119E-17	1.082745E-18
4.538417E+03	7.375192E-17	1.081512E-18
4.548094E+03	7.404753E-17	1.079858E-18
4.557770E+03	7.431831E-17	1.077794E-18
4.567447E+03	7.456712E-17	1.075367E-18
4.577124E+03	7.479408E-17	1.072584E-18
4.586801E+03	7.500192E-17	1.069490E-18
4.596478E+03	7.519150E-17	1.066103E-18
4.606154E+03	7.536453E-17	1.062451E-18
4.615831E+03	7.552258E-17	1.058559E-18
4.625508E+03	7.566714E-17	1.054454E-18
4.635185E+03	7.579879E-17	1.050147E-18
4.644862E+03	7.591809E-17	1.045649E-18
4.654538E+03	7.602546E-17	1.040969E-18
4.664215E+03	7.612056E-17	1.036106E-18
4.673892E+03	7.620299E-17	1.031059E-18
4.683569E+03	7.627245E-17	1.025826E-18
4.693246E+03	7.633111E-17	1.020441E-18
4.702922E+03	7.637709E-17	1.014881E-18
4.712599E+03	7.641271E-17	1.009181E-18
4.722276E+03	7.643708E-17	1.003333E-18
4.731953E+03	7.645183E-17	9.973607E-19
4.741630E+03	7.645708E-17	9.912694E-19
4.751306E+03	7.645473E-17	9.850863E-19
4.760983E+03	7.644584E-17	9.788277E-19
4.770660E+03	7.643079E-17	9.725009E-19
4.780337E+03	7.641171E-17	9.661350E-19
4.790014E+03	7.638995E-17	9.597489E-19
4.799690E+03	7.636605E-17	9.533510E-19
4.809367E+03	7.634314E-17	9.469813E-19
4.819044E+03	7.632095E-17	9.406373E-19
4.828721E+03	7.630257E-17	9.343580E-19
4.838398E+03	7.628859E-17	9.281505E-19
4.848074E+03	7.628124E-17	9.220417E-19
4.857751E+03	7.628100E-17	9.160372E-19
4.867428E+03	7.628986E-17	9.101602E-19
4.877105E+03	7.630824E-17	9.044147E-19
4.886781E+03	7.633874E-17	8.988306E-19
4.896458E+03	7.638147E-17	8.934076E-19
4.906135E+03	7.643726E-17	8.881538E-19
4.915812E+03	7.650674E-17	8.830752E-19
4.925489E+03	7.659123E-17	8.781852E-19
4.935165E+03	7.669033E-17	8.734775E-19
4.944842E+03	7.680507E-17	8.689620E-19
4.954519E+03	7.693552E-17	8.646379E-19
4.964196E+03	7.708088E-17	8.604944E-19
4.973873E+03	7.724252E-17	8.565455E-19
4.983549E+03	7.741860E-17	8.527693E-19
4.993226E+03	7.761026E-17	8.491771E-19
5.002903E+03	7.781617E-17	8.457533E-19
5.012580E+03	7.803578E-17	8.424911E-19
5.022257E+03	7.826829E-17	8.393816E-19
5.031933E+03	7.851376E-17	8.364250E-19
5.041610E+03	7.877059E-17	8.336043E-19
5.051287E+03	7.903788E-17	8.309106E-19
5.060964E+03	7.931556E-17	8.283435E-19
5.070641E+03	7.960271E-17	8.258945E-19
5.080317E+03	7.989768E-17	8.235475E-19
5.089994E+03	8.019953E-17	8.212948E-19
5.099671E+03	8.050834E-17	8.191389E-19
5.109348E+03	8.082328E-17	8.170735E-19
5.119025E+03	8.114282E-17	8.150856E-19
5.128701E+03	8.146715E-17	8.131797E-19
5.138378E+03	8.179486E-17	8.113449E-19
5.148055E+03	8.212540E-17	8.095786E-19
5.157732E+03	8.245915E-17	8.078883E-19
5.167409E+03	8.279479E-17	8.062644E-19
5.177085E+03	8.313268E-17	8.047143E-19
5.186762E+03	8.347147E-17	8.032287E-19
5.196439E+03	8.381053E-17	8.018058E-19
5.206116E+03	8.414989E-17	8.004503E-19
5.215793E+03	8.448674E-17	7.991399E-19
5.225469E+03	8.482138E-17	7.978825E-19
5.235146E+03	8.515101E-17	7.966568E-19
5.244823E+03	8.547229E-17	7.954371E-19
5.254500E+03	8.578372E-17	7.942154E-19
5.264177E+03	8.608172E-17	7.929648E-19
5.273853E+03	8.636687E-17	7.916971E-19
5.283530E+03	8.664200E-17	7.904446E-19
5.293207E+03	8.690786E-17	7.892197E-19
5.302884E+03	8.716333E-17	7.880181E-19
5.312560E+03	8.740757E-17	7.868380E-19
5.322237E+03	8.764035E-17	7.856828E-19
5.331914E+03	8.786633E-17	7.846000E-19
5.341591E+03	8.809209E-17	7.836508E-19
5.351268E+03	8.832129E-17	7.828675E-19
5.360944E+03	8.855916E-17	7.822952E-19
5.370621E+03	8.880727E-17	7.819462E-19
5.380298E+03	8.906716E-17	7.818326E-19
5.389975E+03	8.934038E-17	7.819662E-19
5.399652E+03	8.962623E-17	7.823391E-19
5.409328E+03	8.992505E-17	7.829528E-19
5.419005E+03	9.023588E-17	7.837972E-19
5.428682E+03	9.055845E-17	7.848684E-19
5.438359E+03	9.089026E-17	7.861437E-19
5.448036E+03	9.122977E-17	7.876082E-19
5.457712E+03	9.157615E-17	7.892538E-19
5.467389E+03	9.192676E-17	7.910566E-19
5.477066E+03	9.228098E-17	7.930105E-19
5.486743E+03	9.263721E-17	7.951006E-19
5.496420E+03	9.299416E-17	7.973151E-19
5.506096E+03	9.335063E-17	7.996427E-19
5.515773E+03	9.370562E-17	8.020741E-19
5.525450E+03	9.405828E-17	8.046012E-19
5.535127E+03	9.440802E-17	8.072180E-19
5.544804E+03	9.475440E-17	8.099199E-19
5.554480E+03	9.509815E-17	8.127123E-19
5.564157E+03	9.543727E-17	8.155772E-19
5.573834E+03	9.577379E-17	8.185310E-19
5.583511E+03	9.610796E-17	8.215750E-19
5.593188E+03	9.643823E-17	8.246949E-19
5.602864E+03	9.676694E-17	8.279100E-19
5.612541E+03	9.709370E-17	8.312162E-19
5.622218E+03	9.742016E-17	8.346265E-19
5.631895E+03	9.774603E-17	8.381380E-19
5.641572E+03	9.807099E-17	8.417471E-19
5.651248E+03	9.839780E-17	8.454768E-19
5.660925E+03	9.872622E-17	8.493246E-19
5.670602E+03	9.905699E-17	8.532964E-19
5.680279E+03	9.939083E-17	8.573979E-19
5.689955E+03	9.972849E-17	8.616355E-19
5.699632E+03	1.000696E-16	8.660057E-19
5.709309E+03	1.004157E-16	8.705225E-19
5.718986E+03	1.007665E-16	8.751817E-19
5.728663E+03	1.011233E-16	8.799968E-19
5.738339E+03	1.014846E-16	8.849537E-19
5.748016E+03	1.018527E-16	8.900742E-19
5.757693E+03	1.022260E-16	8.953428E-19
5.767370E+03	1.026056E-16	9.007718E-19
5.777047E+03	1.029895E-16	9.063440E-19
5.786723E+03	1.033800E-16	9.120800E-19
5.796400E+03	1.037761E-16	9.179716E-19
5.806077E+03	1.041777E-16	9.240200E-19
5.815754E+03	1.045837E-16	9.302160E-19
5.825431E+03	1.049940E-16	9.365601E-19
5.835107E+03	1.054095E-16	9.430616E-19
5.844784E+03	1.058280E-16	9.497020E-19
5.854461E+03	1.062504E-16	9.564911E-19
5.864138E+03	1.066765E-16	9.634287E-19
5.873815E+03	1.071051E-16	9.705055E-19
5.883491E+03	1.075372E-16	9.777324E-19
5.893168E+03	1.079727E-16	9.851102E-19
5.902845E+03	1.084106E-16	9.926304E-19
5.912522E+03	1.088518E-16	1.000305E-18
5.922199E+03	1.092965E-16	1.008138E-18
5.931875E+03	1.097438E-16	1.016121E-18
5.941552E+03	1.101961E-16	1.024281E-18
5.951229E+03	1.106527E-16	1.032612E-18
5.960906E+03	1.111164E-16	1.041144E-18
5.970583E+03	1.115844E-16	1.049852E-18
5.980259E+03	1.120620E-16	1.058791E-18
5.989936E+03	1.125467E-16	1.067939E-18
5.999613E+03	1.130419E-16	1.077334E-18
6.009290E+03	1.135480E-16	1.086979E-18
6.018967E+03	1.140675E-16	1.096905E-18
6.028643E+03	1.145998E-16	1.107111E-18
6.038320E+03	1.151468E-16	1.117619E-18
6.047997E+03	1.157106E-16	1.128453E-18
6.057674E+03	1.162880E-16	1.139588E-18
6.067350E+03	1.168775E-16	1.151013E-18
6.077027E+03	1.174773E-16	1.162713E-18
6.086704E+03	1.180846E-16	1.174659E-18
6.096381E+03	1.186994E-16	1.186849E-18
6.106058E+03	1.193175E-16	1.199244E-18
6.115734E+03	1.199403E-16	1.211854E-18
6.125411E+03	1.205651E-16	1.224651E-18
6.135088E+03	1.211893E-16	1.237608E-18
6.144765E+03	1.218142E-16	1.250736E-18
6.154442E+03	1.224342E-16	1.263976E-18
6.164118E+03	1.230521E-16	1.277352E-18
6.173795E+03	1.236622E-16	1.290806E-18
6.183472E+03	1.242656E-16	1.304344E-18
6.193149E+03	1.248594E-16	1.317932E-18
6.202826E+03	1.254432E-16	1.331562E-18
6.212502E+03	1.260137E-16	1.345197E-18
6.222179E+03	1.265707E-16	1.358829E-18
6.231856E+03	1.271136E-16	1.372446E-18
6.241533E+03	1.276420E-16	1.386042E-18
6.251210E+03	1.281570E-16	1.399621E-18
6.260886E+03	1.286568E-16	1.413160E-18
6.270563E+03	1.291441E-16	1.426683E-18
6.280240E+03	1.296141E-16	1.440135E-18
6.289917E+03	1.300653E-16	1.453489E-18
6.299594E+03	1.304943E-16	1.466706E-18
6.309270E+03	1.308996E-16	1.479760E-18
6.318947E+03	1.312796E-16	1.492626E-18
6.328624E+03	1.316343E-16	1.505298E-18
6.338301E+03	1.319607E-16	1.517734E-18
6.347978E+03	1.322576E-16	1.529911E-18
6.357654E+03	1.325283E-16	1.541863E-18
6.367331E+03	1.327672E-16	1.553513E-18
6.377008E+03	1.329779E-16	1.564898E-18
6.386685E+03	1.331580E-16	1.575981E-18
6.396362E+03	1.333068E-16	1.586745E-18
6.406038E+03	1.334268E-16	1.597213E-18
6.415715E+03	1.335143E-16	1.607331E-18
6.425392E+03	1.335738E-16	1.617146E-18
6.435069E+03	1.336017E-16	1.626607E-18
6.444746E+03	1.336012E-16	1.635743E-18
6.454422E+03	1.335705E-16	1.644527E-18
6.464099E+03	1.335113E-16	1.652970E-18
6.473776E+03	1.334236E-16	1.661065E-18
6.483453E+03	1.333076E-16	1.668809E-18
6.493129E+03	1.331637E-16	1.676197E-18
6.502806E+03	1.329921E-16	1.683225E-18
6.512483E+03	1.327965E-16	1.689934E-18
6.522160E+03	1.325723E-16	1.696258E-18
6.531837E+03	1.323252E-16	1.702262E-18
6.541513E+03	1.320538E-16	1.707924E-18
6.551190E+03	1.317571E-16	1.713223E-18
6.560867E+03	1.314390E-16	1.718206E-18
6.570544E+03	1.310986E-16	1.722853E-18
6.580221E+03	1.307365E-16	1.727166E-18
6.589897E+03	1.303550E-16	1.731174E-18
6.599574E+03	1.299533E-16	1.734855E-18
6.609251E+03	1.295320E-16	1.738219E-18
6.618928E+03	1.290937E-16	1.741291E-18
6.628605E+03	1.286392E-16	1.744080E-18
6.638281E+03	1.281676E-16	1.746570E-18
6.647958E+03	1.276816E-16	1.748792E-18
6.657635E+03	1.271804E-16	1.750733E-18
6.667312E+03	1.266667E-16	1.752424E-18
6.676989E+03	1.261397E-16	1.753855E-18
6.686665E+03	1.256040E-16	1.755084E-18
6.696342E+03	1.250556E-16	1.756053E-18
6.706019E+03	1.245006E-16	1.756846E-18
6.715696E+03	1.239368E-16	1.757431E-18
6.725373E+03	1.233673E-16	1.757847E-18
6.735049E+03	1.227914E-16	1.758086E-18
6.744726E+03	1.222123E-16	1.758191E-18
6.754403E+03	1.216295E-16	1.758153E-18
6.764080E+03	1.210462E-16	1.758019E-18
6.773757E+03	1.204619E-16	1.757781E-18
6.783433E+03	1.198797E-16	1.757485E-18
6.793110E+03	1.192994E-16	1.757127E-18
6.802787E+03	1.187241E-16	1.756754E-18
6.812464E+03	1.181534E-16	1.756362E-18
6.822141E+03	1.175888E-16	1.755973E-18
6.831817E+03	1.170316E-16	1.755610E-18
6.841494E+03	1.164833E-16	1.755294E-18
6.851171E+03	1.159450E-16	1.755047E-18
6.860848E+03	1.154182E-16	1.754891E-18
6.870524E+03	1.149040E-16	1.754847E-18
6.880201E+03	1.144036E-16	1.754937E-18
6.889878E+03	1.139180E-16	1.755178E-18
6.899555E+03	1.134468E-16	1.755567E-18
6.909232E+03	1.129908E-16	1.756120E-18
6.918908E+03	1.125526E-16	1.756881E-18
6.928585E+03	1.121311E-16	1.757838E-18
6.938262E+03	1.117272E-16	1.759006E-18
6.947939E+03	1.113413E-16	1.760397E-18
6.957616E+03	1.109739E-16	1.762022E-18
6.967292E+03	1.106236E-16	1.763863E-18
6.976969E+03	1.102923E-16	1.765956E-18
6.986646E+03	1.099785E-16	1.768279E-18
6.996323E+03	1.096821E-16	1.770834E-18
7.006000E+03	1.094030E-16	1.773626E-18
7.015676E+03	1.091410E-16	1.776652E-18
7.025353E+03	1.088958E-16	1.779913E-18
7.035030E+03	1.086638E-16	1.783353E-18
7.044707E+03	1.084478E-16	1.787020E-18
7.054384E+03	1.082440E-16	1.790858E-18
7.064060E+03	1.080535E-16	1.794885E-18
7.073737E+03	1.078758E-16	1.799097E-18
7.083414E+03	1.077070E-16	1.803433E-18
7.093091E+03	1.075482E-16	1.807913E-18
7.102768E+03	1.073974E-16	1.812503E-18
7.112444E+03	1.072540E-16	1.817197E-18
7.122121E+03	1.071174E-16	1.821988E-18
7.131798E+03	1.069858E-16	1.826845E-18
7.141475E+03	1.068604E-16	1.831791E-18
7.151152E+03	1.067378E-16	1.836769E-18
7.160828E+03	1.066193E-16	1.841803E-18
7.170505E+03	1.065017E-16	1.846837E-18
7.180182E+03	1.063880E-16	1.851926E-18
7.189859E+03	1.062767E-16	1.857045E-18
7.199536E+03	1.061678E-16	1.862195E-18
7.209212E+03	1.060615E-16	1.867378E-18
7.218889E+03	1.059594E-16	1.872627E-18
7.228566E+03	1.058584E-16	1.877885E-18
7.238243E+03	1.057619E-16	1.883216E-18
7.247919E+03	1.056683E-16	1.888591E-18
7.257596E+03	1.055791E-16	1.894039E-18
7.267273E+03	1.054960E-16	1.899591E-18
7.276950E+03	1.054170E-16	1.905214E-18
7.286627E+03	1.053434E-16	1.910934E-18
7.296303E+03	1.052749E-16	1.916743E-18
7.305980E+03	1.052122E-16	1.922660E-18
7.315657E+03	1.051530E-16	1.928640E-18
7.325334E+03	1.050978E-16	1.934694E-18
7.335011E+03	1.050452E-16	1.940797E-18
7.344687E+03	1.049939E-16	1.946923E-18
7.354364E+03	1.049418E-16	1.953036E-18
7.364041E+03	1.048888E-16	1.959129E-18
7.373718E+03	1.048329E-16	1.965168E-18
7.383395E+03	1.047747E-16	1.971160E-18
7.393071E+03	1.047135E-16	1.977092E-18
7.402748E+03	1.046531E-16	1.983036E-18
7.412425E+03	1.045908E-16	1.988938E-18
7.422102E+03	1.045301E-16	1.994865E-18
7.431779E+03	1.044692E-16	2.000783E-18
7.441455E+03	1.044096E-16	2.006718E-18
7.451132E+03	1.043474E-16	2.012597E-18
7.460809E+03	1.042869E-16	2.018502E-18
7.470486E+03	1.042224E-16	2.024320E-18
7.480163E+03	1.041562E-16	2.030097E-18
7.489839E+03	1.040837E-16	2.035742E-18
7.499516E+03	1.040073E-16	2.041298E-18
7.509193E+03	1.039256E-16	2.046738E-18
