#wls	flux	fluxerr
1.548287E+03	1.978628E-19	7.149388E-21
1.586994E+03	2.064665E-19	7.441400E-21
1.625702E+03	2.140293E-19	7.693894E-21
1.664409E+03	2.203761E-19	7.900822E-21
1.703116E+03	2.253877E-19	8.058211E-21
1.741823E+03	2.286466E-19	8.151523E-21
1.780530E+03	2.296030E-19	8.161710E-21
1.819237E+03	2.276533E-19	8.068075E-21
1.857945E+03	2.221484E-19	7.848626E-21
1.896652E+03	2.128065E-19	7.494639E-21
1.935359E+03	2.000003E-19	7.020559E-21
1.974066E+03	1.850587E-19	6.474175E-21
2.012773E+03	1.706789E-19	5.950401E-21
2.051481E+03	1.600511E-19	5.559979E-21
2.090188E+03	1.561993E-19	5.406257E-21
2.128895E+03	1.612264E-19	5.559187E-21
2.167602E+03	1.762250E-19	6.052748E-21
2.206309E+03	2.015409E-19	6.894611E-21
2.245016E+03	2.367081E-19	8.064390E-21
2.283724E+03	2.806163E-19	9.519891E-21
2.322431E+03	3.317685E-19	1.120630E-20
2.361138E+03	3.887312E-19	1.307165E-20
2.399845E+03	4.504929E-19	1.507883E-20
2.438552E+03	5.164265E-19	1.720402E-20
2.477260E+03	5.863849E-19	1.943960E-20
2.515967E+03	6.604412E-19	2.178521E-20
2.554674E+03	7.390932E-19	2.425428E-20
2.593381E+03	8.226523E-19	2.685367E-20
2.632088E+03	9.119998E-19	2.960842E-20
2.670795E+03	1.007565E-18	3.252818E-20
2.709503E+03	1.110361E-18	3.564092E-20
2.748210E+03	1.220804E-18	3.895455E-20
2.786917E+03	1.340116E-18	4.250205E-20
2.825624E+03	1.468814E-18	4.629303E-20
2.864331E+03	1.607903E-18	5.035166E-20
2.903039E+03	1.758119E-18	5.469266E-20
2.912715E+03	1.797503E-18	5.582385E-20
2.922392E+03	1.837504E-18	5.696955E-20
2.932069E+03	1.878351E-18	5.813671E-20
2.941746E+03	1.920086E-18	5.932647E-20
2.951422E+03	1.962627E-18	6.053615E-20
2.961099E+03	2.006377E-18	6.177792E-20
2.970776E+03	2.051051E-18	6.304283E-20
2.980453E+03	2.097100E-18	6.434458E-20
2.990130E+03	2.143996E-18	6.566664E-20
2.999806E+03	2.192197E-18	6.702290E-20
3.009483E+03	2.241161E-18	6.839654E-20
3.019160E+03	2.291099E-18	6.979384E-20
3.028837E+03	2.342233E-18	7.122131E-20
3.038514E+03	2.394032E-18	7.266265E-20
3.048190E+03	2.447066E-18	7.413490E-20
3.057867E+03	2.501224E-18	7.563449E-20
3.067544E+03	2.556707E-18	7.716723E-20
3.077221E+03	2.612890E-18	7.871406E-20
3.086898E+03	2.670249E-18	8.028909E-20
3.096574E+03	2.728717E-18	8.189007E-20
3.106251E+03	2.787934E-18	8.350596E-20
3.115928E+03	2.848107E-18	8.514277E-20
3.125605E+03	2.909159E-18	8.679798E-20
3.135282E+03	2.970718E-18	8.846034E-20
3.144958E+03	3.033291E-18	9.014474E-20
3.154635E+03	3.096200E-18	9.183086E-20
3.164312E+03	3.159656E-18	9.352480E-20
3.173989E+03	3.223873E-18	9.523277E-20
3.183666E+03	3.288460E-18	9.694304E-20
3.193342E+03	3.353318E-18	9.865254E-20
3.203019E+03	3.418353E-18	1.003584E-19
3.212696E+03	3.483773E-18	1.020667E-19
3.222373E+03	3.549167E-18	1.037653E-19
3.232050E+03	3.614739E-18	1.054600E-19
3.241726E+03	3.680390E-18	1.071479E-19
3.251403E+03	3.746004E-18	1.088255E-19
3.261080E+03	3.811475E-18	1.104897E-19
3.270757E+03	3.876358E-18	1.121277E-19
3.280434E+03	3.941185E-18	1.137548E-19
3.290110E+03	4.005841E-18	1.153676E-19
3.299787E+03	4.069552E-18	1.169440E-19
3.309464E+03	4.132856E-18	1.184994E-19
3.319141E+03	4.195633E-18	1.200304E-19
3.328817E+03	4.257440E-18	1.215245E-19
3.338494E+03	4.318824E-18	1.229974E-19
3.348171E+03	4.379023E-18	1.244274E-19
3.357848E+03	4.438594E-18	1.258305E-19
3.367525E+03	4.496796E-18	1.271858E-19
3.377201E+03	4.554205E-18	1.285099E-19
3.386878E+03	4.610748E-18	1.298007E-19
3.396555E+03	4.666048E-18	1.310478E-19
3.406232E+03	4.720376E-18	1.322589E-19
3.415909E+03	4.773693E-18	1.334332E-19
3.425585E+03	4.825965E-18	1.345699E-19
3.435262E+03	4.877167E-18	1.356684E-19
3.444939E+03	4.927278E-18	1.367283E-19
3.454616E+03	4.976593E-18	1.377579E-19
3.464293E+03	5.025099E-18	1.387571E-19
3.473969E+03	5.072473E-18	1.397170E-19
3.483646E+03	5.119325E-18	1.406546E-19
3.493323E+03	5.165036E-18	1.415531E-19
3.503000E+03	5.210211E-18	1.424290E-19
3.512677E+03	5.254542E-18	1.432742E-19
3.522353E+03	5.298035E-18	1.440889E-19
3.532030E+03	5.340984E-18	1.448813E-19
3.541707E+03	5.383673E-18	1.456590E-19
3.551384E+03	5.425526E-18	1.464066E-19
3.561061E+03	5.466832E-18	1.471321E-19
3.570737E+03	5.507878E-18	1.478431E-19
3.580414E+03	5.548378E-18	1.485321E-19
3.590091E+03	5.588615E-18	1.492067E-19
3.599768E+03	5.628313E-18	1.498596E-19
3.609445E+03	5.668020E-18	1.505054E-19
3.619121E+03	5.707200E-18	1.511298E-19
3.628798E+03	5.746383E-18	1.517471E-19
3.638475E+03	5.785566E-18	1.523570E-19
3.648152E+03	5.824488E-18	1.529527E-19
3.657829E+03	5.863159E-18	1.535345E-19
3.667505E+03	5.902080E-18	1.541155E-19
3.677182E+03	5.940754E-18	1.546826E-19
3.686859E+03	5.979677E-18	1.552488E-19
3.696536E+03	6.018600E-18	1.558076E-19
3.706213E+03	6.057531E-18	1.563590E-19
3.715889E+03	6.096472E-18	1.569033E-19
3.725566E+03	6.135895E-18	1.574524E-19
3.735243E+03	6.175335E-18	1.579943E-19
3.744920E+03	6.214799E-18	1.585291E-19
3.754596E+03	6.254746E-18	1.590686E-19
3.764273E+03	6.294734E-18	1.596013E-19
3.773950E+03	6.335207E-18	1.601385E-19
3.783627E+03	6.375954E-18	1.606746E-19
3.793304E+03	6.416771E-18	1.612046E-19
3.802980E+03	6.458096E-18	1.617394E-19
3.812657E+03	6.499727E-18	1.622736E-19
3.822334E+03	6.541675E-18	1.628076E-19
3.832011E+03	6.584162E-18	1.633468E-19
3.841688E+03	6.626798E-18	1.638813E-19
3.851364E+03	6.670001E-18	1.644214E-19
3.861041E+03	6.713593E-18	1.649626E-19
3.870718E+03	6.757405E-18	1.655007E-19
3.880395E+03	6.801844E-18	1.660454E-19
3.890072E+03	6.846555E-18	1.665881E-19
3.899748E+03	6.891761E-18	1.671339E-19
3.909425E+03	6.937485E-18	1.676835E-19
3.919102E+03	6.983403E-18	1.682287E-19
3.928779E+03	7.029912E-18	1.687791E-19
3.938456E+03	7.076870E-18	1.693312E-19
3.948132E+03	7.124318E-18	1.698857E-19
3.957809E+03	7.172132E-18	1.704397E-19
3.967486E+03	7.220361E-18	1.709941E-19
3.977163E+03	7.269055E-18	1.715501E-19
3.986840E+03	7.318100E-18	1.721048E-19
3.996516E+03	7.367725E-18	1.726635E-19
4.006193E+03	7.417657E-18	1.732198E-19
4.015870E+03	7.467962E-18	1.737750E-19
4.025547E+03	7.518872E-18	1.743344E-19
4.035224E+03	7.569981E-18	1.748885E-19
4.044900E+03	7.621674E-18	1.754462E-19
4.054577E+03	7.673564E-18	1.759984E-19
4.064254E+03	7.726041E-18	1.765539E-19
4.073931E+03	7.778880E-18	1.771075E-19
4.083608E+03	7.832020E-18	1.776578E-19
4.093284E+03	7.885549E-18	1.782067E-19
4.102961E+03	7.939412E-18	1.787528E-19
4.112638E+03	7.993700E-18	1.792981E-19
4.122315E+03	8.048222E-18	1.798382E-19
4.131991E+03	8.103217E-18	1.803785E-19
4.141668E+03	8.158497E-18	1.809147E-19
4.151345E+03	8.214017E-18	1.814456E-19
4.161022E+03	8.269880E-18	1.819736E-19
4.170699E+03	8.325902E-18	1.824945E-19
4.180375E+03	8.382186E-18	1.830106E-19
4.190052E+03	8.438683E-18	1.835208E-19
4.199729E+03	8.495353E-18	1.840242E-19
4.209406E+03	8.552146E-18	1.845197E-19
4.219083E+03	8.609018E-18	1.850064E-19
4.228759E+03	8.666046E-18	1.854859E-19
4.238436E+03	8.722908E-18	1.859513E-19
4.248113E+03	8.779809E-18	1.864072E-19
4.257790E+03	8.836690E-18	1.868523E-19
4.267467E+03	8.893351E-18	1.872825E-19
4.277143E+03	8.949976E-18	1.877017E-19
4.286820E+03	9.006494E-18	1.881085E-19
4.296497E+03	9.062687E-18	1.884984E-19
4.306174E+03	9.118726E-18	1.888750E-19
4.315851E+03	9.174642E-18	1.892391E-19
4.325527E+03	9.230203E-18	1.895860E-19
4.335204E+03	9.285432E-18	1.899162E-19
4.344881E+03	9.340214E-18	1.902275E-19
4.354558E+03	9.394559E-18	1.905202E-19
4.364235E+03	9.448472E-18	1.907947E-19
4.373911E+03	9.501950E-18	1.910509E-19
4.383588E+03	9.554860E-18	1.912864E-19
4.393265E+03	9.607196E-18	1.915013E-19
4.402942E+03	9.659196E-18	1.917004E-19
4.412619E+03	9.710592E-18	1.918786E-19
4.422295E+03	9.761613E-18	1.920406E-19
4.431972E+03	9.812115E-18	1.921838E-19
4.441649E+03	9.862325E-18	1.923128E-19
4.451326E+03	9.911966E-18	1.924222E-19
4.461003E+03	9.961264E-18	1.925168E-19
4.470679E+03	1.001018E-17	1.925960E-19
4.480356E+03	1.005883E-17	1.926620E-19
4.490033E+03	1.010716E-17	1.927141E-19
4.499710E+03	1.015516E-17	1.927522E-19
4.509386E+03	1.020291E-17	1.927780E-19
4.519063E+03	1.025050E-17	1.927935E-19
4.528740E+03	1.029791E-17	1.927982E-19
4.538417E+03	1.034523E-17	1.927940E-19
4.548094E+03	1.039255E-17	1.927829E-19
4.557770E+03	1.043996E-17	1.927665E-19
4.567447E+03	1.048757E-17	1.927469E-19
4.577124E+03	1.053533E-17	1.927234E-19
4.586801E+03	1.058335E-17	1.926980E-19
4.596478E+03	1.063197E-17	1.926770E-19
4.606154E+03	1.068129E-17	1.926622E-19
4.615831E+03	1.073129E-17	1.926532E-19
4.625508E+03	1.078219E-17	1.926540E-19
4.635185E+03	1.083410E-17	1.926663E-19
4.644862E+03	1.088701E-17	1.926898E-19
4.654538E+03	1.094076E-17	1.927219E-19
4.664215E+03	1.099521E-17	1.927601E-19
4.673892E+03	1.105035E-17	1.928041E-19
4.683569E+03	1.110603E-17	1.928515E-19
4.693246E+03	1.116224E-17	1.929021E-19
4.702922E+03	1.121897E-17	1.929558E-19
4.712599E+03	1.127607E-17	1.930103E-19
4.722276E+03	1.133353E-17	1.930655E-19
4.731953E+03	1.139133E-17	1.931214E-19
4.741630E+03	1.144948E-17	1.931780E-19
4.751306E+03	1.150794E-17	1.932352E-19
4.760983E+03	1.156660E-17	1.932912E-19
4.770660E+03	1.162555E-17	1.933480E-19
4.780337E+03	1.168481E-17	1.934058E-19
4.790014E+03	1.174435E-17	1.934648E-19
4.799690E+03	1.180405E-17	1.935229E-19
4.809367E+03	1.186416E-17	1.935847E-19
4.819044E+03	1.192440E-17	1.936462E-19
4.828721E+03	1.198505E-17	1.937119E-19
4.838398E+03	1.204596E-17	1.937799E-19
4.848074E+03	1.210713E-17	1.938506E-19
4.857751E+03	1.216870E-17	1.939263E-19
4.867428E+03	1.223067E-17	1.940077E-19
4.877105E+03	1.229276E-17	1.940908E-19
4.886781E+03	1.235538E-17	1.941823E-19
4.896458E+03	1.241841E-17	1.942807E-19
4.906135E+03	1.248170E-17	1.943843E-19
4.915812E+03	1.254541E-17	1.944958E-19
4.925489E+03	1.260966E-17	1.946178E-19
4.935165E+03	1.267420E-17	1.947467E-19
4.944842E+03	1.273931E-17	1.948873E-19
4.954519E+03	1.280485E-17	1.950382E-19
4.964196E+03	1.287098E-17	1.952021E-19
4.973873E+03	1.293756E-17	1.953776E-19
4.983549E+03	1.300462E-17	1.955655E-19
4.993226E+03	1.307229E-17	1.957687E-19
5.002903E+03	1.314059E-17	1.959877E-19
5.012580E+03	1.320953E-17	1.962236E-19
5.022257E+03	1.327900E-17	1.964751E-19
5.031933E+03	1.334914E-17	1.967451E-19
5.041610E+03	1.342011E-17	1.970366E-19
5.051287E+03	1.349165E-17	1.973464E-19
5.060964E+03	1.356391E-17	1.976775E-19
5.070641E+03	1.363706E-17	1.980330E-19
5.080317E+03	1.371096E-17	1.984117E-19
5.089994E+03	1.378565E-17	1.988148E-19
5.099671E+03	1.386114E-17	1.992433E-19
5.109348E+03	1.393759E-17	1.997003E-19
5.119025E+03	1.401488E-17	2.001850E-19
5.128701E+03	1.409303E-17	2.006983E-19
5.138378E+03	1.417220E-17	2.012436E-19
5.148055E+03	1.425227E-17	2.018199E-19
5.157732E+03	1.433341E-17	2.024305E-19
5.167409E+03	1.441547E-17	2.030744E-19
5.177085E+03	1.449864E-17	2.037549E-19
5.186762E+03	1.458277E-17	2.044711E-19
5.196439E+03	1.466802E-17	2.052262E-19
5.206116E+03	1.475440E-17	2.060213E-19
5.215793E+03	1.484176E-17	2.068554E-19
5.225469E+03	1.493009E-17	2.077293E-19
5.235146E+03	1.501954E-17	2.086462E-19
5.244823E+03	1.511006E-17	2.096065E-19
5.254500E+03	1.520132E-17	2.106067E-19
5.264177E+03	1.529371E-17	2.116534E-19
5.273853E+03	1.538670E-17	2.127405E-19
5.283530E+03	1.548051E-17	2.138720E-19
5.293207E+03	1.557491E-17	2.150458E-19
5.302884E+03	1.566994E-17	2.162639E-19
5.312560E+03	1.576536E-17	2.175239E-19
5.322237E+03	1.586106E-17	2.188256E-19
5.331914E+03	1.595714E-17	2.201715E-19
5.341591E+03	1.605335E-17	2.215593E-19
5.351268E+03	1.614963E-17	2.229893E-19
5.360944E+03	1.624609E-17	2.244636E-19
5.370621E+03	1.634268E-17	2.259816E-19
5.380298E+03	1.643904E-17	2.275386E-19
5.389975E+03	1.653544E-17	2.291386E-19
5.399652E+03	1.663187E-17	2.307815E-19
5.409328E+03	1.672796E-17	2.324622E-19
5.419005E+03	1.682402E-17	2.341851E-19
5.428682E+03	1.692003E-17	2.359501E-19
5.438359E+03	1.701563E-17	2.377519E-19
5.448036E+03	1.711130E-17	2.395975E-19
5.457712E+03	1.720653E-17	2.414794E-19
5.467389E+03	1.730146E-17	2.433996E-19
5.477066E+03	1.739624E-17	2.453601E-19
5.486743E+03	1.749069E-17	2.473582E-19
5.496420E+03	1.758497E-17	2.493960E-19
5.506096E+03	1.767872E-17	2.514680E-19
5.515773E+03	1.777226E-17	2.535789E-19
5.525450E+03	1.786524E-17	2.557230E-19
5.535127E+03	1.795782E-17	2.579025E-19
5.544804E+03	1.805015E-17	2.601193E-19
5.554480E+03	1.814186E-17	2.623678E-19
5.564157E+03	1.823294E-17	2.646473E-19
5.573834E+03	1.832375E-17	2.669625E-19
5.583511E+03	1.841388E-17	2.693074E-19
5.593188E+03	1.850334E-17	2.716816E-19
5.602864E+03	1.859210E-17	2.740841E-19
5.612541E+03	1.868033E-17	2.765169E-19
5.622218E+03	1.876783E-17	2.789767E-19
5.631895E+03	1.885458E-17	2.814626E-19
5.641572E+03	1.894056E-17	2.839738E-19
5.651248E+03	1.902556E-17	2.865066E-19
5.660925E+03	1.910994E-17	2.890658E-19
5.670602E+03	1.919331E-17	2.916450E-19
5.680279E+03	1.927564E-17	2.942430E-19
5.689955E+03	1.935710E-17	2.968618E-19
5.699632E+03	1.943747E-17	2.994975E-19
5.709309E+03	1.951673E-17	3.021492E-19
5.718986E+03	1.959487E-17	3.048157E-19
5.728663E+03	1.967184E-17	3.074959E-19
5.738339E+03	1.974764E-17	3.101888E-19
5.748016E+03	1.982222E-17	3.128931E-19
5.757693E+03	1.989556E-17	3.156078E-19
5.767370E+03	1.996726E-17	3.183257E-19
5.777047E+03	2.003786E-17	3.210544E-19
5.786723E+03	2.010695E-17	3.237868E-19
5.796400E+03	2.017449E-17	3.265216E-19
5.806077E+03	2.024045E-17	3.292573E-19
5.815754E+03	2.030481E-17	3.319926E-19
5.825431E+03	2.036753E-17	3.347263E-19
5.835107E+03	2.042838E-17	3.374535E-19
5.844784E+03	2.048753E-17	3.401764E-19
5.854461E+03	2.054494E-17	3.428932E-19
5.864138E+03	2.060018E-17	3.455959E-19
5.873815E+03	2.065362E-17	3.482897E-19
5.883491E+03	2.070482E-17	3.509663E-19
5.893168E+03	2.075395E-17	3.536276E-19
5.902845E+03	2.080076E-17	3.562684E-19
5.912522E+03	2.084542E-17	3.588905E-19
5.922199E+03	2.088749E-17	3.614854E-19
5.931875E+03	2.092733E-17	3.640582E-19
5.941552E+03	2.096471E-17	3.666039E-19
5.951229E+03	2.099979E-17	3.691243E-19
5.960906E+03	2.103253E-17	3.716177E-19
5.970583E+03	2.106311E-17	3.740860E-19
5.980259E+03	2.109168E-17	3.765314E-19
5.989936E+03	2.111823E-17	3.789524E-19
5.999613E+03	2.114228E-17	3.813397E-19
6.009290E+03	2.116382E-17	3.836918E-19
6.018967E+03	2.118280E-17	3.860070E-19
6.028643E+03	2.119920E-17	3.882837E-19
6.038320E+03	2.121300E-17	3.905206E-19
6.047997E+03	2.122419E-17	3.927163E-19
6.057674E+03	2.123276E-17	3.948696E-19
6.067350E+03	2.123871E-17	3.969795E-19
6.077027E+03	2.124249E-17	3.990530E-19
6.086704E+03	2.124366E-17	4.010814E-19
6.096381E+03	2.124291E-17	4.030761E-19
6.106058E+03	2.123981E-17	4.050285E-19
6.115734E+03	2.123459E-17	4.069420E-19
6.125411E+03	2.122728E-17	4.088161E-19
6.135088E+03	2.121833E-17	4.106586E-19
6.144765E+03	2.120733E-17	4.124607E-19
6.154442E+03	2.119451E-17	4.142263E-19
6.164118E+03	2.117989E-17	4.159549E-19
6.173795E+03	2.116349E-17	4.176461E-19
6.183472E+03	2.114556E-17	4.193038E-19
6.193149E+03	2.112588E-17	4.209234E-19
6.202826E+03	2.110470E-17	4.225090E-19
6.212502E+03	2.108182E-17	4.240557E-19
6.222179E+03	2.105727E-17	4.255635E-19
6.231856E+03	2.103104E-17	4.270318E-19
6.241533E+03	2.100318E-17	4.284605E-19
6.251210E+03	2.097348E-17	4.298448E-19
6.260886E+03	2.094195E-17	4.311844E-19
6.270563E+03	2.090863E-17	4.324789E-19
6.280240E+03	2.087330E-17	4.337235E-19
6.289917E+03	2.083598E-17	4.349178E-19
6.299594E+03	2.079648E-17	4.360569E-19
6.309270E+03	2.075547E-17	4.371542E-19
6.318947E+03	2.071275E-17	4.382050E-19
6.328624E+03	2.066878E-17	4.392184E-19
6.338301E+03	2.062359E-17	4.401944E-19
6.347978E+03	2.057719E-17	4.411329E-19
6.357654E+03	2.052982E-17	4.420386E-19
6.367331E+03	2.048151E-17	4.429116E-19
6.377008E+03	2.043250E-17	4.437567E-19
6.386685E+03	2.038279E-17	4.445741E-19
6.396362E+03	2.033243E-17	4.453639E-19
6.406038E+03	2.028164E-17	4.461311E-19
6.415715E+03	2.023023E-17	4.468712E-19
6.425392E+03	2.017843E-17	4.475891E-19
6.435069E+03	2.012628E-17	4.482852E-19
6.444746E+03	2.007378E-17	4.489596E-19
6.454422E+03	2.002095E-17	4.496127E-19
6.464099E+03	1.996781E-17	4.502446E-19
6.473776E+03	1.991439E-17	4.508557E-19
6.483453E+03	1.986070E-17	4.514463E-19
6.493129E+03	1.980676E-17	4.520166E-19
6.502806E+03	1.975280E-17	4.525719E-19
6.512483E+03	1.969863E-17	4.531077E-19
6.522160E+03	1.964448E-17	4.536291E-19
6.531837E+03	1.959015E-17	4.541316E-19
6.541513E+03	1.953565E-17	4.546154E-19
6.551190E+03	1.948100E-17	4.550806E-19
6.560867E+03	1.942666E-17	4.555382E-19
6.570544E+03	1.937199E-17	4.559728E-19
6.580221E+03	1.931743E-17	4.563952E-19
6.589897E+03	1.926300E-17	4.568059E-19
6.599574E+03	1.920851E-17	4.571998E-19
6.609251E+03	1.915396E-17	4.575773E-19
6.618928E+03	1.909981E-17	4.579494E-19
6.628605E+03	1.904541E-17	4.583005E-19
6.638281E+03	1.899144E-17	4.586469E-19
6.647958E+03	1.893747E-17	4.589785E-19
6.657635E+03	1.888375E-17	4.593008E-19
6.667312E+03	1.883005E-17	4.596090E-19
6.676989E+03	1.877662E-17	4.599087E-19
6.686665E+03	1.872347E-17	4.602004E-19
6.696342E+03	1.867038E-17	4.604790E-19
6.706019E+03	1.861783E-17	4.607559E-19
6.715696E+03	1.856537E-17	4.610205E-19
6.725373E+03	1.851324E-17	4.612787E-19
6.735049E+03	1.846124E-17	4.615254E-19
6.744726E+03	1.840982E-17	4.617721E-19
6.754403E+03	1.835854E-17	4.620081E-19
6.764080E+03	1.830765E-17	4.622393E-19
6.773757E+03	1.825738E-17	4.624719E-19
6.783433E+03	1.820728E-17	4.626949E-19
6.793110E+03	1.815761E-17	4.629146E-19
6.802787E+03	1.810837E-17	4.631313E-19
6.812464E+03	1.805935E-17	4.633395E-19
6.822141E+03	1.801101E-17	4.635515E-19
6.831817E+03	1.796313E-17	4.637616E-19
6.841494E+03	1.791573E-17	4.639705E-19
6.851171E+03	1.786905E-17	4.641845E-19
6.860848E+03	1.782264E-17	4.643921E-19
6.870524E+03	1.777674E-17	4.645999E-19
6.880201E+03	1.773159E-17	4.648140E-19
6.889878E+03	1.768675E-17	4.650233E-19
6.899555E+03	1.764267E-17	4.652399E-19
6.909232E+03	1.759937E-17	4.654640E-19
6.918908E+03	1.755642E-17	4.656848E-19
6.928585E+03	1.751427E-17	4.659141E-19
6.938262E+03	1.747269E-17	4.661466E-19
6.947939E+03	1.743194E-17	4.663889E-19
6.957616E+03	1.739180E-17	4.666353E-19
6.967292E+03	1.735228E-17	4.668862E-19
6.976969E+03	1.731360E-17	4.671483E-19
6.986646E+03	1.727579E-17	4.674219E-19
6.996323E+03	1.723862E-17	4.677014E-19
7.006000E+03	1.720232E-17	4.679934E-19
7.015676E+03	1.716670E-17	4.682923E-19
7.025353E+03	1.713197E-17	4.686046E-19
7.035030E+03	1.709814E-17	4.689309E-19
7.044707E+03	1.706501E-17	4.692655E-19
7.054384E+03	1.703281E-17	4.696148E-19
7.064060E+03	1.700154E-17	4.699796E-19
7.073737E+03	1.697121E-17	4.703602E-19
7.083414E+03	1.694184E-17	4.707571E-19
7.093091E+03	1.691320E-17	4.711644E-19
7.102768E+03	1.688553E-17	4.715891E-19
7.112444E+03	1.685906E-17	4.720377E-19
7.122121E+03	1.683357E-17	4.725043E-19
7.131798E+03	1.680886E-17	4.729834E-19
7.141475E+03	1.678560E-17	4.734943E-19
7.151152E+03	1.676334E-17	4.740247E-19
7.160828E+03	1.674210E-17	4.745752E-19
7.170505E+03	1.672233E-17	4.751589E-19
7.180182E+03	1.670405E-17	4.757765E-19
7.189859E+03	1.668703E-17	4.764221E-19
7.199536E+03	1.667173E-17	4.771089E-19
7.209212E+03	1.665748E-17	4.778183E-19
7.218889E+03	1.664475E-17	4.785637E-19
7.228566E+03	1.663309E-17	4.793327E-19
7.238243E+03	1.662273E-17	4.801321E-19
7.247919E+03	1.661323E-17	4.809493E-19
7.257596E+03	1.660481E-17	4.817914E-19
7.267273E+03	1.659727E-17	4.826521E-19
7.276950E+03	1.659082E-17	4.835383E-19
7.286627E+03	1.658526E-17	4.844440E-19
7.296303E+03	1.658059E-17	4.853695E-19
7.305980E+03	1.657658E-17	4.863082E-19
7.315657E+03	1.657369E-17	4.872741E-19
7.325334E+03	1.657149E-17	4.882541E-19
7.335011E+03	1.657018E-17	4.892549E-19
7.344687E+03	1.656955E-17	4.902704E-19
7.354364E+03	1.656985E-17	4.913075E-19
7.364041E+03	1.657106E-17	4.923666E-19
7.373718E+03	1.657296E-17	4.934409E-19
7.383395E+03	1.657556E-17	4.945309E-19
7.393071E+03	1.657909E-17	4.956436E-19
7.402748E+03	1.658310E-17	4.967656E-19
7.412425E+03	1.658803E-17	4.979107E-19
7.422102E+03	1.659391E-17	4.990792E-19
7.431779E+03	1.660026E-17	5.002575E-19
7.441455E+03	1.660756E-17	5.014598E-19
7.451132E+03	1.661533E-17	5.026722E-19
7.460809E+03	1.662406E-17	5.039088E-19
7.470486E+03	1.663350E-17	5.051629E-19
7.480163E+03	1.664388E-17	5.064416E-19
7.489839E+03	1.665476E-17	5.077312E-19
7.499516E+03	1.666658E-17	5.090458E-19
7.509193E+03	1.667912E-17	5.103785E-19
