#wls	flux	fluxerr
1.576355E+03	1.900028E-03	1.245227E-05
1.615764E+03	1.930779E-03	1.265380E-05
1.655172E+03	1.963344E-03	1.286722E-05
1.694581E+03	1.998118E-03	1.309511E-05
1.733990E+03	2.035826E-03	1.334223E-05
1.773399E+03	2.076277E-03	1.360734E-05
1.812808E+03	2.120237E-03	1.389543E-05
1.852217E+03	2.167859E-03	1.420753E-05
1.891626E+03	2.219633E-03	1.454684E-05
1.931034E+03	2.276081E-03	1.491677E-05
1.970443E+03	2.338085E-03	1.532313E-05
2.009852E+03	2.406241E-03	1.576979E-05
2.049261E+03	2.481522E-03	1.626316E-05
2.088670E+03	2.564960E-03	1.680998E-05
2.128079E+03	2.657289E-03	1.741507E-05
2.167488E+03	2.759284E-03	1.808351E-05
2.206897E+03	2.871760E-03	1.882064E-05
2.246305E+03	2.995954E-03	1.963457E-05
2.285714E+03	3.132398E-03	2.052877E-05
2.325123E+03	3.282025E-03	2.150937E-05
2.364532E+03	3.445402E-03	2.258009E-05
2.403941E+03	3.623088E-03	2.374458E-05
2.443350E+03	3.816032E-03	2.500906E-05
2.482759E+03	4.025170E-03	2.637968E-05
2.522167E+03	4.250127E-03	2.785397E-05
2.561576E+03	4.492108E-03	2.943983E-05
2.600985E+03	4.751364E-03	3.113890E-05
2.640394E+03	5.027959E-03	3.295160E-05
2.679803E+03	5.323099E-03	3.488584E-05
2.719212E+03	5.635434E-03	3.693278E-05
2.758621E+03	5.965511E-03	3.909598E-05
2.798030E+03	6.311536E-03	4.136371E-05
2.837438E+03	6.671024E-03	4.371966E-05
2.876847E+03	7.041175E-03	4.614549E-05
2.916256E+03	7.418711E-03	4.861973E-05
2.955665E+03	7.799736E-03	5.111682E-05
2.965517E+03	7.894897E-03	5.174047E-05
2.975369E+03	7.989908E-03	5.236314E-05
2.985222E+03	8.085154E-03	5.298735E-05
2.995074E+03	8.180006E-03	5.360897E-05
3.004926E+03	8.274331E-03	5.422714E-05
3.014778E+03	8.367990E-03	5.484095E-05
3.024631E+03	8.461336E-03	5.545270E-05
3.034483E+03	8.554225E-03	5.606146E-05
3.044335E+03	8.645977E-03	5.666277E-05
3.054187E+03	8.736930E-03	5.725884E-05
3.064039E+03	8.826906E-03	5.784851E-05
3.073892E+03	8.915709E-03	5.843049E-05
3.083744E+03	9.003140E-03	5.900348E-05
3.093596E+03	9.089503E-03	5.956947E-05
3.103448E+03	9.174064E-03	6.012365E-05
3.113300E+03	9.256598E-03	6.066454E-05
3.123153E+03	9.337367E-03	6.119387E-05
3.133005E+03	9.416121E-03	6.170999E-05
3.142857E+03	9.493094E-03	6.221444E-05
3.152709E+03	9.567015E-03	6.269889E-05
3.162562E+03	9.638595E-03	6.316800E-05
3.172414E+03	9.707043E-03	6.361658E-05
3.182266E+03	9.772542E-03	6.404583E-05
3.192118E+03	9.834781E-03	6.445372E-05
3.201970E+03	9.893427E-03	6.483807E-05
3.211823E+03	9.948626E-03	6.519982E-05
3.221675E+03	9.999542E-03	6.553350E-05
3.231527E+03	1.004630E-02	6.583994E-05
3.241379E+03	1.008854E-02	6.611673E-05
3.251232E+03	1.012635E-02	6.636452E-05
3.261084E+03	1.015888E-02	6.657772E-05
3.270936E+03	1.018622E-02	6.675690E-05
3.280788E+03	1.020799E-02	6.689958E-05
3.290640E+03	1.022426E-02	6.700620E-05
3.300493E+03	1.023421E-02	6.707142E-05
3.310345E+03	1.023837E-02	6.709865E-05
3.320197E+03	1.023593E-02	6.708269E-05
3.330049E+03	1.022703E-02	6.702434E-05
3.339901E+03	1.021136E-02	6.692164E-05
3.349754E+03	1.018909E-02	6.677567E-05
3.359606E+03	1.016001E-02	6.658508E-05
3.369458E+03	1.012398E-02	6.634898E-05
3.379310E+03	1.008136E-02	6.606964E-05
3.389163E+03	1.003255E-02	6.574973E-05
3.399015E+03	9.977302E-03	6.538768E-05
3.408867E+03	9.916651E-03	6.499019E-05
3.418719E+03	9.850647E-03	6.455762E-05
3.428571E+03	9.780599E-03	6.409855E-05
3.438424E+03	9.707617E-03	6.362025E-05
3.448276E+03	9.632007E-03	6.312473E-05
3.458128E+03	9.556024E-03	6.262676E-05
3.467980E+03	9.480807E-03	6.213381E-05
3.477833E+03	9.408431E-03	6.165948E-05
3.487685E+03	9.340609E-03	6.121500E-05
3.497537E+03	9.280198E-03	6.081908E-05
3.507389E+03	9.228718E-03	6.048169E-05
3.517241E+03	9.188581E-03	6.021865E-05
3.527094E+03	9.162200E-03	6.004575E-05
3.536946E+03	9.150246E-03	5.996741E-05
3.546798E+03	9.153435E-03	5.998831E-05
3.556650E+03	9.170426E-03	6.009966E-05
3.566502E+03	9.199846E-03	6.029246E-05
3.576355E+03	9.239119E-03	6.054984E-05
3.586207E+03	9.285882E-03	6.085630E-05
3.596059E+03	9.338161E-03	6.119892E-05
3.605911E+03	9.394270E-03	6.156663E-05
3.615764E+03	9.452411E-03	6.194766E-05
3.625616E+03	9.511660E-03	6.233596E-05
3.635468E+03	9.571259E-03	6.272655E-05
3.645320E+03	9.631080E-03	6.311859E-05
3.655172E+03	9.691122E-03	6.351208E-05
3.665025E+03	9.751964E-03	6.391081E-05
3.674877E+03	9.814501E-03	6.432065E-05
3.684729E+03	9.879446E-03	6.474628E-05
3.694581E+03	9.948220E-03	6.519699E-05
3.704433E+03	1.002244E-02	6.568343E-05
3.714286E+03	1.010413E-02	6.621876E-05
3.724138E+03	1.019453E-02	6.681118E-05
3.733990E+03	1.029587E-02	6.747537E-05
3.743842E+03	1.041003E-02	6.822349E-05
3.753695E+03	1.053932E-02	6.907080E-05
3.763547E+03	1.068543E-02	7.002840E-05
3.773399E+03	1.085070E-02	7.111151E-05
3.783251E+03	1.103701E-02	7.233250E-05
3.793103E+03	1.124620E-02	7.370344E-05
3.802956E+03	1.148052E-02	7.523908E-05
3.812808E+03	1.174177E-02	7.695123E-05
3.822660E+03	1.203173E-02	7.885149E-05
3.832512E+03	1.235261E-02	8.095442E-05
3.842365E+03	1.270623E-02	8.327191E-05
3.844335E+03	3.783003E-03	2.479240E-05
3.846305E+03	4.037140E-03	2.645792E-05
3.848276E+03	4.309258E-03	2.824128E-05
3.850246E+03	4.584287E-03	3.004371E-05
3.852217E+03	4.893579E-03	3.207070E-05
3.854187E+03	5.116685E-03	3.353286E-05
3.856158E+03	5.501854E-03	3.605711E-05
3.858128E+03	5.835560E-03	3.824410E-05
3.860099E+03	6.168693E-03	4.042733E-05
3.862069E+03	6.592039E-03	4.320178E-05
3.864039E+03	6.957293E-03	4.559552E-05
3.866010E+03	7.211626E-03	4.726232E-05
3.867980E+03	7.579458E-03	4.967295E-05
3.869951E+03	8.045357E-03	5.272628E-05
3.871921E+03	8.420594E-03	5.518544E-05
3.873892E+03	8.763167E-03	5.743054E-05
3.875862E+03	9.046300E-03	5.928609E-05
3.877833E+03	9.279640E-03	6.081531E-05
3.879803E+03	9.503700E-03	6.228372E-05
3.881773E+03	9.754912E-03	6.393007E-05
3.883744E+03	1.004956E-02	6.586109E-05
3.885714E+03	1.025593E-02	6.721355E-05
3.887685E+03	1.063710E-02	6.971162E-05
3.889655E+03	1.099899E-02	7.208332E-05
3.891626E+03	1.111492E-02	7.284304E-05
3.893596E+03	1.133689E-02	7.429776E-05
3.895567E+03	1.156864E-02	7.581660E-05
3.897537E+03	1.179209E-02	7.728094E-05
3.899507E+03	1.195243E-02	7.833177E-05
3.901478E+03	1.219639E-02	7.993063E-05
3.903448E+03	1.247307E-02	8.174387E-05
3.905419E+03	1.270873E-02	8.328832E-05
3.907389E+03	1.287804E-02	8.439786E-05
3.909360E+03	1.293511E-02	8.477192E-05
3.911330E+03	1.314545E-02	8.615038E-05
3.913300E+03	1.325442E-02	8.686452E-05
3.915271E+03	1.339960E-02	8.781597E-05
3.917241E+03	1.368236E-02	8.966910E-05
3.919212E+03	1.395548E-02	9.145901E-05
3.921182E+03	1.419723E-02	9.304333E-05
3.923153E+03	1.447519E-02	9.486498E-05
3.925123E+03	1.467953E-02	9.620415E-05
3.927094E+03	1.484163E-02	9.726650E-05
3.929064E+03	1.502908E-02	9.849500E-05
3.931034E+03	1.528413E-02	1.001665E-04
3.933005E+03	1.553315E-02	1.017985E-04
3.934975E+03	1.579667E-02	1.035255E-04
3.936946E+03	1.603121E-02	1.050626E-04
3.938916E+03	1.620661E-02	1.062121E-04
3.940887E+03	1.650877E-02	1.081923E-04
3.942857E+03	1.674091E-02	1.097136E-04
3.944828E+03	1.697909E-02	1.112746E-04
3.946798E+03	1.728126E-02	1.132549E-04
3.948768E+03	1.754360E-02	1.149742E-04
3.950739E+03	1.784940E-02	1.169783E-04
3.952709E+03	1.814434E-02	1.189112E-04
3.954680E+03	1.848758E-02	1.211607E-04
3.956650E+03	1.889482E-02	1.238296E-04
3.958621E+03	1.926463E-02	1.262532E-04
3.960591E+03	1.965497E-02	1.288114E-04
3.962562E+03	2.000669E-02	1.311163E-04
3.964532E+03	2.035599E-02	1.334055E-04
3.966502E+03	2.080069E-02	1.363199E-04
3.968473E+03	2.125867E-02	1.393214E-04
3.970443E+03	2.163817E-02	1.418085E-04
3.972414E+03	2.193556E-02	1.437574E-04
3.974384E+03	2.230419E-02	1.461733E-04
3.976355E+03	2.270785E-02	1.488187E-04
3.978325E+03	2.311513E-02	1.514879E-04
3.980296E+03	2.346565E-02	1.537851E-04
3.982266E+03	2.383429E-02	1.562010E-04
3.984236E+03	2.412080E-02	1.580787E-04
3.986207E+03	2.428533E-02	1.591570E-04
3.988177E+03	2.447885E-02	1.604252E-04
3.990148E+03	2.470496E-02	1.619071E-04
3.992118E+03	2.485619E-02	1.628981E-04
3.994089E+03	2.498929E-02	1.637705E-04
3.996059E+03	2.508133E-02	1.643736E-04
3.998030E+03	2.512866E-02	1.646838E-04
4.000000E+03	2.520256E-02	1.651681E-04
4.001970E+03	2.532355E-02	1.659610E-04
4.003941E+03	2.522954E-02	1.653450E-04
4.005911E+03	2.514398E-02	1.647842E-04
4.007882E+03	2.508014E-02	1.643659E-04
4.009852E+03	2.501147E-02	1.639158E-04
4.011823E+03	2.496693E-02	1.636239E-04
4.013793E+03	2.492842E-02	1.633715E-04
4.015764E+03	2.480536E-02	1.625650E-04
4.017734E+03	2.460860E-02	1.612755E-04
4.019704E+03	2.440458E-02	1.599384E-04
4.021675E+03	2.422954E-02	1.587913E-04
4.023645E+03	2.410762E-02	1.579923E-04
4.025616E+03	2.395913E-02	1.570192E-04
4.027586E+03	2.382149E-02	1.561171E-04
4.029557E+03	2.361138E-02	1.547401E-04
4.031527E+03	2.337950E-02	1.532205E-04
4.033498E+03	2.328169E-02	1.525794E-04
4.035468E+03	2.293867E-02	1.503314E-04
4.037438E+03	2.252438E-02	1.476163E-04
4.039409E+03	2.228763E-02	1.460647E-04
4.041379E+03	2.196028E-02	1.439194E-04
4.043350E+03	2.161722E-02	1.416711E-04
4.045320E+03	2.132246E-02	1.397394E-04
4.047291E+03	2.103253E-02	1.378393E-04
4.049261E+03	2.071843E-02	1.357808E-04
4.051232E+03	2.038862E-02	1.336193E-04
4.053202E+03	2.000807E-02	1.311254E-04
4.055172E+03	1.972656E-02	1.292805E-04
4.057143E+03	1.950423E-02	1.278234E-04
4.059113E+03	1.912729E-02	1.253530E-04
4.061084E+03	1.901485E-02	1.246162E-04
4.063054E+03	1.888671E-02	1.237764E-04
4.065025E+03	1.872232E-02	1.226991E-04
4.066995E+03	1.866905E-02	1.223499E-04
4.068966E+03	1.860973E-02	1.219611E-04
4.070936E+03	1.857093E-02	1.217069E-04
4.072906E+03	1.850796E-02	1.212942E-04
4.074877E+03	1.840514E-02	1.206203E-04
4.076847E+03	1.840496E-02	1.206192E-04
4.078818E+03	1.843739E-02	1.208317E-04
4.080788E+03	1.849758E-02	1.212262E-04
4.082759E+03	1.848410E-02	1.211378E-04
4.084729E+03	1.849475E-02	1.212076E-04
4.086700E+03	1.856699E-02	1.216811E-04
4.088670E+03	1.850517E-02	1.212759E-04
4.090640E+03	1.849164E-02	1.211873E-04
4.092611E+03	1.851193E-02	1.213202E-04
4.094581E+03	1.840781E-02	1.206378E-04
4.096552E+03	1.842083E-02	1.207231E-04
4.098522E+03	1.836138E-02	1.203335E-04
4.100493E+03	1.828260E-02	1.198173E-04
4.102463E+03	1.816759E-02	1.190635E-04
4.104433E+03	1.801272E-02	1.180486E-04
4.106404E+03	1.787959E-02	1.171761E-04
4.108374E+03	1.771626E-02	1.161057E-04
4.110345E+03	1.756622E-02	1.151224E-04
4.112315E+03	1.741254E-02	1.141152E-04
4.114286E+03	1.723472E-02	1.129498E-04
4.116256E+03	1.709794E-02	1.120535E-04
4.118227E+03	1.703119E-02	1.116160E-04
4.120197E+03	1.704774E-02	1.117245E-04
4.122167E+03	1.702082E-02	1.115480E-04
4.124138E+03	1.693714E-02	1.109996E-04
4.126108E+03	1.682811E-02	1.102851E-04
4.128079E+03	1.676736E-02	1.098869E-04
4.130049E+03	1.672592E-02	1.096154E-04
4.132020E+03	1.666516E-02	1.092172E-04
4.133990E+03	1.652834E-02	1.083205E-04
4.135961E+03	1.640963E-02	1.075425E-04
4.137931E+03	1.631868E-02	1.069465E-04
4.139901E+03	1.621082E-02	1.062396E-04
4.141872E+03	1.607882E-02	1.053745E-04
4.143842E+03	1.594321E-02	1.044857E-04
4.145813E+03	1.582448E-02	1.037076E-04
4.147783E+03	1.563937E-02	1.024945E-04
4.149754E+03	1.546151E-02	1.013289E-04
4.151724E+03	1.536571E-02	1.007010E-04
4.153695E+03	1.524336E-02	9.989918E-05
4.155665E+03	1.512342E-02	9.911317E-05
4.157635E+03	1.496848E-02	9.809778E-05
4.159606E+03	1.481114E-02	9.706660E-05
4.161576E+03	1.466224E-02	9.609078E-05
4.163547E+03	1.452541E-02	9.519405E-05
4.165517E+03	1.442599E-02	9.454244E-05
4.167488E+03	1.440740E-02	9.442064E-05
4.169458E+03	1.439001E-02	9.430667E-05
4.171429E+03	1.433401E-02	9.393965E-05
4.173399E+03	1.423578E-02	9.329589E-05
4.175369E+03	1.411824E-02	9.252562E-05
4.177340E+03	1.412617E-02	9.257753E-05
4.179310E+03	1.415218E-02	9.274799E-05
4.181281E+03	1.404549E-02	9.204882E-05
4.183251E+03	1.400756E-02	9.180023E-05
4.185222E+03	1.396117E-02	9.149624E-05
4.187192E+03	1.387499E-02	9.093140E-05
4.189163E+03	1.381413E-02	9.053255E-05
4.191133E+03	1.375567E-02	9.014946E-05
4.193103E+03	1.368154E-02	8.966362E-05
4.195074E+03	1.360138E-02	8.913825E-05
4.197044E+03	1.355256E-02	8.881833E-05
4.199015E+03	1.350254E-02	8.849050E-05
4.200985E+03	1.345854E-02	8.820217E-05
4.202956E+03	1.330361E-02	8.718683E-05
4.204926E+03	1.318124E-02	8.638486E-05
4.206897E+03	1.311193E-02	8.593059E-05
4.208867E+03	1.299679E-02	8.517604E-05
4.210837E+03	1.296605E-02	8.497456E-05
4.212808E+03	1.294133E-02	8.481252E-05
4.214778E+03	1.286115E-02	8.428709E-05
4.216749E+03	1.276290E-02	8.364318E-05
4.218719E+03	1.267067E-02	8.303875E-05
4.220690E+03	1.269897E-02	8.322419E-05
4.222660E+03	1.278509E-02	8.378863E-05
4.224631E+03	1.280733E-02	8.393439E-05
4.226601E+03	1.290307E-02	8.456183E-05
4.228571E+03	1.297228E-02	8.501539E-05
4.230542E+03	1.308003E-02	8.572155E-05
4.232512E+03	1.317090E-02	8.631705E-05
4.234483E+03	1.321476E-02	8.660450E-05
4.236453E+03	1.337064E-02	8.762610E-05
4.238424E+03	1.346025E-02	8.821332E-05
4.240394E+03	1.344986E-02	8.814523E-05
4.242365E+03	1.356713E-02	8.891381E-05
4.244335E+03	1.362537E-02	8.929549E-05
4.246305E+03	1.363662E-02	8.936924E-05
4.248276E+03	1.369845E-02	8.977440E-05
4.250246E+03	1.373617E-02	9.002160E-05
4.252217E+03	1.373053E-02	8.998465E-05
4.254187E+03	1.366709E-02	8.956888E-05
4.256158E+03	1.368793E-02	8.970544E-05
4.258128E+03	1.369430E-02	8.974723E-05
4.260099E+03	1.370548E-02	8.982051E-05
4.262069E+03	1.371546E-02	8.988586E-05
4.264039E+03	1.363755E-02	8.937527E-05
4.266010E+03	1.354880E-02	8.879370E-05
4.267980E+03	1.348895E-02	8.840143E-05
4.269951E+03	1.343271E-02	8.803282E-05
4.271921E+03	1.341016E-02	8.788505E-05
4.273892E+03	1.334067E-02	8.742966E-05
4.275862E+03	1.332292E-02	8.731336E-05
4.277833E+03	1.336051E-02	8.755970E-05
4.279803E+03	1.333192E-02	8.737231E-05
4.281773E+03	1.335746E-02	8.753966E-05
4.283744E+03	1.335171E-02	8.750197E-05
4.285714E+03	1.325935E-02	8.689669E-05
4.287685E+03	1.322953E-02	8.670130E-05
4.289655E+03	1.325263E-02	8.685264E-05
4.291626E+03	1.324204E-02	8.678325E-05
4.293596E+03	1.320740E-02	8.655622E-05
4.295567E+03	1.317755E-02	8.636065E-05
4.297537E+03	1.312727E-02	8.603113E-05
4.299507E+03	1.300727E-02	8.524466E-05
4.301478E+03	1.288126E-02	8.441884E-05
4.303448E+03	1.275406E-02	8.358522E-05
4.305419E+03	1.263528E-02	8.280681E-05
4.307389E+03	1.248166E-02	8.180005E-05
4.309360E+03	1.232205E-02	8.075403E-05
4.311330E+03	1.225618E-02	8.032234E-05
4.313300E+03	1.216028E-02	7.969382E-05
4.315271E+03	1.203194E-02	7.885275E-05
4.317241E+03	1.189653E-02	7.796530E-05
4.319212E+03	1.176342E-02	7.709293E-05
4.321182E+03	1.167788E-02	7.653235E-05
4.323153E+03	1.158478E-02	7.592221E-05
4.325123E+03	1.148724E-02	7.528300E-05
4.327094E+03	1.142142E-02	7.485161E-05
4.329064E+03	1.139414E-02	7.467284E-05
4.331034E+03	1.130034E-02	7.405813E-05
4.333005E+03	1.118015E-02	7.327039E-05
4.334975E+03	1.112046E-02	7.287923E-05
4.336946E+03	1.108166E-02	7.262496E-05
4.338916E+03	1.108667E-02	7.265776E-05
4.340887E+03	1.109022E-02	7.268108E-05
4.342857E+03	1.113601E-02	7.298112E-05
4.344828E+03	1.119186E-02	7.334714E-05
4.346798E+03	1.121805E-02	7.351881E-05
4.348768E+03	1.123740E-02	7.364558E-05
4.350739E+03	1.127388E-02	7.388467E-05
4.352709E+03	1.127053E-02	7.386272E-05
4.354680E+03	1.125050E-02	7.373148E-05
4.356650E+03	1.127664E-02	7.390278E-05
4.358621E+03	1.131235E-02	7.413682E-05
4.360591E+03	1.137479E-02	7.454599E-05
4.362562E+03	1.149654E-02	7.534393E-05
4.364532E+03	1.166849E-02	7.647079E-05
4.366502E+03	1.177771E-02	7.718657E-05
4.368473E+03	1.177340E-02	7.715836E-05
4.370443E+03	1.181379E-02	7.742302E-05
4.372414E+03	1.197373E-02	7.847125E-05
4.374384E+03	1.209686E-02	7.927816E-05
4.376355E+03	1.222378E-02	8.010996E-05
4.378325E+03	1.229916E-02	8.060397E-05
4.380296E+03	1.237332E-02	8.108997E-05
4.382266E+03	1.249535E-02	8.188974E-05
4.384236E+03	1.254909E-02	8.224194E-05
4.386207E+03	1.263036E-02	8.277452E-05
4.388177E+03	1.277145E-02	8.369917E-05
4.390148E+03	1.288617E-02	8.445097E-05
4.392118E+03	1.290749E-02	8.459071E-05
4.394089E+03	1.299941E-02	8.519310E-05
4.396059E+03	1.301112E-02	8.526987E-05
4.398030E+03	1.308384E-02	8.574644E-05
4.400000E+03	1.320918E-02	8.656786E-05
4.401970E+03	1.331533E-02	8.726355E-05
4.403941E+03	1.333653E-02	8.740247E-05
4.405911E+03	1.331346E-02	8.725128E-05
4.407882E+03	1.327245E-02	8.698253E-05
4.409852E+03	1.316328E-02	8.626709E-05
4.411823E+03	1.309717E-02	8.583382E-05
4.413793E+03	1.306932E-02	8.565127E-05
4.415764E+03	1.300799E-02	8.524936E-05
4.417734E+03	1.294906E-02	8.486315E-05
4.419704E+03	1.288655E-02	8.445347E-05
4.421675E+03	1.290170E-02	8.455280E-05
4.423645E+03	1.292760E-02	8.472252E-05
4.425616E+03	1.290331E-02	8.456329E-05
4.427586E+03	1.290409E-02	8.456844E-05
4.429557E+03	1.290128E-02	8.455000E-05
4.431527E+03	1.286860E-02	8.433587E-05
4.433498E+03	1.288249E-02	8.442691E-05
4.435468E+03	1.284384E-02	8.417358E-05
4.437438E+03	1.275147E-02	8.356824E-05
4.439409E+03	1.269850E-02	8.322108E-05
4.441379E+03	1.270997E-02	8.329627E-05
4.443350E+03	1.269280E-02	8.318369E-05
4.445320E+03	1.268038E-02	8.310231E-05
4.447291E+03	1.277293E-02	8.370885E-05
4.449261E+03	1.278314E-02	8.377580E-05
4.451232E+03	1.274923E-02	8.355352E-05
4.453202E+03	1.273676E-02	8.347184E-05
4.455172E+03	1.273264E-02	8.344482E-05
4.457143E+03	1.277976E-02	8.375364E-05
4.459113E+03	1.280302E-02	8.390609E-05
4.461084E+03	1.284772E-02	8.419901E-05
4.463054E+03	1.296269E-02	8.495245E-05
4.465025E+03	1.312288E-02	8.600232E-05
4.466995E+03	1.327231E-02	8.698157E-05
4.468966E+03	1.342762E-02	8.799947E-05
4.470936E+03	1.368768E-02	8.970376E-05
4.472906E+03	1.394288E-02	9.137627E-05
4.474877E+03	1.415752E-02	9.278295E-05
4.476847E+03	1.441018E-02	9.443873E-05
4.478818E+03	1.470559E-02	9.637477E-05
4.480788E+03	1.503184E-02	9.851287E-05
4.482759E+03	1.537463E-02	1.007594E-04
4.484729E+03	1.576965E-02	1.033482E-04
4.486700E+03	1.615859E-02	1.058971E-04
4.488670E+03	1.660210E-02	1.088037E-04
4.490640E+03	1.703832E-02	1.116626E-04
4.492611E+03	1.744467E-02	1.143256E-04
4.494581E+03	1.777480E-02	1.164891E-04
4.496552E+03	1.808697E-02	1.185350E-04
4.498522E+03	1.839547E-02	1.205568E-04
4.500493E+03	1.872048E-02	1.226868E-04
4.502463E+03	1.906438E-02	1.249405E-04
4.504433E+03	1.939745E-02	1.271234E-04
4.506404E+03	1.972684E-02	1.292821E-04
4.508374E+03	2.008104E-02	1.316033E-04
4.510345E+03	2.036980E-02	1.334958E-04
4.512315E+03	2.061690E-02	1.351152E-04
4.514286E+03	2.085678E-02	1.366872E-04
4.516256E+03	2.114520E-02	1.385775E-04
4.518227E+03	2.145486E-02	1.406069E-04
4.520197E+03	2.166950E-02	1.420135E-04
4.522167E+03	2.185676E-02	1.432408E-04
4.524138E+03	2.203919E-02	1.444363E-04
4.526108E+03	2.218952E-02	1.454216E-04
4.528079E+03	2.237772E-02	1.466549E-04
4.530049E+03	2.257529E-02	1.479497E-04
4.532020E+03	2.266969E-02	1.485684E-04
4.533990E+03	2.279364E-02	1.493807E-04
4.535961E+03	2.294713E-02	1.503866E-04
4.537931E+03	2.304134E-02	1.510040E-04
4.539901E+03	2.317100E-02	1.518537E-04
4.541872E+03	2.328757E-02	1.526177E-04
4.543842E+03	2.347035E-02	1.538156E-04
4.545813E+03	2.358440E-02	1.545630E-04
4.547783E+03	2.363093E-02	1.548679E-04
4.549754E+03	2.368096E-02	1.551959E-04
4.551724E+03	2.369310E-02	1.552754E-04
4.553695E+03	2.374660E-02	1.556260E-04
4.555665E+03	2.386390E-02	1.563947E-04
4.557635E+03	2.401659E-02	1.573954E-04
4.559606E+03	2.418455E-02	1.584962E-04
4.561576E+03	2.432643E-02	1.594260E-04
4.563547E+03	2.447885E-02	1.604249E-04
4.565517E+03	2.467490E-02	1.617097E-04
4.567488E+03	2.485784E-02	1.629086E-04
4.569458E+03	2.506784E-02	1.642849E-04
4.571429E+03	2.528953E-02	1.657377E-04
4.573399E+03	2.554296E-02	1.673987E-04
4.575369E+03	2.576322E-02	1.688422E-04
4.577340E+03	2.596095E-02	1.701380E-04
4.579310E+03	2.619159E-02	1.716495E-04
4.581281E+03	2.645984E-02	1.734075E-04
4.583251E+03	2.676922E-02	1.754351E-04
4.585222E+03	2.708079E-02	1.774770E-04
4.587192E+03	2.735566E-02	1.792784E-04
4.589163E+03	2.757264E-02	1.807004E-04
4.591133E+03	2.782720E-02	1.823686E-04
4.593103E+03	2.809691E-02	1.841363E-04
4.595074E+03	2.821811E-02	1.849305E-04
4.597044E+03	2.834156E-02	1.857396E-04
4.599015E+03	2.842844E-02	1.863089E-04
4.600985E+03	2.846698E-02	1.865615E-04
4.602956E+03	2.849606E-02	1.867521E-04
