#wls	flux	fluxerr
1.576355E+03	2.609670E-04	5.928338E-06
1.615764E+03	2.628539E-04	5.946663E-06
1.655172E+03	2.648945E-04	5.967534E-06
1.694581E+03	2.670917E-04	5.990953E-06
1.733990E+03	2.694485E-04	6.016919E-06
1.773399E+03	2.720178E-04	6.046535E-06
1.812808E+03	2.747537E-04	6.078694E-06
1.852217E+03	2.777095E-04	6.114494E-06
1.891626E+03	2.808895E-04	6.153930E-06
1.931034E+03	2.842981E-04	6.196992E-06
1.970443E+03	2.879395E-04	6.243665E-06
2.009852E+03	2.918696E-04	6.295046E-06
2.049261E+03	2.960941E-04	6.351116E-06
2.088670E+03	3.006184E-04	6.411853E-06
2.128079E+03	3.055010E-04	6.478345E-06
2.167488E+03	3.106954E-04	6.549441E-06
2.206897E+03	3.163145E-04	6.627341E-06
2.246305E+03	3.223123E-04	6.710881E-06
2.285714E+03	3.287502E-04	6.801130E-06
2.325123E+03	3.356910E-04	6.899151E-06
2.364532E+03	3.431442E-04	7.004875E-06
2.403941E+03	3.511192E-04	7.118224E-06
2.443350E+03	3.596813E-04	7.240228E-06
2.482759E+03	3.688975E-04	7.371906E-06
2.522167E+03	3.787793E-04	7.513132E-06
2.561576E+03	3.894529E-04	7.666016E-06
2.600985E+03	4.009314E-04	7.830383E-06
2.640394E+03	4.132851E-04	8.007136E-06
2.679803E+03	4.265855E-04	8.197154E-06
2.719212E+03	4.409626E-04	8.402375E-06
2.758621E+03	4.564861E-04	8.623495E-06
2.798030E+03	4.731632E-04	8.859991E-06
2.837438E+03	4.911748E-04	9.114539E-06
2.876847E+03	5.106351E-04	9.388456E-06
2.916256E+03	5.316444E-04	9.682715E-06
2.955665E+03	5.542202E-04	9.996711E-06
2.965517E+03	5.601001E-04	1.007802E-05
2.975369E+03	5.661030E-04	1.016095E-05
2.985222E+03	5.722268E-04	1.024543E-05
2.995074E+03	5.784693E-04	1.033141E-05
3.004926E+03	5.847658E-04	1.041772E-05
3.014778E+03	5.912389E-04	1.050652E-05
3.024631E+03	5.977605E-04	1.059553E-05
3.034483E+03	6.043900E-04	1.068577E-05
3.044335E+03	6.111870E-04	1.077830E-05
3.054187E+03	6.180214E-04	1.087079E-05
3.064039E+03	6.250153E-04	1.096538E-05
3.073892E+03	6.321005E-04	1.106085E-05
3.083744E+03	6.392722E-04	1.115711E-05
3.093596E+03	6.465240E-04	1.125403E-05
3.103448E+03	6.539135E-04	1.135259E-05
3.113300E+03	6.613704E-04	1.145156E-05
3.123153E+03	6.688871E-04	1.155080E-05
3.133005E+03	6.765186E-04	1.165125E-05
3.142857E+03	6.842567E-04	1.175274E-05
3.152709E+03	6.920278E-04	1.185400E-05
3.162562E+03	6.998849E-04	1.195592E-05
3.172414E+03	7.078174E-04	1.205832E-05
3.182266E+03	7.158127E-04	1.216097E-05
3.192118E+03	7.237945E-04	1.226257E-05
3.201970E+03	7.318124E-04	1.236394E-05
3.211823E+03	7.399158E-04	1.246593E-05
3.221675E+03	7.479611E-04	1.256610E-05
3.231527E+03	7.560591E-04	1.266632E-05
3.241379E+03	7.641296E-04	1.276524E-05
3.251232E+03	7.722167E-04	1.286359E-05
3.261084E+03	7.801753E-04	1.295897E-05
3.270936E+03	7.881751E-04	1.305420E-05
3.280788E+03	7.960070E-04	1.314583E-05
3.290640E+03	8.038386E-04	1.323663E-05
3.300493E+03	8.115238E-04	1.332420E-05
3.310345E+03	8.191043E-04	1.340926E-05
3.320197E+03	8.265593E-04	1.349147E-05
3.330049E+03	8.338686E-04	1.357053E-05
3.339901E+03	8.410145E-04	1.364617E-05
3.349754E+03	8.480408E-04	1.371912E-05
3.359606E+03	8.548114E-04	1.378721E-05
3.369458E+03	8.614359E-04	1.385223E-05
3.379310E+03	8.679049E-04	1.391406E-05
3.389163E+03	8.741534E-04	1.397168E-05
3.399015E+03	8.802393E-04	1.402605E-05
3.408867E+03	8.861062E-04	1.407630E-05
3.418719E+03	8.918781E-04	1.412442E-05
3.428571E+03	8.974500E-04	1.416877E-05
3.438424E+03	9.029538E-04	1.421146E-05
3.448276E+03	9.083556E-04	1.425197E-05
3.458128E+03	9.136856E-04	1.429079E-05
3.467980E+03	9.190370E-04	1.432938E-05
3.477833E+03	9.244551E-04	1.436844E-05
3.487685E+03	9.299371E-04	1.440793E-05
3.497537E+03	9.355993E-04	1.444964E-05
3.507389E+03	9.415071E-04	1.449454E-05
3.517241E+03	9.477297E-04	1.454367E-05
3.527094E+03	9.543344E-04	1.459801E-05
3.536946E+03	9.614319E-04	1.465919E-05
3.546798E+03	9.690075E-04	1.472692E-05
3.556650E+03	9.770743E-04	1.480134E-05
3.566502E+03	9.857305E-04	1.488385E-05
3.576355E+03	9.948599E-04	1.497262E-05
3.586207E+03	1.004497E-03	1.506810E-05
3.596059E+03	1.014676E-03	1.517073E-05
3.605911E+03	1.025287E-03	1.527880E-05
3.615764E+03	1.036428E-03	1.539369E-05
3.625616E+03	1.048104E-03	1.551541E-05
3.635468E+03	1.060282E-03	1.564337E-05
3.645320E+03	1.073084E-03	1.577931E-05
3.655172E+03	1.086445E-03	1.592218E-05
3.665025E+03	1.100455E-03	1.607322E-05
3.674877E+03	1.115160E-03	1.623300E-05
3.684729E+03	1.130661E-03	1.640288E-05
3.694581E+03	1.146969E-03	1.658290E-05
3.704433E+03	1.164194E-03	1.677454E-05
3.714286E+03	1.182410E-03	1.697871E-05
3.724138E+03	1.201648E-03	1.719573E-05
3.733990E+03	1.222094E-03	1.742809E-05
3.743842E+03	1.243799E-03	1.767633E-05
3.753695E+03	1.266870E-03	1.794180E-05
3.763547E+03	1.291421E-03	1.822591E-05
3.773399E+03	1.317618E-03	1.853075E-05
3.783251E+03	1.345527E-03	1.885705E-05
3.793103E+03	1.375311E-03	1.920679E-05
3.802956E+03	1.407117E-03	1.958178E-05
3.812808E+03	1.440937E-03	1.998160E-05
3.822660E+03	1.476886E-03	2.040753E-05
3.832512E+03	1.515004E-03	2.085986E-05
3.842365E+03	1.555305E-03	2.133841E-05
3.852217E+03	1.597815E-03	2.184326E-05
3.862069E+03	1.642425E-03	2.237260E-05
3.871921E+03	1.689034E-03	2.292475E-05
3.881773E+03	1.737553E-03	2.349821E-05
3.891626E+03	1.787744E-03	2.408954E-05
3.901478E+03	1.839440E-03	2.469623E-05
3.911330E+03	1.892383E-03	2.531463E-05
3.921182E+03	1.946232E-03	2.594002E-05
3.931034E+03	2.000727E-03	2.656883E-05
3.940887E+03	2.055476E-03	2.719579E-05
3.950739E+03	2.110180E-03	2.781694E-05
3.960591E+03	2.164470E-03	2.842745E-05
3.970443E+03	2.217912E-03	2.902172E-05
3.980296E+03	2.270180E-03	2.959564E-05
3.990148E+03	2.320785E-03	3.014305E-05
4.000000E+03	2.369542E-03	3.066181E-05
4.009852E+03	2.415960E-03	3.114588E-05
4.019704E+03	2.459885E-03	3.159364E-05
4.029557E+03	2.501004E-03	3.200145E-05
4.039409E+03	2.539311E-03	3.236969E-05
4.049261E+03	2.574659E-03	3.269689E-05
4.059113E+03	2.607097E-03	3.298411E-05
4.068966E+03	2.636805E-03	3.323407E-05
4.078818E+03	2.663855E-03	3.344809E-05
4.088670E+03	2.688586E-03	3.363081E-05
4.098522E+03	2.711139E-03	3.378431E-05
4.108374E+03	2.731718E-03	3.391148E-05
4.118227E+03	2.750686E-03	3.401709E-05
4.128079E+03	2.768165E-03	3.410291E-05
4.137931E+03	2.784367E-03	3.417175E-05
4.147783E+03	2.799471E-03	3.422600E-05
4.157635E+03	2.813572E-03	3.426701E-05
4.167488E+03	2.826792E-03	3.429641E-05
4.177340E+03	2.839174E-03	3.431487E-05
4.187192E+03	2.850741E-03	3.432278E-05
4.197044E+03	2.861546E-03	3.432092E-05
4.206897E+03	2.871627E-03	3.430988E-05
4.216749E+03	2.880917E-03	3.428897E-05
4.226601E+03	2.889443E-03	3.425866E-05
4.236453E+03	2.897238E-03	3.421944E-05
4.246305E+03	2.904207E-03	3.417032E-05
4.256158E+03	2.910468E-03	3.411282E-05
4.266010E+03	2.916036E-03	3.404724E-05
4.275862E+03	2.921063E-03	3.397544E-05
4.285714E+03	2.925668E-03	3.389889E-05
4.295567E+03	2.930086E-03	3.382041E-05
4.305419E+03	2.934602E-03	3.374330E-05
4.315271E+03	2.939740E-03	3.367358E-05
4.325123E+03	2.945884E-03	3.361556E-05
4.334975E+03	2.953582E-03	3.357538E-05
4.344828E+03	2.963260E-03	3.355767E-05
4.354680E+03	2.975392E-03	3.356754E-05
4.364532E+03	2.990355E-03	3.360897E-05
4.374384E+03	3.008582E-03	3.368645E-05
4.384236E+03	3.030308E-03	3.380223E-05
4.394089E+03	3.055707E-03	3.395785E-05
4.403941E+03	3.084800E-03	3.415310E-05
4.413793E+03	3.117459E-03	3.438615E-05
4.423645E+03	3.153460E-03	3.465412E-05
4.433498E+03	3.192388E-03	3.495206E-05
4.443350E+03	3.233862E-03	3.527548E-05
4.453202E+03	3.277311E-03	3.561791E-05
4.463054E+03	3.322206E-03	3.597338E-05
4.472906E+03	3.367949E-03	3.633531E-05
4.482759E+03	3.413930E-03	3.669706E-05
4.492611E+03	3.459580E-03	3.705255E-05
4.502463E+03	3.504300E-03	3.739542E-05
4.512315E+03	3.547513E-03	3.771969E-05
4.522167E+03	3.588722E-03	3.802030E-05
4.532020E+03	3.627448E-03	3.829244E-05
4.541872E+03	3.663248E-03	3.853173E-05
4.551724E+03	3.695915E-03	3.873638E-05
4.561576E+03	3.725283E-03	3.890500E-05
4.571429E+03	3.751334E-03	3.903780E-05
4.581281E+03	3.774216E-03	3.913670E-05
4.591133E+03	3.794287E-03	3.920573E-05
4.600985E+03	3.812066E-03	3.925059E-05
4.610837E+03	3.828130E-03	3.927742E-05
4.620690E+03	3.843299E-03	3.929481E-05
4.630542E+03	3.858416E-03	3.931145E-05
4.640394E+03	3.874182E-03	3.933446E-05
4.650246E+03	3.891403E-03	3.937194E-05
4.660099E+03	3.910235E-03	3.942531E-05
4.669951E+03	3.930491E-03	3.949254E-05
4.679803E+03	3.951687E-03	3.956861E-05
4.689655E+03	3.973134E-03	3.964659E-05
4.699507E+03	3.994178E-03	3.971995E-05
4.709360E+03	4.014108E-03	3.978170E-05
4.719212E+03	4.032419E-03	3.982696E-05
4.729064E+03	4.048699E-03	3.985186E-05
4.738916E+03	4.062651E-03	3.985371E-05
4.748768E+03	4.074071E-03	3.983075E-05
4.758621E+03	4.082947E-03	3.978310E-05
4.768473E+03	4.089333E-03	3.971157E-05
4.778325E+03	4.093485E-03	3.961886E-05
4.788177E+03	4.095805E-03	3.950909E-05
4.798030E+03	4.096781E-03	3.938709E-05
4.807882E+03	4.097091E-03	3.925946E-05
4.817734E+03	4.097401E-03	3.913261E-05
4.827586E+03	4.098503E-03	3.901404E-05
4.837438E+03	4.101106E-03	3.891040E-05
4.847291E+03	4.105943E-03	3.882843E-05
4.857143E+03	4.113716E-03	3.877453E-05
4.866995E+03	4.124949E-03	3.875335E-05
4.876847E+03	4.140127E-03	3.876907E-05
4.886700E+03	4.159514E-03	3.882380E-05
4.896552E+03	4.183185E-03	3.891781E-05
4.906404E+03	4.210973E-03	3.904919E-05
4.916256E+03	4.242539E-03	3.921440E-05
4.926108E+03	4.277239E-03	3.940717E-05
4.935961E+03	4.314216E-03	3.961934E-05
4.945813E+03	4.352470E-03	3.984156E-05
4.955665E+03	4.390733E-03	4.006214E-05
4.965517E+03	4.427903E-03	4.027105E-05
4.975369E+03	4.462719E-03	4.045696E-05
4.985222E+03	4.494087E-03	4.061019E-05
4.995074E+03	4.521139E-03	4.072322E-05
5.004926E+03	4.543202E-03	4.079038E-05
5.014778E+03	4.560005E-03	4.080967E-05
5.024631E+03	4.571577E-03	4.078182E-05
5.034483E+03	4.578319E-03	4.071081E-05
5.044335E+03	4.580833E-03	4.060242E-05
5.054187E+03	4.580001E-03	4.046478E-05
5.064039E+03	4.576721E-03	4.030607E-05
5.073892E+03	4.572000E-03	4.013535E-05
5.083744E+03	4.566697E-03	3.996025E-05
5.093596E+03	4.561529E-03	3.978706E-05
5.103448E+03	4.557052E-03	3.962061E-05
5.113300E+03	4.553479E-03	3.946269E-05
5.123153E+03	4.551015E-03	3.931498E-05
5.133005E+03	4.549507E-03	3.917610E-05
5.142857E+03	4.548872E-03	3.904524E-05
5.152709E+03	4.548864E-03	3.892023E-05
5.162562E+03	4.549115E-03	3.879790E-05
5.172414E+03	4.549455E-03	3.867677E-05
5.182266E+03	4.549611E-03	3.855455E-05
5.192118E+03	4.549400E-03	3.842970E-05
5.201970E+03	4.548728E-03	3.830149E-05
5.211823E+03	4.547379E-03	3.816815E-05
5.221675E+03	4.545287E-03	3.802919E-05
5.231527E+03	4.542356E-03	3.788388E-05
5.241379E+03	4.538287E-03	3.772983E-05
5.251232E+03	4.533023E-03	3.756666E-05
5.261084E+03	4.526264E-03	3.739201E-05
5.270936E+03	4.517864E-03	3.720481E-05
5.280788E+03	4.507689E-03	3.700411E-05
5.290640E+03	4.495602E-03	3.678894E-05
5.300493E+03	4.481799E-03	3.656108E-05
5.310345E+03	4.466548E-03	3.632283E-05
5.320197E+03	4.450204E-03	3.607721E-05
5.330049E+03	4.433541E-03	3.583059E-05
5.339901E+03	4.417277E-03	3.558874E-05
5.349754E+03	4.402418E-03	3.535971E-05
5.359606E+03	4.390105E-03	3.515247E-05
5.369458E+03	4.381577E-03	3.497674E-05
5.379310E+03	4.378126E-03	3.484247E-05
5.389163E+03	4.381049E-03	3.475956E-05
5.399015E+03	4.391637E-03	3.473778E-05
5.408867E+03	4.410793E-03	3.478365E-05
5.418719E+03	4.438958E-03	3.490004E-05
5.428571E+03	4.475672E-03	3.508270E-05
5.438424E+03	4.520124E-03	3.532468E-05
5.448276E+03	4.570878E-03	3.561426E-05
5.458128E+03	4.626416E-03	3.593922E-05
5.467980E+03	4.685050E-03	3.628617E-05
5.477833E+03	4.744824E-03	3.663980E-05
5.487685E+03	4.803910E-03	3.698600E-05
5.497537E+03	4.860459E-03	3.731061E-05
5.507389E+03	4.912733E-03	3.760057E-05
5.517241E+03	4.959087E-03	3.784361E-05
5.527094E+03	4.998355E-03	3.803130E-05
5.536946E+03	5.029551E-03	3.815666E-05
5.546798E+03	5.052165E-03	3.821639E-05
5.556650E+03	5.065959E-03	3.820929E-05
5.566502E+03	5.071159E-03	3.813766E-05
5.576355E+03	5.068169E-03	3.800511E-05
5.586207E+03	5.057763E-03	3.781800E-05
5.596059E+03	5.040773E-03	3.758301E-05
5.605911E+03	5.018337E-03	3.730906E-05
5.615764E+03	4.991477E-03	3.700407E-05
5.625616E+03	4.961490E-03	3.667795E-05
5.635468E+03	4.929562E-03	3.633964E-05
5.645320E+03	4.897145E-03	3.599995E-05
5.655172E+03	4.865632E-03	3.566915E-05
5.665025E+03	4.836587E-03	3.535864E-05
5.674877E+03	4.811553E-03	3.507954E-05
5.684729E+03	4.792136E-03	3.484332E-05
5.694581E+03	4.779966E-03	3.466149E-05
5.704433E+03	4.776501E-03	3.454422E-05
5.714286E+03	4.783130E-03	3.450107E-05
5.724138E+03	4.800988E-03	3.453969E-05
5.733990E+03	4.830868E-03	3.466521E-05
5.743842E+03	4.873340E-03	3.488112E-05
5.753695E+03	4.928540E-03	3.518781E-05
5.763547E+03	4.996138E-03	3.558235E-05
5.773399E+03	5.075401E-03	3.605901E-05
5.783251E+03	5.165225E-03	3.660952E-05
5.793103E+03	5.263812E-03	3.722078E-05
5.802956E+03	5.369005E-03	3.787734E-05
5.812808E+03	5.478246E-03	3.856106E-05
5.822660E+03	5.588514E-03	3.925075E-05
5.832512E+03	5.696620E-03	3.992425E-05
5.842365E+03	5.799090E-03	4.055757E-05
5.852217E+03	5.892708E-03	4.112877E-05
5.862069E+03	5.974313E-03	4.161644E-05
5.871921E+03	6.041193E-03	4.200243E-05
5.881773E+03	6.091131E-03	4.227216E-05
5.891626E+03	6.122698E-03	4.241656E-05
5.901478E+03	6.135080E-03	4.243086E-05
5.911330E+03	6.128292E-03	4.231595E-05
5.921182E+03	6.102868E-03	4.207629E-05
5.931034E+03	6.060084E-03	4.172131E-05
5.940887E+03	6.001566E-03	4.126274E-05
5.950739E+03	5.929347E-03	4.071502E-05
5.960591E+03	5.845602E-03	4.009339E-05
5.970443E+03	5.752759E-03	3.941472E-05
5.980296E+03	5.653141E-03	3.869504E-05
5.990148E+03	5.549050E-03	3.795012E-05
6.000000E+03	5.442735E-03	3.719531E-05
6.009852E+03	5.336278E-03	3.644473E-05
6.019704E+03	5.231645E-03	3.571167E-05
6.029557E+03	5.130647E-03	3.500833E-05
6.039409E+03	5.034821E-03	3.434502E-05
6.049261E+03	4.945682E-03	3.373192E-05
6.059113E+03	4.864531E-03	3.317773E-05
6.068966E+03	4.792428E-03	3.268959E-05
6.078818E+03	4.730398E-03	3.227439E-05
6.088670E+03	4.679230E-03	3.193751E-05
6.098522E+03	4.639296E-03	3.168151E-05
6.108374E+03	4.610449E-03	3.150548E-05
6.118227E+03	4.591726E-03	3.140299E-05
6.128079E+03	4.581792E-03	3.136505E-05
6.137931E+03	4.579180E-03	3.138169E-05
6.147783E+03	4.582457E-03	3.144312E-05
6.157635E+03	4.590145E-03	3.153923E-05
6.167488E+03	4.600788E-03	3.166006E-05
6.177340E+03	4.612978E-03	3.179591E-05
6.187192E+03	4.625412E-03	3.193776E-05
6.197044E+03	4.636898E-03	3.207730E-05
6.206897E+03	4.646294E-03	3.220648E-05
6.216749E+03	4.652752E-03	3.231924E-05
6.226601E+03	4.655568E-03	3.241046E-05
6.236453E+03	4.654463E-03	3.247792E-05
6.246305E+03	4.649328E-03	3.252053E-05
6.256158E+03	4.640398E-03	3.253964E-05
6.266010E+03	4.628180E-03	3.253846E-05
6.275862E+03	4.613457E-03	3.252219E-05
6.285714E+03	4.597010E-03	3.249609E-05
6.295567E+03	4.579905E-03	3.246745E-05
6.305419E+03	4.563061E-03	3.244265E-05
6.315271E+03	4.547390E-03	3.242806E-05
6.325123E+03	4.533689E-03	3.242933E-05
6.334975E+03	4.522542E-03	3.245064E-05
6.344828E+03	4.514409E-03	3.249537E-05
6.354680E+03	4.509554E-03	3.256552E-05
6.364532E+03	4.508034E-03	3.266161E-05
6.374384E+03	4.509733E-03	3.278295E-05
6.384236E+03	4.514309E-03	3.292718E-05
6.394089E+03	4.521351E-03	3.309142E-05
6.403941E+03	4.530280E-03	3.327152E-05
6.413793E+03	4.540623E-03	3.346405E-05
6.423645E+03	4.551780E-03	3.366461E-05
6.433498E+03	4.563091E-03	3.386828E-05
6.443350E+03	4.574203E-03	3.407239E-05
6.453202E+03	4.584668E-03	3.427347E-05
6.463054E+03	4.594320E-03	3.447017E-05
6.472906E+03	4.602984E-03	3.466103E-05
6.482759E+03	4.610721E-03	3.484637E-05
6.492611E+03	4.617713E-03	3.502741E-05
6.502463E+03	4.624172E-03	3.520565E-05
6.512315E+03	4.630389E-03	3.538318E-05
6.522167E+03	4.636577E-03	3.556157E-05
6.532020E+03	4.642916E-03	3.574213E-05
6.541872E+03	4.649417E-03	3.592490E-05
6.551724E+03	4.655979E-03	3.610906E-05
6.561576E+03	4.662246E-03	3.629178E-05
6.571429E+03	4.667858E-03	3.647016E-05
6.581281E+03	4.672176E-03	3.663909E-05
6.591133E+03	4.674575E-03	3.679350E-05
6.600985E+03	4.674382E-03	3.692783E-05
6.610837E+03	4.670774E-03	3.703530E-05
6.620690E+03	4.663250E-03	3.711157E-05
6.630542E+03	4.651122E-03	3.715077E-05
6.640394E+03	4.633990E-03	3.714925E-05
6.650246E+03	4.611609E-03	3.710454E-05
6.660099E+03	4.583771E-03	3.701448E-05
6.669951E+03	4.550502E-03	3.687877E-05
6.679803E+03	4.512040E-03	3.669884E-05
6.689655E+03	4.468787E-03	3.647749E-05
6.699507E+03	4.421119E-03	3.621735E-05
6.709360E+03	4.369716E-03	3.592361E-05
6.719212E+03	4.315352E-03	3.560230E-05
6.729064E+03	4.258786E-03	3.525945E-05
6.738916E+03	4.200897E-03	3.490215E-05
6.748768E+03	4.142656E-03	3.453837E-05
6.758621E+03	4.084941E-03	3.417542E-05
6.768473E+03	4.028792E-03	3.382209E-05
6.778325E+03	3.974977E-03	3.348495E-05
6.788177E+03	3.924519E-03	3.317288E-05
6.798030E+03	3.878208E-03	3.289286E-05
6.807882E+03	3.836777E-03	3.265150E-05
6.817734E+03	3.800998E-03	3.245579E-05
6.827586E+03	3.771529E-03	3.231189E-05
6.837438E+03	3.749011E-03	3.222583E-05
6.847291E+03	3.733873E-03	3.220192E-05
6.857143E+03	3.726599E-03	3.224499E-05
6.866995E+03	3.727531E-03	3.235867E-05
6.876847E+03	3.736888E-03	3.254558E-05
6.886700E+03	3.754753E-03	3.280716E-05
6.896552E+03	3.780997E-03	3.314300E-05
6.906404E+03	3.815440E-03	3.355226E-05
6.916256E+03	3.857565E-03	3.403104E-05
6.926108E+03	3.906635E-03	3.457350E-05
6.935961E+03	3.961803E-03	3.517269E-05
6.945813E+03	4.021978E-03	3.581943E-05
6.955665E+03	4.085902E-03	3.650292E-05
6.965517E+03	4.152194E-03	3.721109E-05
6.975369E+03	4.219357E-03	3.793072E-05
6.985222E+03	4.285928E-03	3.864868E-05
6.995074E+03	4.350576E-03	3.935292E-05
7.004926E+03	4.412044E-03	4.003191E-05
7.014778E+03	4.469152E-03	4.067465E-05
7.024631E+03	4.521197E-03	4.127439E-05
7.034483E+03	4.567573E-03	4.182520E-05
7.044335E+03	4.608010E-03	4.232415E-05
7.054187E+03	4.642516E-03	4.277085E-05
7.064039E+03	4.671334E-03	4.316710E-05
7.073892E+03	4.694909E-03	4.351657E-05
7.083744E+03	4.713782E-03	4.382391E-05
7.093596E+03	4.728634E-03	4.409510E-05
7.103448E+03	4.740244E-03	4.433714E-05
7.113300E+03	4.749309E-03	4.455632E-05
7.123153E+03	4.756324E-03	4.475715E-05
7.133005E+03	4.761853E-03	4.494481E-05
7.142857E+03	4.766250E-03	4.512257E-05
7.152709E+03	4.769722E-03	4.529236E-05
7.162562E+03	4.772237E-03	4.545384E-05
7.172414E+03	4.773674E-03	4.560580E-05
7.182266E+03	4.773830E-03	4.574627E-05
7.192118E+03	4.772196E-03	4.587030E-05
7.201970E+03	4.768361E-03	4.597380E-05
7.211823E+03	4.761779E-03	4.605136E-05
7.221675E+03	4.751759E-03	4.609608E-05
7.231527E+03	4.737840E-03	4.610321E-05
7.241379E+03	4.719365E-03	4.606603E-05
7.251232E+03	4.695873E-03	4.597965E-05
7.261084E+03	4.666936E-03	4.583945E-05
7.270936E+03	4.632409E-03	4.564354E-05
7.280788E+03	4.592138E-03	4.538991E-05
7.290640E+03	4.546233E-03	4.507913E-05
7.300493E+03	4.495155E-03	4.471526E-05
7.310345E+03	4.439421E-03	4.430300E-05
7.320197E+03	4.379847E-03	4.385006E-05
7.330049E+03	4.317509E-03	4.336688E-05
7.339901E+03	4.253744E-03	4.286665E-05
7.349754E+03	4.190014E-03	4.236400E-05
7.359606E+03	4.127837E-03	4.187433E-05
7.369458E+03	4.068830E-03	4.141423E-05
7.379310E+03	4.014546E-03	4.099986E-05
7.389163E+03	3.966458E-03	4.064680E-05
7.399015E+03	3.925580E-03	4.036612E-05
7.408867E+03	3.892383E-03	4.016345E-05
7.418719E+03	3.866461E-03	4.003538E-05
7.428571E+03	3.847147E-03	3.997580E-05
7.438424E+03	3.833640E-03	3.997710E-05
7.448276E+03	3.825226E-03	4.003250E-05
7.458128E+03	3.821114E-03	4.013426E-05
7.467980E+03	3.820799E-03	4.027762E-05
7.477833E+03	3.823715E-03	4.045704E-05
7.487685E+03	3.829477E-03	4.066889E-05
7.497537E+03	3.837724E-03	4.090971E-05
7.507389E+03	3.848161E-03	4.117660E-05
7.517241E+03	3.860488E-03	4.146662E-05
7.527094E+03	3.874598E-03	4.177882E-05
7.536946E+03	3.890259E-03	4.211089E-05
7.546798E+03	3.907360E-03	4.246180E-05
7.556650E+03	3.925645E-03	4.282895E-05
7.566502E+03	3.945073E-03	4.321201E-05
7.576355E+03	3.965499E-03	4.360955E-05
7.586207E+03	3.986724E-03	4.401946E-05
7.596059E+03	4.008644E-03	4.444071E-05
7.605911E+03	4.031042E-03	4.487095E-05
7.615764E+03	4.053789E-03	4.530880E-05
7.625616E+03	4.076645E-03	4.575160E-05
7.635468E+03	4.099443E-03	4.619748E-05
7.645320E+03	4.121959E-03	4.664387E-05
