#wls	flux	fluxerr
1.576355E+03	1.896956E-04	7.162659E-06
1.615764E+03	1.908690E-04	7.172577E-06
1.655172E+03	1.920827E-04	7.182777E-06
1.694581E+03	1.934020E-04	7.195650E-06
1.733990E+03	1.947596E-04	7.208607E-06
1.773399E+03	1.961874E-04	7.222776E-06
1.812808E+03	1.977175E-04	7.239257E-06
1.852217E+03	1.993148E-04	7.256682E-06
1.891626E+03	2.010112E-04	7.276121E-06
1.931034E+03	2.027708E-04	7.296194E-06
1.970443E+03	2.046247E-04	7.317937E-06
2.009852E+03	2.065366E-04	7.339951E-06
2.049261E+03	2.085707E-04	7.364432E-06
2.088670E+03	2.107236E-04	7.391137E-06
2.128079E+03	2.129234E-04	7.417431E-06
2.167488E+03	2.152672E-04	7.446603E-06
2.206897E+03	2.177158E-04	7.477157E-06
2.246305E+03	2.202293E-04	7.507604E-06
2.285714E+03	2.229032E-04	7.541083E-06
2.325123E+03	2.256276E-04	7.573730E-06
2.364532E+03	2.284963E-04	7.608582E-06
2.403941E+03	2.314997E-04	7.645156E-06
2.443350E+03	2.345927E-04	7.681811E-06
2.482759E+03	2.377973E-04	7.719135E-06
2.522167E+03	2.410996E-04	7.756532E-06
2.561576E+03	2.445181E-04	7.794459E-06
2.600985E+03	2.480694E-04	7.833281E-06
2.640394E+03	2.516659E-04	7.870087E-06
2.679803E+03	2.553876E-04	7.907260E-06
2.719212E+03	2.592098E-04	7.943878E-06
2.758621E+03	2.631055E-04	7.978974E-06
2.798030E+03	2.670453E-04	8.011548E-06
2.837438E+03	2.710639E-04	8.042542E-06
2.876847E+03	2.750942E-04	8.069865E-06
2.916256E+03	2.791668E-04	8.094360E-06
2.955665E+03	2.832468E-04	8.114941E-06
2.965517E+03	2.842761E-04	8.119704E-06
2.975369E+03	2.852792E-04	8.123460E-06
2.985222E+03	2.863199E-04	8.128025E-06
2.995074E+03	2.873337E-04	8.131563E-06
3.004926E+03	2.883521E-04	8.134973E-06
3.014778E+03	2.893749E-04	8.138244E-06
3.024631E+03	2.904016E-04	8.141364E-06
3.034483E+03	2.914005E-04	8.143440E-06
3.044335E+03	2.924344E-04	8.146237E-06
3.054187E+03	2.934717E-04	8.148860E-06
3.064039E+03	2.944808E-04	8.150439E-06
3.073892E+03	2.954933E-04	8.151852E-06
3.083744E+03	2.965404E-04	8.153951E-06
3.093596E+03	2.975598E-04	8.155027E-06
3.103448E+03	2.985832E-04	8.155947E-06
3.113300E+03	2.996416E-04	8.157556E-06
3.123153E+03	3.006739E-04	8.158190E-06
3.133005E+03	3.017117E-04	8.158704E-06
3.142857E+03	3.027557E-04	8.159121E-06
3.152709E+03	3.038372E-04	8.160279E-06
3.162562E+03	3.048966E-04	8.160571E-06
3.172414E+03	3.059958E-04	8.161654E-06
3.182266E+03	3.070759E-04	8.161953E-06
3.192118E+03	3.081987E-04	8.163111E-06
3.201970E+03	3.093361E-04	8.164372E-06
3.211823E+03	3.104902E-04	8.165791E-06
3.221675E+03	3.116634E-04	8.167423E-06
3.231527E+03	3.128584E-04	8.169337E-06
3.241379E+03	3.140782E-04	8.171600E-06
3.251232E+03	3.153551E-04	8.175049E-06
3.261084E+03	3.166631E-04	8.178995E-06
3.270936E+03	3.180063E-04	8.183531E-06
3.280788E+03	3.193885E-04	8.188750E-06
3.290640E+03	3.208431E-04	8.195492E-06
3.300493E+03	3.223171E-04	8.202388E-06
3.310345E+03	3.238731E-04	8.211021E-06
3.320197E+03	3.255162E-04	8.221496E-06
3.330049E+03	3.271950E-04	8.232495E-06
3.339901E+03	3.289725E-04	8.245589E-06
3.349754E+03	3.308265E-04	8.260197E-06
3.359606E+03	3.327919E-04	8.277164E-06
3.369458E+03	3.348474E-04	8.295928E-06
3.379310E+03	3.370002E-04	8.316643E-06
3.389163E+03	3.392857E-04	8.340154E-06
3.399015E+03	3.416836E-04	8.365925E-06
3.408867E+03	3.442016E-04	8.394114E-06
3.418719E+03	3.468760E-04	8.425562E-06
3.428571E+03	3.496868E-04	8.459747E-06
3.438424E+03	3.526703E-04	8.497503E-06
3.448276E+03	3.558069E-04	8.538307E-06
3.458128E+03	3.591330E-04	8.582989E-06
3.467980E+03	3.626291E-04	8.631028E-06
3.477833E+03	3.663316E-04	8.683240E-06
3.487685E+03	3.702211E-04	8.739108E-06
3.497537E+03	3.743344E-04	8.799442E-06
3.507389E+03	3.786807E-04	8.864390E-06
3.517241E+03	3.832126E-04	8.932788E-06
3.527094E+03	3.880253E-04	9.006786E-06
3.536946E+03	3.930732E-04	9.085249E-06
3.546798E+03	3.983680E-04	9.168383E-06
3.556650E+03	4.039802E-04	9.257731E-06
3.566502E+03	4.098377E-04	9.351555E-06
3.576355E+03	4.160424E-04	9.452101E-06
3.586207E+03	4.225523E-04	9.558321E-06
3.596059E+03	4.293837E-04	9.670491E-06
3.605911E+03	4.366125E-04	9.790225E-06
3.615764E+03	4.441975E-04	9.916482E-06
3.625616E+03	4.521552E-04	1.004953E-05
3.635468E+03	4.605338E-04	1.019032E-05
3.645320E+03	4.693512E-04	1.033913E-05
3.655172E+03	4.786255E-04	1.049624E-05
3.665025E+03	4.883437E-04	1.066121E-05
3.674877E+03	4.985554E-04	1.083501E-05
3.684729E+03	5.092465E-04	1.101718E-05
3.694581E+03	5.204672E-04	1.120867E-05
3.704433E+03	5.322350E-04	1.140970E-05
3.714286E+03	5.445692E-04	1.162052E-05
3.724138E+03	5.574537E-04	1.184064E-05
3.733990E+03	5.709389E-04	1.207096E-05
3.743842E+03	5.850077E-04	1.231095E-05
3.753695E+03	5.997462E-04	1.256225E-05
3.763547E+03	6.150641E-04	1.282278E-05
3.773399E+03	6.310837E-04	1.309493E-05
3.783251E+03	6.477473E-04	1.337729E-05
3.793103E+03	6.651038E-04	1.367071E-05
3.802956E+03	6.831270E-04	1.397445E-05
3.812808E+03	7.018654E-04	1.428930E-05
3.822660E+03	7.213285E-04	1.461528E-05
3.832512E+03	7.414827E-04	1.495150E-05
3.842365E+03	7.623730E-04	1.529868E-05
3.852217E+03	7.839615E-04	1.565586E-05
3.862069E+03	8.062894E-04	1.602367E-05
3.871921E+03	8.293563E-04	1.640192E-05
3.881773E+03	8.531140E-04	1.678946E-05
3.891626E+03	8.775542E-04	1.718595E-05
3.901478E+03	9.027129E-04	1.759191E-05
3.911330E+03	9.285316E-04	1.800603E-05
3.921182E+03	9.550424E-04	1.842877E-05
3.931034E+03	9.821814E-04	1.885872E-05
3.940887E+03	1.009977E-03	1.929629E-05
3.950739E+03	1.038360E-03	1.973998E-05
3.960591E+03	1.067304E-03	2.018919E-05
3.970443E+03	1.096783E-03	2.064330E-05
3.980296E+03	1.126823E-03	2.110268E-05
3.990148E+03	1.157343E-03	2.156571E-05
4.000000E+03	1.188314E-03	2.203175E-05
4.009852E+03	1.219705E-03	2.250014E-05
4.019704E+03	1.251543E-03	2.297132E-05
4.029557E+03	1.283683E-03	2.344257E-05
4.039409E+03	1.316151E-03	2.391434E-05
4.049261E+03	1.348978E-03	2.438714E-05
4.059113E+03	1.382016E-03	2.485826E-05
4.068966E+03	1.415296E-03	2.532828E-05
4.078818E+03	1.448790E-03	2.579671E-05
4.088670E+03	1.482475E-03	2.626310E-05
4.098522E+03	1.516325E-03	2.672706E-05
4.108374E+03	1.550252E-03	2.718707E-05
4.118227E+03	1.584298E-03	2.764392E-05
4.128079E+03	1.618443E-03	2.809728E-05
4.137931E+03	1.652598E-03	2.854569E-05
4.147783E+03	1.686741E-03	2.898886E-05
4.157635E+03	1.720920E-03	2.942769E-05
4.167488E+03	1.755115E-03	2.986193E-05
4.177340E+03	1.789233E-03	3.029008E-05
4.187192E+03	1.823176E-03	3.071064E-05
4.197044E+03	1.857133E-03	3.112690E-05
4.206897E+03	1.890859E-03	3.153487E-05
4.216749E+03	1.924391E-03	3.193533E-05
4.226601E+03	1.957766E-03	3.232907E-05
4.236453E+03	1.990795E-03	3.271311E-05
4.246305E+03	2.023507E-03	3.308815E-05
4.256158E+03	2.055935E-03	3.345488E-05
4.266010E+03	2.087878E-03	3.381027E-05
4.275862E+03	2.119295E-03	3.415389E-05
4.285714E+03	2.150233E-03	3.448673E-05
4.295567E+03	2.180686E-03	3.480893E-05
4.305419E+03	2.210678E-03	3.512113E-05
4.315271E+03	2.240205E-03	3.542349E-05
4.325123E+03	2.269397E-03	3.571828E-05
4.334975E+03	2.298340E-03	3.600707E-05
4.344828E+03	2.326839E-03	3.628702E-05
4.354680E+03	2.354828E-03	3.655732E-05
4.364532E+03	2.382285E-03	3.681788E-05
4.374384E+03	2.409302E-03	3.707037E-05
4.384236E+03	2.435748E-03	3.731302E-05
4.394089E+03	2.461833E-03	3.754929E-05
4.403941E+03	2.487441E-03	3.777764E-05
4.413793E+03	2.512707E-03	3.800034E-05
4.423645E+03	2.537764E-03	3.821960E-05
4.433498E+03	2.562486E-03	3.843373E-05
4.443350E+03	2.586909E-03	3.864347E-05
4.453202E+03	2.611231E-03	3.885191E-05
4.463054E+03	2.635304E-03	3.905692E-05
4.472906E+03	2.659138E-03	3.925876E-05
4.482759E+03	2.682821E-03	3.945884E-05
4.492611E+03	2.706348E-03	3.965716E-05
4.502463E+03	2.729619E-03	3.985234E-05
4.512315E+03	2.752609E-03	4.004410E-05
4.522167E+03	2.775372E-03	4.023333E-05
4.532020E+03	2.797781E-03	4.041826E-05
4.541872E+03	2.819870E-03	4.059949E-05
4.551724E+03	2.841407E-03	4.077380E-05
4.561576E+03	2.862496E-03	4.094277E-05
4.571429E+03	2.882975E-03	4.110421E-05
4.581281E+03	2.902760E-03	4.125705E-05
4.591133E+03	2.921853E-03	4.140143E-05
4.600985E+03	2.939996E-03	4.153383E-05
4.610837E+03	2.957197E-03	4.165451E-05
4.620690E+03	2.973486E-03	4.176403E-05
4.630542E+03	2.988658E-03	4.185967E-05
4.640394E+03	3.002909E-03	4.194429E-05
4.650246E+03	3.016232E-03	4.201792E-05
4.660099E+03	3.028586E-03	4.208012E-05
4.669951E+03	3.039973E-03	4.213101E-05
4.679803E+03	3.050435E-03	4.217127E-05
4.689655E+03	3.059804E-03	4.219872E-05
4.699507E+03	3.068221E-03	4.221536E-05
4.709360E+03	3.075760E-03	4.222232E-05
4.719212E+03	3.082513E-03	4.222094E-05
4.729064E+03	3.088580E-03	4.221263E-05
4.738916E+03	3.094057E-03	4.219877E-05
4.748768E+03	3.098955E-03	4.217955E-05
4.758621E+03	3.103538E-03	4.215857E-05
4.768473E+03	3.107717E-03	4.213465E-05
4.778325E+03	3.111655E-03	4.211000E-05
4.788177E+03	3.115419E-03	4.208555E-05
4.798030E+03	3.119072E-03	4.206213E-05
4.807882E+03	3.122666E-03	4.204042E-05
4.817734E+03	3.126249E-03	4.202101E-05
4.827586E+03	3.129777E-03	4.200322E-05
4.837438E+03	3.133455E-03	4.198971E-05
4.847291E+03	3.137141E-03	4.197851E-05
4.857143E+03	3.140942E-03	4.197095E-05
4.866995E+03	3.144959E-03	4.196831E-05
4.876847E+03	3.149035E-03	4.196841E-05
4.886700E+03	3.153262E-03	4.197236E-05
4.896552E+03	3.157642E-03	4.198014E-05
4.906404E+03	3.162173E-03	4.199162E-05
4.916256E+03	3.166850E-03	4.200666E-05
4.926108E+03	3.171580E-03	4.202395E-05
4.935961E+03	3.176518E-03	4.204546E-05
4.945813E+03	3.181567E-03	4.206984E-05
4.955665E+03	3.186713E-03	4.209680E-05
4.965517E+03	3.191938E-03	4.212606E-05
4.975369E+03	3.197226E-03	4.215732E-05
4.985222E+03	3.202557E-03	4.219027E-05
4.995074E+03	3.207835E-03	4.222355E-05
5.004926E+03	3.213208E-03	4.225907E-05
5.014778E+03	3.218663E-03	4.229657E-05
5.024631E+03	3.224020E-03	4.233364E-05
5.034483E+03	3.229352E-03	4.237118E-05
5.044335E+03	3.234732E-03	4.241009E-05
5.054187E+03	3.239990E-03	4.244806E-05
5.064039E+03	3.245287E-03	4.248717E-05
5.073892E+03	3.250538E-03	4.252626E-05
5.083744E+03	3.255745E-03	4.256527E-05
5.093596E+03	3.260910E-03	4.260421E-05
5.103448E+03	3.266039E-03	4.264310E-05
5.113300E+03	3.271222E-03	4.268306E-05
5.123153E+03	3.276303E-03	4.272203E-05
5.133005E+03	3.281460E-03	4.276225E-05
5.142857E+03	3.286622E-03	4.280279E-05
5.152709E+03	3.291888E-03	4.284487E-05
5.162562E+03	3.297191E-03	4.288761E-05
5.172414E+03	3.302466E-03	4.293010E-05
5.182266E+03	3.307983E-03	4.297581E-05
5.192118E+03	3.313514E-03	4.302175E-05
5.201970E+03	3.319245E-03	4.307032E-05
5.211823E+03	3.325118E-03	4.312071E-05
5.221675E+03	3.331157E-03	4.317321E-05
5.231527E+03	3.337467E-03	4.322915E-05
5.241379E+03	3.343991E-03	4.328775E-05
5.251232E+03	3.350831E-03	4.335034E-05
5.261084E+03	3.357844E-03	4.341499E-05
5.270936E+03	3.365212E-03	4.348408E-05
5.280788E+03	3.372948E-03	4.355773E-05
5.290640E+03	3.380976E-03	4.363493E-05
5.300493E+03	3.389295E-03	4.371566E-05
5.310345E+03	3.397979E-03	4.380084E-05
5.320197E+03	3.406924E-03	4.388914E-05
5.330049E+03	3.416096E-03	4.398010E-05
5.339901E+03	3.425534E-03	4.407417E-05
5.349754E+03	3.435177E-03	4.417052E-05
5.359606E+03	3.444864E-03	4.426705E-05
5.369458E+03	3.454509E-03	4.436259E-05
5.379310E+03	3.464098E-03	4.445697E-05
5.389163E+03	3.473449E-03	4.454778E-05
5.399015E+03	3.482551E-03	4.463488E-05
5.408867E+03	3.491321E-03	4.471717E-05
5.418719E+03	3.499625E-03	4.479292E-05
5.428571E+03	3.507552E-03	4.486326E-05
5.438424E+03	3.515049E-03	4.492751E-05
5.448276E+03	3.522250E-03	4.498735E-05
5.458128E+03	3.529122E-03	4.504234E-05
5.467980E+03	3.535804E-03	4.509427E-05
5.477833E+03	3.542347E-03	4.514377E-05
5.487685E+03	3.548705E-03	4.519026E-05
5.497537E+03	3.555089E-03	4.523639E-05
5.507389E+03	3.561262E-03	4.527917E-05
5.517241E+03	3.567507E-03	4.532218E-05
5.527094E+03	3.573663E-03	4.536337E-05
5.536946E+03	3.579828E-03	4.540400E-05
5.546798E+03	3.586010E-03	4.544416E-05
5.556650E+03	3.592217E-03	4.548397E-05
5.566502E+03	3.598370E-03	4.552242E-05
5.576355E+03	3.604655E-03	4.556188E-05
5.586207E+03	3.610907E-03	4.560028E-05
5.596059E+03	3.617230E-03	4.563894E-05
5.605911E+03	3.623641E-03	4.567810E-05
5.615764E+03	3.630161E-03	4.571802E-05
5.625616E+03	3.636809E-03	4.575899E-05
5.635468E+03	3.643519E-03	4.580018E-05
5.645320E+03	3.650492E-03	4.584414E-05
5.655172E+03	3.657657E-03	4.589002E-05
5.665025E+03	3.665031E-03	4.593804E-05
5.674877E+03	3.672537E-03	4.598727E-05
5.684729E+03	3.680362E-03	4.604009E-05
5.694581E+03	3.688414E-03	4.609537E-05
5.704433E+03	3.696685E-03	4.615307E-05
5.714286E+03	3.705158E-03	4.621298E-05
5.724138E+03	3.713804E-03	4.627482E-05
5.733990E+03	3.722676E-03	4.633927E-05
5.743842E+03	3.731541E-03	4.640351E-05
5.753695E+03	3.740524E-03	4.646912E-05
5.763547E+03	3.749462E-03	4.653416E-05
5.773399E+03	3.758276E-03	4.659770E-05
5.783251E+03	3.766877E-03	4.665872E-05
5.793103E+03	3.775171E-03	4.671614E-05
5.802956E+03	3.783151E-03	4.676995E-05
5.812808E+03	3.790619E-03	4.681781E-05
5.822660E+03	3.797472E-03	4.685853E-05
5.832512E+03	3.803700E-03	4.689209E-05
5.842365E+03	3.809108E-03	4.691620E-05
5.852217E+03	3.813600E-03	4.692981E-05
5.862069E+03	3.817091E-03	4.693195E-05
5.871921E+03	3.819595E-03	4.692297E-05
5.881773E+03	3.820953E-03	4.690099E-05
5.891626E+03	3.821204E-03	4.686666E-05
5.901478E+03	3.820214E-03	4.681842E-05
5.911330E+03	3.817954E-03	4.675607E-05
5.921182E+03	3.814411E-03	4.667958E-05
5.931034E+03	3.809680E-03	4.659023E-05
5.940887E+03	3.803775E-03	4.648831E-05
5.950739E+03	3.796621E-03	4.637304E-05
5.960591E+03	3.788252E-03	4.624493E-05
5.970443E+03	3.778802E-03	4.610574E-05
5.980296E+03	3.768221E-03	4.595496E-05
5.990148E+03	3.756652E-03	4.579445E-05
6.000000E+03	3.744048E-03	4.562373E-05
6.009852E+03	3.730556E-03	4.544468E-05
6.019704E+03	3.716131E-03	4.525684E-05
6.029557E+03	3.700827E-03	4.506095E-05
6.039409E+03	3.684887E-03	4.486004E-05
6.049261E+03	3.668097E-03	4.465159E-05
6.059113E+03	3.650728E-03	4.443896E-05
6.068966E+03	3.632889E-03	4.422352E-05
6.078818E+03	3.614638E-03	4.400604E-05
6.088670E+03	3.596270E-03	4.379018E-05
6.098522E+03	3.578052E-03	4.357921E-05
6.108374E+03	3.559927E-03	4.337249E-05
6.118227E+03	3.542023E-03	4.317157E-05
6.128079E+03	3.524059E-03	4.297290E-05
6.137931E+03	3.506086E-03	4.277695E-05
6.147783E+03	3.488022E-03	4.258256E-05
6.157635E+03	3.469989E-03	4.239111E-05
6.167488E+03	3.452040E-03	4.220308E-05
6.177340E+03	3.434144E-03	4.201795E-05
6.187192E+03	3.416447E-03	4.183740E-05
6.197044E+03	3.399004E-03	4.166194E-05
6.206897E+03	3.381776E-03	4.149099E-05
6.216749E+03	3.364890E-03	4.132597E-05
6.226601E+03	3.348379E-03	4.116719E-05
6.236453E+03	3.332181E-03	4.101376E-05
6.246305E+03	3.316401E-03	4.086687E-05
6.256158E+03	3.301053E-03	4.072659E-05
6.266010E+03	3.286141E-03	4.059288E-05
6.275862E+03	3.271586E-03	4.046465E-05
6.285714E+03	3.257556E-03	4.034392E-05
6.295567E+03	3.243879E-03	4.022845E-05
6.305419E+03	3.230635E-03	4.011915E-05
6.315271E+03	3.217731E-03	4.001481E-05
6.325123E+03	3.205330E-03	3.991734E-05
6.334975E+03	3.193251E-03	3.982445E-05
6.344828E+03	3.181651E-03	3.973802E-05
6.354680E+03	3.170351E-03	3.965573E-05
6.364532E+03	3.159419E-03	3.957839E-05
6.374384E+03	3.148841E-03	3.950574E-05
6.384236E+03	3.138599E-03	3.943752E-05
6.394089E+03	3.128676E-03	3.937344E-05
6.403941E+03	3.119052E-03	3.931320E-05
6.413793E+03	3.109708E-03	3.925651E-05
6.423645E+03	3.100621E-03	3.920302E-05
6.433498E+03	3.091770E-03	3.915243E-05
6.443350E+03	3.083132E-03	3.910438E-05
6.453202E+03	3.074766E-03	3.905958E-05
6.463054E+03	3.066482E-03	3.901559E-05
6.472906E+03	3.058341E-03	3.897310E-05
6.482759E+03	3.050400E-03	3.893283E-05
6.492611E+03	3.042472E-03	3.889234E-05
6.502463E+03	3.034700E-03	3.885340E-05
6.512315E+03	3.026980E-03	3.881468E-05
6.522167E+03	3.019294E-03	3.877587E-05
6.532020E+03	3.011623E-03	3.873672E-05
6.541872E+03	3.004035E-03	3.869805E-05
6.551724E+03	2.996354E-03	3.865756E-05
6.561576E+03	2.988733E-03	3.861721E-05
6.571429E+03	2.981167E-03	3.857689E-05
6.581281E+03	2.973490E-03	3.853443E-05
6.591133E+03	2.965866E-03	3.849193E-05
6.600985E+03	2.958220E-03	3.844841E-05
6.610837E+03	2.950564E-03	3.840399E-05
6.620690E+03	2.942993E-03	3.835990E-05
6.630542E+03	2.935448E-03	3.831535E-05
6.640394E+03	2.928036E-03	3.827172E-05
6.650246E+03	2.920625E-03	3.822731E-05
6.660099E+03	2.913413E-03	3.818469E-05
6.669951E+03	2.906442E-03	3.814441E-05
6.679803E+03	2.899676E-03	3.810601E-05
6.689655E+03	2.893165E-03	3.807017E-05
6.699507E+03	2.887042E-03	3.803866E-05
6.709360E+03	2.881286E-03	3.801119E-05
6.719212E+03	2.875954E-03	3.798858E-05
6.729064E+03	2.871189E-03	3.797273E-05
6.738916E+03	2.867054E-03	3.796450E-05
6.748768E+03	2.863451E-03	3.796264E-05
6.758621E+03	2.860682E-03	3.797120E-05
6.768473E+03	2.858568E-03	3.798786E-05
6.778325E+03	2.857327E-03	3.801555E-05
6.788177E+03	2.857016E-03	3.805509E-05
6.798030E+03	2.857603E-03	3.810613E-05
6.807882E+03	2.859135E-03	3.816936E-05
6.817734E+03	2.861733E-03	3.824644E-05
6.827586E+03	2.865349E-03	3.833680E-05
6.837438E+03	2.870090E-03	3.844197E-05
6.847291E+03	2.875894E-03	3.856116E-05
6.857143E+03	2.882769E-03	3.869459E-05
6.866995E+03	2.890799E-03	3.884343E-05
6.876847E+03	2.899976E-03	3.900768E-05
6.886700E+03	2.910201E-03	3.918608E-05
6.896552E+03	2.921447E-03	3.937836E-05
6.906404E+03	2.933677E-03	3.958410E-05
6.916256E+03	2.946932E-03	3.980393E-05
6.926108E+03	2.961074E-03	4.003608E-05
6.935961E+03	2.976126E-03	4.028095E-05
6.945813E+03	2.991935E-03	4.053655E-05
6.955665E+03	3.008426E-03	4.080195E-05
6.965517E+03	3.025602E-03	4.107728E-05
6.975369E+03	3.043291E-03	4.136030E-05
6.985222E+03	3.061401E-03	4.164985E-05
6.995074E+03	3.079926E-03	4.194593E-05
7.004926E+03	3.098682E-03	4.224611E-05
7.014778E+03	3.117571E-03	4.254916E-05
7.024631E+03	3.136495E-03	4.285382E-05
7.034483E+03	3.155356E-03	4.315884E-05
7.044335E+03	3.174150E-03	4.346424E-05
7.054187E+03	3.192694E-03	4.376761E-05
7.064039E+03	3.210897E-03	4.406778E-05
7.073892E+03	3.228673E-03	4.436367E-05
7.083744E+03	3.246036E-03	4.465554E-05
7.093596E+03	3.262721E-03	4.493982E-05
7.103448E+03	3.278847E-03	4.521824E-05
7.113300E+03	3.294159E-03	4.548736E-05
7.123153E+03	3.308789E-03	4.574907E-05
7.133005E+03	3.322590E-03	4.600142E-05
7.142857E+03	3.335516E-03	4.624386E-05
7.152709E+03	3.347432E-03	4.647456E-05
7.162562E+03	3.358498E-03	4.669583E-05
7.172414E+03	3.368594E-03	4.690606E-05
7.182266E+03	3.377600E-03	4.710366E-05
7.192118E+03	3.385702E-03	4.729126E-05
7.201970E+03	3.392695E-03	4.746607E-05
7.211823E+03	3.398775E-03	4.763090E-05
7.221675E+03	3.403750E-03	4.778309E-05
7.231527E+03	3.407727E-03	4.792420E-05
7.241379E+03	3.410717E-03	4.805445E-05
7.251232E+03	3.412636E-03	4.817268E-05
7.261084E+03	3.413700E-03	4.828200E-05
7.270936E+03	3.413727E-03	4.837985E-05
7.280788E+03	3.412831E-03	4.846792E-05
7.290640E+03	3.411030E-03	4.854645E-05
7.300493E+03	3.408231E-03	4.861419E-05
7.310345E+03	3.404546E-03	4.867272E-05
7.320197E+03	3.399978E-03	4.872213E-05
7.330049E+03	3.394430E-03	4.876100E-05
7.339901E+03	3.388003E-03	4.879082E-05
7.349754E+03	3.380700E-03	4.881161E-05
7.359606E+03	3.372432E-03	4.882208E-05
7.369458E+03	3.363324E-03	4.882400E-05
7.379310E+03	3.353323E-03	4.881660E-05
7.389163E+03	3.342609E-03	4.880245E-05
7.399015E+03	3.331296E-03	4.878321E-05
7.408867E+03	3.319352E-03	4.875838E-05
7.418719E+03	3.306756E-03	4.872763E-05
7.428571E+03	3.293617E-03	4.869252E-05
7.438424E+03	3.279976E-03	4.865363E-05
7.448276E+03	3.265794E-03	4.861036E-05
7.458128E+03	3.251143E-03	4.856370E-05
7.467980E+03	3.236192E-03	4.851603E-05
7.477833E+03	3.221009E-03	4.846819E-05
7.487685E+03	3.205457E-03	4.841792E-05
7.497537E+03	3.189874E-03	4.837014E-05
7.507389E+03	3.174004E-03	4.832080E-05
7.517241E+03	3.158065E-03	4.827301E-05
7.527094E+03	3.141969E-03	4.822528E-05
7.536946E+03	3.125812E-03	4.817889E-05
7.546798E+03	3.109489E-03	4.813206E-05
7.556650E+03	3.092981E-03	4.808434E-05
7.566502E+03	3.076360E-03	4.803663E-05
7.576355E+03	3.059502E-03	4.798683E-05
7.586207E+03	3.042374E-03	4.793423E-05
7.596059E+03	3.025034E-03	4.787954E-05
7.605911E+03	3.007354E-03	4.782053E-05
7.615764E+03	2.989299E-03	4.775642E-05
7.625616E+03	2.970924E-03	4.768788E-05
7.635468E+03	2.952015E-03	4.761121E-05
7.645320E+03	2.932814E-03	4.753010E-05
