#wls	flux	fluxerr
1.576355E+03	1.419372E-04	8.026503E-06
1.615764E+03	1.425026E-04	8.015943E-06
1.655172E+03	1.430838E-04	8.004935E-06
1.694581E+03	1.436790E-04	7.993344E-06
1.733990E+03	1.442867E-04	7.981033E-06
1.773399E+03	1.449048E-04	7.967853E-06
1.812808E+03	1.455559E-04	7.954991E-06
1.852217E+03	1.462129E-04	7.940921E-06
1.891626E+03	1.468980E-04	7.926798E-06
1.931034E+03	1.475838E-04	7.911089E-06
1.970443E+03	1.482919E-04	7.894914E-06
2.009852E+03	1.490189E-04	7.878042E-06
2.049261E+03	1.497369E-04	7.858939E-06
2.088670E+03	1.504664E-04	7.838668E-06
2.128079E+03	1.512281E-04	7.818236E-06
2.167488E+03	1.519682E-04	7.794826E-06
2.206897E+03	1.527067E-04	7.769436E-06
2.246305E+03	1.534629E-04	7.743018E-06
2.285714E+03	1.542070E-04	7.714018E-06
2.325123E+03	1.549332E-04	7.682142E-06
2.364532E+03	1.556600E-04	7.648282E-06
2.403941E+03	1.563569E-04	7.610922E-06
2.443350E+03	1.570415E-04	7.570930E-06
2.482759E+03	1.577073E-04	7.527976E-06
2.522167E+03	1.583473E-04	7.481739E-06
2.561576E+03	1.589551E-04	7.431923E-06
2.600985E+03	1.595242E-04	7.378257E-06
2.640394E+03	1.600719E-04	7.321576E-06
2.679803E+03	1.605696E-04	7.260592E-06
2.719212E+03	1.610133E-04	7.195191E-06
2.758621E+03	1.614230E-04	7.126337E-06
2.798030E+03	1.617979E-04	7.054039E-06
2.837438E+03	1.621177E-04	6.977471E-06
2.876847E+03	1.624325E-04	6.898852E-06
2.916256E+03	1.627080E-04	6.816762E-06
2.955665E+03	1.630039E-04	6.733738E-06
2.965517E+03	1.630936E-04	6.713347E-06
2.975369E+03	1.631582E-04	6.691812E-06
2.985222E+03	1.632411E-04	6.670916E-06
2.995074E+03	1.633426E-04	6.650664E-06
3.004926E+03	1.634209E-04	6.629350E-06
3.014778E+03	1.635190E-04	6.608721E-06
3.024631E+03	1.636162E-04	6.587942E-06
3.034483E+03	1.637134E-04	6.567045E-06
3.044335E+03	1.638323E-04	6.546896E-06
3.054187E+03	1.639527E-04	6.526680E-06
3.064039E+03	1.640753E-04	6.506434E-06
3.073892E+03	1.642013E-04	6.486192E-06
3.083744E+03	1.643522E-04	6.466805E-06
3.093596E+03	1.645082E-04	6.447491E-06
3.103448E+03	1.646912E-04	6.429090E-06
3.113300E+03	1.648610E-04	6.410037E-06
3.123153E+03	1.650600E-04	6.391976E-06
3.133005E+03	1.652688E-04	6.374151E-06
3.142857E+03	1.655094E-04	6.357392E-06
3.152709E+03	1.657626E-04	6.340958E-06
3.162562E+03	1.660301E-04	6.324904E-06
3.172414E+03	1.663133E-04	6.309281E-06
3.182266E+03	1.666341E-04	6.294907E-06
3.192118E+03	1.669742E-04	6.281074E-06
3.201970E+03	1.673354E-04	6.267840E-06
3.211823E+03	1.677396E-04	6.256016E-06
3.221675E+03	1.681688E-04	6.244911E-06
3.231527E+03	1.686252E-04	6.234592E-06
3.241379E+03	1.691310E-04	6.225866E-06
3.251232E+03	1.696686E-04	6.218063E-06
3.261084E+03	1.702403E-04	6.211254E-06
3.270936E+03	1.708490E-04	6.205523E-06
3.280788E+03	1.715171E-04	6.201664E-06
3.290640E+03	1.722276E-04	6.199037E-06
3.300493E+03	1.730034E-04	6.198441E-06
3.310345E+03	1.738077E-04	6.198532E-06
3.320197E+03	1.746837E-04	6.200829E-06
3.330049E+03	1.756348E-04	6.205417E-06
3.339901E+03	1.766248E-04	6.210983E-06
3.349754E+03	1.776973E-04	6.219035E-06
3.359606E+03	1.788564E-04	6.229673E-06
3.369458E+03	1.800660E-04	6.241606E-06
3.379310E+03	1.813706E-04	6.256342E-06
3.389163E+03	1.827548E-04	6.273304E-06
3.399015E+03	1.842436E-04	6.293301E-06
3.408867E+03	1.858218E-04	6.315769E-06
3.418719E+03	1.874945E-04	6.340837E-06
3.428571E+03	1.892675E-04	6.368642E-06
3.438424E+03	1.911670E-04	6.400020E-06
3.448276E+03	1.931787E-04	6.434423E-06
3.458128E+03	1.953089E-04	6.472007E-06
3.467980E+03	1.975855E-04	6.513627E-06
3.477833E+03	1.999946E-04	6.558754E-06
3.487685E+03	2.025437E-04	6.607562E-06
3.497537E+03	2.052620E-04	6.660929E-06
3.507389E+03	2.081363E-04	6.718341E-06
3.517241E+03	2.111750E-04	6.779986E-06
3.527094E+03	2.144089E-04	6.846761E-06
3.536946E+03	2.178024E-04	6.917439E-06
3.546798E+03	2.214090E-04	6.993621E-06
3.556650E+03	2.252371E-04	7.075462E-06
3.566502E+03	2.292482E-04	7.161648E-06
3.576355E+03	2.334968E-04	7.253772E-06
3.586207E+03	2.379917E-04	7.351984E-06
3.596059E+03	2.426931E-04	7.454937E-06
3.605911E+03	2.476582E-04	7.564265E-06
3.615764E+03	2.528713E-04	7.679359E-06
3.625616E+03	2.583415E-04	7.800360E-06
3.635468E+03	2.641042E-04	7.928195E-06
3.645320E+03	2.701436E-04	8.062244E-06
3.655172E+03	2.764697E-04	8.202658E-06
3.665025E+03	2.830928E-04	8.349590E-06
3.674877E+03	2.900516E-04	8.504020E-06
3.684729E+03	2.973301E-04	8.665306E-06
3.694581E+03	3.049394E-04	8.833604E-06
3.704433E+03	3.129210E-04	9.009941E-06
3.714286E+03	3.212276E-04	9.192764E-06
3.724138E+03	3.299319E-04	9.383976E-06
3.733990E+03	3.390164E-04	9.582875E-06
3.743842E+03	3.485264E-04	9.790542E-06
3.753695E+03	3.584102E-04	1.000531E-05
3.763547E+03	3.687470E-04	1.022919E-05
3.773399E+03	3.795174E-04	1.046141E-05
3.783251E+03	3.907709E-04	1.070310E-05
3.793103E+03	4.024498E-04	1.095246E-05
3.802956E+03	4.146406E-04	1.121161E-05
3.812808E+03	4.273210E-04	1.147968E-05
3.822660E+03	4.405045E-04	1.175680E-05
3.832512E+03	4.542052E-04	1.204309E-05
3.842365E+03	4.684779E-04	1.233973E-05
3.852217E+03	4.832534E-04	1.264463E-05
3.862069E+03	4.986300E-04	1.296010E-05
3.871921E+03	5.145784E-04	1.328510E-05
3.881773E+03	5.311586E-04	1.362087E-05
3.891626E+03	5.482898E-04	1.396506E-05
3.901478E+03	5.660301E-04	1.431889E-05
3.911330E+03	5.844412E-04	1.468360E-05
3.921182E+03	6.034858E-04	1.505796E-05
3.931034E+03	6.231753E-04	1.544196E-05
3.940887E+03	6.435179E-04	1.583549E-05
3.950739E+03	6.645236E-04	1.623852E-05
3.960591E+03	6.862002E-04	1.665093E-05
3.970443E+03	7.086142E-04	1.707403E-05
3.980296E+03	7.316544E-04	1.750483E-05
3.990148E+03	7.554474E-04	1.794609E-05
4.000000E+03	7.798719E-04	1.839462E-05
4.009852E+03	8.050597E-04	1.885325E-05
4.019704E+03	8.309481E-04	1.932021E-05
4.029557E+03	8.575373E-04	1.979523E-05
4.039409E+03	8.848262E-04	2.027802E-05
4.049261E+03	9.128113E-04	2.076824E-05
4.059113E+03	9.414868E-04	2.126551E-05
4.068966E+03	9.708455E-04	2.176942E-05
4.078818E+03	1.000878E-03	2.227954E-05
4.088670E+03	1.031572E-03	2.279539E-05
4.098522E+03	1.062913E-03	2.331644E-05
4.108374E+03	1.094971E-03	2.384406E-05
4.118227E+03	1.127554E-03	2.437386E-05
4.128079E+03	1.160723E-03	2.490705E-05
4.137931E+03	1.194450E-03	2.544296E-05
4.147783E+03	1.228705E-03	2.598081E-05
4.157635E+03	1.263453E-03	2.651982E-05
4.167488E+03	1.298654E-03	2.705911E-05
4.177340E+03	1.334265E-03	2.759778E-05
4.187192E+03	1.370238E-03	2.813485E-05
4.197044E+03	1.406520E-03	2.866930E-05
4.206897E+03	1.442941E-03	2.919780E-05
4.216749E+03	1.479657E-03	2.972363E-05
4.226601E+03	1.516491E-03	3.024338E-05
4.236453E+03	1.553254E-03	3.075353E-05
4.246305E+03	1.589979E-03	3.125503E-05
4.256158E+03	1.626707E-03	3.174896E-05
4.266010E+03	1.663113E-03	3.222932E-05
4.275862E+03	1.699231E-03	3.269718E-05
4.285714E+03	1.734846E-03	3.314889E-05
4.295567E+03	1.770130E-03	3.358818E-05
4.305419E+03	1.804878E-03	3.401168E-05
4.315271E+03	1.838883E-03	3.441606E-05
4.325123E+03	1.872216E-03	3.480322E-05
4.334975E+03	1.904821E-03	3.517276E-05
4.344828E+03	1.936655E-03	3.552450E-05
4.354680E+03	1.967686E-03	3.585846E-05
4.364532E+03	1.997749E-03	3.617233E-05
4.374384E+03	2.026974E-03	3.646911E-05
4.384236E+03	2.055356E-03	3.674939E-05
4.394089E+03	2.082901E-03	3.701390E-05
4.403941E+03	2.109467E-03	3.726077E-05
4.413793E+03	2.135365E-03	3.749612E-05
4.423645E+03	2.160307E-03	3.771551E-05
4.433498E+03	2.184306E-03	3.791980E-05
4.443350E+03	2.207679E-03	3.811511E-05
4.453202E+03	2.230136E-03	3.829696E-05
4.463054E+03	2.251838E-03	3.846871E-05
4.472906E+03	2.272642E-03	3.862827E-05
4.482759E+03	2.292865E-03	3.878142E-05
4.492611E+03	2.312197E-03	3.892322E-05
4.502463E+03	2.330796E-03	3.905665E-05
4.512315E+03	2.348496E-03	3.917927E-05
4.522167E+03	2.365450E-03	3.929391E-05
4.532020E+03	2.381645E-03	3.940061E-05
4.541872E+03	2.396904E-03	3.949672E-05
4.551724E+03	2.411531E-03	3.958749E-05
4.561576E+03	2.425017E-03	3.966477E-05
4.571429E+03	2.437824E-03	3.973637E-05
4.581281E+03	2.449599E-03	3.979672E-05
4.591133E+03	2.460477E-03	3.984823E-05
4.600985E+03	2.470271E-03	3.988800E-05
4.610837E+03	2.479118E-03	3.991846E-05
4.620690E+03	2.486836E-03	3.993682E-05
4.630542E+03	2.493741E-03	3.994827E-05
4.640394E+03	2.499505E-03	3.994767E-05
4.650246E+03	2.504138E-03	3.993526E-05
4.660099E+03	2.507824E-03	3.991408E-05
4.669951E+03	2.510596E-03	3.988470E-05
4.679803E+03	2.512334E-03	3.984526E-05
4.689655E+03	2.513257E-03	3.979926E-05
4.699507E+03	2.513268E-03	3.974513E-05
4.709360E+03	2.512600E-03	3.968656E-05
4.719212E+03	2.511326E-03	3.962468E-05
4.729064E+03	2.509364E-03	3.955814E-05
4.738916E+03	2.506953E-03	3.949065E-05
4.748768E+03	2.504009E-03	3.942082E-05
4.758621E+03	2.500770E-03	3.935231E-05
4.768473E+03	2.497308E-03	3.928617E-05
4.778325E+03	2.493533E-03	3.922092E-05
4.788177E+03	2.489673E-03	3.916001E-05
4.798030E+03	2.485633E-03	3.910187E-05
4.807882E+03	2.481628E-03	3.904980E-05
4.817734E+03	2.477560E-03	3.900207E-05
4.827586E+03	2.473637E-03	3.896174E-05
4.837438E+03	2.469754E-03	3.892691E-05
4.847291E+03	2.466110E-03	3.890051E-05
4.857143E+03	2.462747E-03	3.888299E-05
4.866995E+03	2.459549E-03	3.887231E-05
4.876847E+03	2.456704E-03	3.887125E-05
4.886700E+03	2.454093E-03	3.887772E-05
4.896552E+03	2.451744E-03	3.889200E-05
4.906404E+03	2.449986E-03	3.891910E-05
4.916256E+03	2.448540E-03	3.895446E-05
4.926108E+03	2.447428E-03	3.899825E-05
4.935961E+03	2.446820E-03	3.905301E-05
4.945813E+03	2.446582E-03	3.911649E-05
4.955665E+03	2.446879E-03	3.919119E-05
4.965517E+03	2.447725E-03	3.927716E-05
4.975369E+03	2.448982E-03	3.937214E-05
4.985222E+03	2.450809E-03	3.947853E-05
4.995074E+03	2.453067E-03	3.959400E-05
5.004926E+03	2.455912E-03	3.972097E-05
5.014778E+03	2.459203E-03	3.985706E-05
5.024631E+03	2.463094E-03	4.000467E-05
5.034483E+03	2.467440E-03	4.016138E-05
5.044335E+03	2.472394E-03	4.032961E-05
5.054187E+03	2.477809E-03	4.050689E-05
5.064039E+03	2.483835E-03	4.069561E-05
5.073892E+03	2.490474E-03	4.089574E-05
5.083744E+03	2.497575E-03	4.110477E-05
5.093596E+03	2.505287E-03	4.132506E-05
5.103448E+03	2.513455E-03	4.155405E-05
5.113300E+03	2.522226E-03	4.179410E-05
5.123153E+03	2.531443E-03	4.204258E-05
5.133005E+03	2.541250E-03	4.230184E-05
5.142857E+03	2.551485E-03	4.256914E-05
5.152709E+03	2.562289E-03	4.284680E-05
5.162562E+03	2.573647E-03	4.313455E-05
5.172414E+03	2.585392E-03	4.342956E-05
5.182266E+03	2.597503E-03	4.373144E-05
5.192118E+03	2.610264E-03	4.404495E-05
5.201970E+03	2.623345E-03	4.436447E-05
5.211823E+03	2.636713E-03	4.468945E-05
5.221675E+03	2.650490E-03	4.502190E-05
5.231527E+03	2.664483E-03	4.535850E-05
5.241379E+03	2.678961E-03	4.570382E-05
5.251232E+03	2.693409E-03	4.604901E-05
5.261084E+03	2.708085E-03	4.639845E-05
5.270936E+03	2.722933E-03	4.675114E-05
5.280788E+03	2.737889E-03	4.710593E-05
5.290640E+03	2.752724E-03	4.745886E-05
5.300493E+03	2.767362E-03	4.780852E-05
5.310345E+03	2.782045E-03	4.815903E-05
5.320197E+03	2.796202E-03	4.850045E-05
5.330049E+03	2.810228E-03	4.883958E-05
5.339901E+03	2.823704E-03	4.916900E-05
5.349754E+03	2.836696E-03	4.948977E-05
5.359606E+03	2.848940E-03	4.979714E-05
5.369458E+03	2.860504E-03	5.009215E-05
5.379310E+03	2.871126E-03	5.037010E-05
5.389163E+03	2.880886E-03	5.063222E-05
5.399015E+03	2.889707E-03	5.087706E-05
5.408867E+03	2.897361E-03	5.110039E-05
5.418719E+03	2.903979E-03	5.130444E-05
5.428571E+03	2.909580E-03	5.148936E-05
5.438424E+03	2.914036E-03	5.165278E-05
5.448276E+03	2.917569E-03	5.179852E-05
5.458128E+03	2.920080E-03	5.192468E-05
5.467980E+03	2.921980E-03	5.203850E-05
5.477833E+03	2.922845E-03	5.213234E-05
5.487685E+03	2.923264E-03	5.221662E-05
5.497537E+03	2.922984E-03	5.228677E-05
5.507389E+03	2.922257E-03	5.234727E-05
5.517241E+03	2.920997E-03	5.239650E-05
5.527094E+03	2.919451E-03	5.243891E-05
5.536946E+03	2.917694E-03	5.247582E-05
5.546798E+03	2.915630E-03	5.250549E-05
5.556650E+03	2.913495E-03	5.253216E-05
5.566502E+03	2.911349E-03	5.255696E-05
5.576355E+03	2.909253E-03	5.258098E-05
5.586207E+03	2.907090E-03	5.260216E-05
5.596059E+03	2.905076E-03	5.262442E-05
5.605911E+03	2.903090E-03	5.264560E-05
5.615764E+03	2.901335E-03	5.266946E-05
5.625616E+03	2.899848E-03	5.269667E-05
5.635468E+03	2.898657E-03	5.272784E-05
5.645320E+03	2.897623E-03	5.276047E-05
5.655172E+03	2.896933E-03	5.279803E-05
5.665025E+03	2.896606E-03	5.284093E-05
5.674877E+03	2.896489E-03	5.288645E-05
5.684729E+03	2.896924E-03	5.294091E-05
5.694581E+03	2.897420E-03	5.299540E-05
5.704433E+03	2.898479E-03	5.305917E-05
5.714286E+03	2.899768E-03	5.312620E-05
5.724138E+03	2.901615E-03	5.320261E-05
5.733990E+03	2.903515E-03	5.327920E-05
5.743842E+03	2.905958E-03	5.336503E-05
5.753695E+03	2.908599E-03	5.345386E-05
5.763547E+03	2.911587E-03	5.354853E-05
5.773399E+03	2.914906E-03	5.364881E-05
5.783251E+03	2.918534E-03	5.375442E-05
5.793103E+03	2.922280E-03	5.386192E-05
5.802956E+03	2.926287E-03	5.397401E-05
5.812808E+03	2.930526E-03	5.409029E-05
5.822660E+03	2.934966E-03	5.421030E-05
5.832512E+03	2.939406E-03	5.433038E-05
5.842365E+03	2.944150E-03	5.445625E-05
5.852217E+03	2.948820E-03	5.458108E-05
5.862069E+03	2.953377E-03	5.470420E-05
5.871921E+03	2.958118E-03	5.483124E-05
5.881773E+03	2.962660E-03	5.495519E-05
5.891626E+03	2.967126E-03	5.507844E-05
5.901478E+03	2.971467E-03	5.520020E-05
5.911330E+03	2.975631E-03	5.531962E-05
5.921182E+03	2.979565E-03	5.543580E-05
5.931034E+03	2.983039E-03	5.554458E-05
5.940887E+03	2.986166E-03	5.564816E-05
5.950739E+03	2.988883E-03	5.574548E-05
5.960591E+03	2.991124E-03	5.583540E-05
5.970443E+03	2.992821E-03	5.591675E-05
5.980296E+03	2.993727E-03	5.598503E-05
5.990148E+03	2.993943E-03	5.604219E-05
6.000000E+03	2.993565E-03	5.609011E-05
6.009852E+03	2.991994E-03	5.611768E-05
6.019704E+03	2.989670E-03	5.613318E-05
6.029557E+03	2.986342E-03	5.613197E-05
6.039409E+03	2.981759E-03	5.610940E-05
6.049261E+03	2.976196E-03	5.607065E-05
6.059113E+03	2.969241E-03	5.600802E-05
6.068966E+03	2.961011E-03	5.592371E-05
6.078818E+03	2.951465E-03	5.581697E-05
6.088670E+03	2.940580E-03	5.568732E-05
6.098522E+03	2.928181E-03	5.553144E-05
6.108374E+03	2.914634E-03	5.535614E-05
6.118227E+03	2.899659E-03	5.515582E-05
6.128079E+03	2.883505E-03	5.493497E-05
6.137931E+03	2.866434E-03	5.469833E-05
6.147783E+03	2.848216E-03	5.444132E-05
6.157635E+03	2.828967E-03	5.416589E-05
6.167488E+03	2.809135E-03	5.388037E-05
6.177340E+03	2.788669E-03	5.358360E-05
6.187192E+03	2.767521E-03	5.327445E-05
6.197044E+03	2.746125E-03	5.296106E-05
6.206897E+03	2.724263E-03	5.263906E-05
6.216749E+03	2.702191E-03	5.231324E-05
6.226601E+03	2.680159E-03	5.198824E-05
6.236453E+03	2.657932E-03	5.165945E-05
6.246305E+03	2.635746E-03	5.133124E-05
6.256158E+03	2.613514E-03	5.100184E-05
6.266010E+03	2.591606E-03	5.067836E-05
6.275862E+03	2.569922E-03	5.035875E-05
6.285714E+03	2.548363E-03	5.004096E-05
6.295567E+03	2.527269E-03	4.973166E-05
6.305419E+03	2.506382E-03	4.942567E-05
6.315271E+03	2.486031E-03	4.912940E-05
6.325123E+03	2.465949E-03	4.883759E-05
6.334975E+03	2.446307E-03	4.855355E-05
6.344828E+03	2.427126E-03	4.827769E-05
6.354680E+03	2.408565E-03	4.801313E-05
6.364532E+03	2.390354E-03	4.775448E-05
6.374384E+03	2.372644E-03	4.750477E-05
6.384236E+03	2.355307E-03	4.726140E-05
6.394089E+03	2.338629E-03	4.703010E-05
6.403941E+03	2.322473E-03	4.680816E-05
6.413793E+03	2.306843E-03	4.659565E-05
6.423645E+03	2.291740E-03	4.639263E-05
6.433498E+03	2.277030E-03	4.619637E-05
6.443350E+03	2.262984E-03	4.601240E-05
6.453202E+03	2.249331E-03	4.583523E-05
6.463054E+03	2.236336E-03	4.567029E-05
6.472906E+03	2.223732E-03	4.551217E-05
6.482759E+03	2.211780E-03	4.536622E-05
6.492611E+03	2.200215E-03	4.522705E-05
6.502463E+03	2.189165E-03	4.509733E-05
6.512315E+03	2.178758E-03	4.497972E-05
6.522167E+03	2.168730E-03	4.486885E-05
6.532020E+03	2.159211E-03	4.476740E-05
6.541872E+03	2.150326E-03	4.467803E-05
6.551724E+03	2.141817E-03	4.459543E-05
6.561576E+03	2.133811E-03	4.452229E-05
6.571429E+03	2.126309E-03	4.445866E-05
6.581281E+03	2.119310E-03	4.440459E-05
6.591133E+03	2.112816E-03	4.436014E-05
6.600985E+03	2.106827E-03	4.432540E-05
6.610837E+03	2.101345E-03	4.430048E-05
6.620690E+03	2.096374E-03	4.428547E-05
6.630542E+03	2.091917E-03	4.428054E-05
6.640394E+03	2.087979E-03	4.428580E-05
6.650246E+03	2.084562E-03	4.430143E-05
6.660099E+03	2.081674E-03	4.432760E-05
6.669951E+03	2.079319E-03	4.436450E-05
6.679803E+03	2.077504E-03	4.441234E-05
6.689655E+03	2.076236E-03	4.447134E-05
6.699507E+03	2.075397E-03	4.453902E-05
6.709360E+03	2.075244E-03	4.462098E-05
6.719212E+03	2.075659E-03	4.471479E-05
6.729064E+03	2.076651E-03	4.482070E-05
6.738916E+03	2.078101E-03	4.493621E-05
6.748768E+03	2.080268E-03	4.506703E-05
6.758621E+03	2.083034E-03	4.521066E-05
6.768473E+03	2.086406E-03	4.536736E-05
6.778325E+03	2.090264E-03	4.553459E-05
6.788177E+03	2.094867E-03	4.571811E-05
6.798030E+03	2.100095E-03	4.591536E-05
6.807882E+03	2.105823E-03	4.612375E-05
6.817734E+03	2.112312E-03	4.634905E-05
6.827586E+03	2.119307E-03	4.658579E-05
6.837438E+03	2.127069E-03	4.683979E-05
6.847291E+03	2.135339E-03	4.710548E-05
6.857143E+03	2.144377E-03	4.738866E-05
6.866995E+03	2.153920E-03	4.768365E-05
6.876847E+03	2.164228E-03	4.799630E-05
6.886700E+03	2.175030E-03	4.832076E-05
6.896552E+03	2.186589E-03	4.866292E-05
6.906404E+03	2.198627E-03	4.901676E-05
6.916256E+03	2.211270E-03	4.938517E-05
6.926108E+03	2.224643E-03	4.977107E-05
6.935961E+03	2.238460E-03	5.016822E-05
6.945813E+03	2.252845E-03	5.057946E-05
6.955665E+03	2.267919E-03	5.100768E-05
6.965517E+03	2.283388E-03	5.144636E-05
6.975369E+03	2.299370E-03	5.189832E-05
6.985222E+03	2.315845E-03	5.236319E-05
6.995074E+03	2.332789E-03	5.284059E-05
7.004926E+03	2.350179E-03	5.333010E-05
7.014778E+03	2.367987E-03	5.383126E-05
7.024631E+03	2.386186E-03	5.434356E-05
7.034483E+03	2.404746E-03	5.486646E-05
7.044335E+03	2.423636E-03	5.539939E-05
7.054187E+03	2.442671E-03	5.593824E-05
7.064039E+03	2.462117E-03	5.648925E-05
7.073892E+03	2.481789E-03	5.704829E-05
7.083744E+03	2.501646E-03	5.761461E-05
7.093596E+03	2.521492E-03	5.818377E-05
7.103448E+03	2.541598E-03	5.876215E-05
7.113300E+03	2.561601E-03	5.934156E-05
7.123153E+03	2.581614E-03	5.992467E-05
7.133005E+03	2.601750E-03	6.051425E-05
7.142857E+03	2.621634E-03	6.110172E-05
7.152709E+03	2.641373E-03	6.168968E-05
7.162562E+03	2.660910E-03	6.227691E-05
7.172414E+03	2.680187E-03	6.286216E-05
7.182266E+03	2.699140E-03	6.344405E-05
7.192118E+03	2.717705E-03	6.402116E-05
7.201970E+03	2.735813E-03	6.459194E-05
7.211823E+03	2.753390E-03	6.515476E-05
7.221675E+03	2.770188E-03	6.570376E-05
7.231527E+03	2.786474E-03	6.624533E-05
7.241379E+03	2.801814E-03	6.676923E-05
7.251232E+03	2.816474E-03	6.728178E-05
7.261084E+03	2.830007E-03	6.777232E-05
7.270936E+03	2.842495E-03	6.824281E-05
7.280788E+03	2.853842E-03	6.869085E-05
7.290640E+03	2.863944E-03	6.911392E-05
7.300493E+03	2.872699E-03	6.950943E-05
7.310345E+03	2.879818E-03	6.987028E-05
7.320197E+03	2.885560E-03	7.020259E-05
7.330049E+03	2.889638E-03	7.049921E-05
7.339901E+03	2.891765E-03	7.075290E-05
7.349754E+03	2.892026E-03	7.096548E-05
7.359606E+03	2.890333E-03	7.113448E-05
7.369458E+03	2.886607E-03	7.125763E-05
7.379310E+03	2.880785E-03	7.133299E-05
7.389163E+03	2.872822E-03	7.135906E-05
7.399015E+03	2.862696E-03	7.133488E-05
7.408867E+03	2.850246E-03	7.125592E-05
7.418719E+03	2.835907E-03	7.113259E-05
7.428571E+03	2.819407E-03	7.095760E-05
7.438424E+03	2.801039E-03	7.073774E-05
7.448276E+03	2.780925E-03	7.047549E-05
7.458128E+03	2.759197E-03	7.017352E-05
7.467980E+03	2.735989E-03	6.983463E-05
7.477833E+03	2.711260E-03	6.945716E-05
7.487685E+03	2.685497E-03	6.905301E-05
7.497537E+03	2.658479E-03	6.861597E-05
7.507389E+03	2.630507E-03	6.815325E-05
7.517241E+03	2.601701E-03	6.766744E-05
7.527094E+03	2.572171E-03	6.716103E-05
7.536946E+03	2.541859E-03	6.663197E-05
7.546798E+03	2.511193E-03	6.609112E-05
7.556650E+03	2.479935E-03	6.553186E-05
7.566502E+03	2.448335E-03	6.496042E-05
7.576355E+03	2.416469E-03	6.437846E-05
7.586207E+03	2.384407E-03	6.378760E-05
7.596059E+03	2.352212E-03	6.318929E-05
7.605911E+03	2.319790E-03	6.258067E-05
7.615764E+03	2.287502E-03	6.197128E-05
7.625616E+03	2.255089E-03	6.135394E-05
7.635468E+03	2.222750E-03	6.073383E-05
7.645320E+03	2.190520E-03	6.011179E-05
