#wls	flux	fluxerr
1.576355E+03	8.187399E-05	3.195525E-06
1.615764E+03	8.173908E-05	3.177671E-06
1.655172E+03	8.160655E-05	3.159642E-06
1.694581E+03	8.146128E-05	3.140851E-06
1.733990E+03	8.130291E-05	3.121285E-06
1.773399E+03	8.113096E-05	3.100929E-06
1.812808E+03	8.094512E-05	3.079774E-06
1.852217E+03	8.075947E-05	3.058357E-06
1.891626E+03	8.054506E-05	3.035583E-06
1.931034E+03	8.033038E-05	3.012534E-06
1.970443E+03	8.010112E-05	2.988672E-06
2.009852E+03	7.985737E-05	2.964008E-06
2.049261E+03	7.959933E-05	2.938555E-06
2.088670E+03	7.932752E-05	2.912337E-06
2.128079E+03	7.905646E-05	2.885893E-06
2.167488E+03	7.875911E-05	2.858239E-06
2.206897E+03	7.846432E-05	2.830431E-06
2.246305E+03	7.815967E-05	2.802023E-06
2.285714E+03	7.784683E-05	2.773078E-06
2.325123E+03	7.752797E-05	2.743681E-06
2.364532E+03	7.721919E-05	2.714401E-06
2.403941E+03	7.689637E-05	2.684390E-06
2.443350E+03	7.659019E-05	2.654721E-06
2.482759E+03	7.629127E-05	2.625062E-06
2.522167E+03	7.600451E-05	2.595575E-06
2.561576E+03	7.573559E-05	2.566444E-06
2.600985E+03	7.550418E-05	2.538319E-06
2.640394E+03	7.529149E-05	2.510543E-06
2.679803E+03	7.513228E-05	2.484253E-06
2.719212E+03	7.502327E-05	2.459296E-06
2.758621E+03	7.497568E-05	2.435995E-06
2.798030E+03	7.500226E-05	2.414708E-06
2.837438E+03	7.511766E-05	2.395836E-06
2.876847E+03	7.535140E-05	2.380230E-06
2.916256E+03	7.569656E-05	2.367563E-06
2.955665E+03	7.620085E-05	2.359205E-06
2.965517E+03	7.634937E-05	2.357696E-06
2.975369E+03	7.650894E-05	2.356478E-06
2.985222E+03	7.669324E-05	2.355969E-06
2.995074E+03	7.687635E-05	2.355370E-06
3.004926E+03	7.707194E-05	2.355096E-06
3.014778E+03	7.728044E-05	2.355160E-06
3.024631E+03	7.751569E-05	2.355977E-06
3.034483E+03	7.775163E-05	2.356752E-06
3.044335E+03	7.800215E-05	2.357903E-06
3.054187E+03	7.826768E-05	2.359440E-06
3.064039E+03	7.856233E-05	2.361784E-06
3.073892E+03	7.885987E-05	2.364141E-06
3.083744E+03	7.917426E-05	2.366926E-06
3.093596E+03	7.951982E-05	2.370563E-06
3.103448E+03	7.987010E-05	2.374257E-06
3.113300E+03	8.023924E-05	2.378426E-06
3.123153E+03	8.062805E-05	2.383089E-06
3.133005E+03	8.105114E-05	2.388671E-06
3.142857E+03	8.148164E-05	2.394374E-06
3.152709E+03	8.193419E-05	2.400624E-06
3.162562E+03	8.242365E-05	2.407849E-06
3.172414E+03	8.292290E-05	2.415250E-06
3.182266E+03	8.346102E-05	2.423669E-06
3.192118E+03	8.401066E-05	2.432302E-06
3.201970E+03	8.458692E-05	2.441584E-06
3.211823E+03	8.520532E-05	2.451952E-06
3.221675E+03	8.583807E-05	2.462599E-06
3.231527E+03	8.650066E-05	2.473963E-06
3.241379E+03	8.720910E-05	2.486492E-06
3.251232E+03	8.793503E-05	2.499368E-06
3.261084E+03	8.870952E-05	2.513466E-06
3.270936E+03	8.950384E-05	2.527962E-06
3.280788E+03	9.033428E-05	2.543308E-06
3.290640E+03	9.121775E-05	2.559968E-06
3.300493E+03	9.212495E-05	2.577108E-06
3.310345E+03	9.308841E-05	2.595629E-06
3.320197E+03	9.407843E-05	2.614690E-06
3.330049E+03	9.512829E-05	2.635204E-06
3.339901E+03	9.620776E-05	2.656319E-06
3.349754E+03	9.735095E-05	2.678967E-06
3.359606E+03	9.852701E-05	2.702283E-06
3.369458E+03	9.977097E-05	2.727216E-06
3.379310E+03	1.010513E-04	2.752886E-06
3.389163E+03	1.023868E-04	2.779793E-06
3.399015E+03	1.037970E-04	2.808453E-06
3.408867E+03	1.052496E-04	2.837967E-06
3.418719E+03	1.067819E-04	2.869332E-06
3.428571E+03	1.083606E-04	2.901631E-06
3.438424E+03	1.100246E-04	2.935888E-06
3.448276E+03	1.117396E-04	2.971167E-06
3.458128E+03	1.135457E-04	3.008514E-06
3.467980E+03	1.154077E-04	3.046975E-06
3.477833E+03	1.173669E-04	3.087622E-06
3.487685E+03	1.193873E-04	3.129479E-06
3.497537E+03	1.215117E-04	3.173649E-06
3.507389E+03	1.237026E-04	3.219129E-06
3.517241E+03	1.260048E-04	3.267056E-06
3.527094E+03	1.283795E-04	3.316399E-06
3.536946E+03	1.308731E-04	3.368326E-06
3.546798E+03	1.334454E-04	3.421779E-06
3.556650E+03	1.361447E-04	3.477965E-06
3.566502E+03	1.389527E-04	3.536385E-06
3.576355E+03	1.418497E-04	3.596504E-06
3.586207E+03	1.448868E-04	3.659588E-06
3.596059E+03	1.480200E-04	3.724492E-06
3.605911E+03	1.513027E-04	3.792526E-06
3.615764E+03	1.546891E-04	3.862503E-06
3.625616E+03	1.582350E-04	3.935780E-06
3.635468E+03	1.618925E-04	4.011125E-06
3.645320E+03	1.657199E-04	4.089947E-06
3.655172E+03	1.696672E-04	4.170966E-06
3.665025E+03	1.737953E-04	4.255643E-06
3.674877E+03	1.780519E-04	4.342646E-06
3.684729E+03	1.825008E-04	4.433493E-06
3.694581E+03	1.871182E-04	4.527551E-06
3.704433E+03	1.918774E-04	4.624131E-06
3.714286E+03	1.968469E-04	4.724838E-06
3.724138E+03	2.019674E-04	4.828195E-06
3.733990E+03	2.073108E-04	4.935869E-06
3.743842E+03	2.128143E-04	5.046315E-06
3.753695E+03	2.185536E-04	5.161271E-06
3.763547E+03	2.244623E-04	5.279117E-06
3.773399E+03	2.306198E-04	5.401661E-06
3.783251E+03	2.369559E-04	5.527204E-06
3.793103E+03	2.435540E-04	5.657629E-06
3.802956E+03	2.503397E-04	5.791150E-06
3.812808E+03	2.574006E-04	5.929733E-06
3.822660E+03	2.646577E-04	6.071493E-06
3.832512E+03	2.722030E-04	6.218481E-06
3.842365E+03	2.799989E-04	6.369769E-06
3.852217E+03	2.880029E-04	6.524326E-06
3.862069E+03	2.963139E-04	6.684335E-06
3.871921E+03	3.048396E-04	6.847645E-06
3.881773E+03	3.136842E-04	7.016530E-06
3.891626E+03	3.227491E-04	7.188719E-06
3.901478E+03	3.321437E-04	7.366584E-06
3.911330E+03	3.417629E-04	7.547726E-06
3.921182E+03	3.517212E-04	7.734610E-06
3.931034E+03	3.619067E-04	7.924706E-06
3.940887E+03	3.724393E-04	8.120582E-06
3.950739E+03	3.831994E-04	8.319559E-06
3.960591E+03	3.943128E-04	8.524312E-06
3.970443E+03	4.056516E-04	8.732009E-06
3.980296E+03	4.173476E-04	8.945431E-06
3.990148E+03	4.292642E-04	9.161586E-06
4.000000E+03	4.415391E-04	9.383368E-06
4.009852E+03	4.540265E-04	9.607614E-06
4.019704E+03	4.667938E-04	9.835714E-06
4.029557E+03	4.799155E-04	1.006918E-05
4.039409E+03	4.932304E-04	1.030459E-05
4.049261E+03	5.068928E-04	1.054512E-05
4.059113E+03	5.207308E-04	1.078716E-05
4.068966E+03	5.349055E-04	1.103402E-05
4.078818E+03	5.492332E-04	1.128187E-05
4.088670E+03	5.638823E-04	1.153415E-05
4.098522E+03	5.786577E-04	1.178686E-05
4.108374E+03	5.936374E-04	1.204158E-05
4.118227E+03	6.089067E-04	1.230003E-05
4.128079E+03	6.242528E-04	1.255791E-05
4.137931E+03	6.398623E-04	1.281897E-05
4.147783E+03	6.555094E-04	1.307871E-05
4.157635E+03	6.712788E-04	1.333885E-05
4.167488E+03	6.872622E-04	1.360123E-05
4.177340E+03	7.032166E-04	1.386106E-05
4.187192E+03	7.192300E-04	1.412015E-05
4.197044E+03	7.353998E-04	1.438045E-05
4.206897E+03	7.514657E-04	1.463690E-05
4.216749E+03	7.675200E-04	1.489141E-05
4.226601E+03	7.836666E-04	1.514603E-05
4.236453E+03	7.996276E-04	1.539548E-05
4.246305E+03	8.155035E-04	1.564180E-05
4.256158E+03	8.314050E-04	1.588719E-05
4.266010E+03	8.470398E-04	1.612615E-05
4.275862E+03	8.625170E-04	1.636091E-05
4.285714E+03	8.779569E-04	1.659383E-05
4.295567E+03	8.930542E-04	1.681926E-05
4.305419E+03	9.079289E-04	1.703960E-05
4.315271E+03	9.225618E-04	1.725461E-05
4.325123E+03	9.370863E-04	1.746693E-05
4.334975E+03	9.511804E-04	1.767066E-05
4.344828E+03	9.649742E-04	1.786839E-05
4.354680E+03	9.784486E-04	1.805991E-05
4.364532E+03	9.917468E-04	1.824798E-05
4.374384E+03	1.004533E-03	1.842658E-05
4.384236E+03	1.016953E-03	1.859854E-05
4.394089E+03	1.028995E-03	1.876380E-05
4.403941E+03	1.040649E-03	1.892232E-05
4.413793E+03	1.051909E-03	1.907414E-05
4.423645E+03	1.062943E-03	1.922242E-05
4.433498E+03	1.073404E-03	1.936107E-05
4.443350E+03	1.083464E-03	1.949332E-05
4.453202E+03	1.093124E-03	1.961932E-05
4.463054E+03	1.102389E-03	1.973926E-05
4.472906E+03	1.111264E-03	1.985335E-05
4.482759E+03	1.119756E-03	1.996182E-05
4.492611E+03	1.127878E-03	2.006493E-05
4.502463E+03	1.135638E-03	2.016295E-05
4.512315E+03	1.143050E-03	2.025619E-05
4.522167E+03	1.150129E-03	2.034498E-05
4.532020E+03	1.157077E-03	2.043296E-05
4.541872E+03	1.163538E-03	2.051391E-05
4.551724E+03	1.169718E-03	2.059149E-05
4.561576E+03	1.175633E-03	2.066606E-05
4.571429E+03	1.181305E-03	2.073805E-05
4.581281E+03	1.186753E-03	2.080783E-05
4.591133E+03	1.191807E-03	2.087245E-05
4.600985E+03	1.196869E-03	2.093900E-05
4.610837E+03	1.201769E-03	2.100452E-05
4.620690E+03	1.206526E-03	2.106938E-05
4.630542E+03	1.211159E-03	2.113393E-05
4.640394E+03	1.215685E-03	2.119851E-05
4.650246E+03	1.220120E-03	2.126337E-05
4.660099E+03	1.224477E-03	2.132880E-05
4.669951E+03	1.228767E-03	2.139498E-05
4.679803E+03	1.232997E-03	2.146207E-05
4.689655E+03	1.236977E-03	2.152676E-05
4.699507E+03	1.241107E-03	2.159604E-05
4.709360E+03	1.245194E-03	2.166655E-05
4.719212E+03	1.249240E-03	2.173834E-05
4.729064E+03	1.253247E-03	2.181146E-05
4.738916E+03	1.257015E-03	2.188243E-05
4.748768E+03	1.260946E-03	2.195827E-05
4.758621E+03	1.264840E-03	2.203551E-05
4.768473E+03	1.268698E-03	2.211416E-05
4.778325E+03	1.272314E-03	2.219066E-05
4.788177E+03	1.276098E-03	2.227212E-05
4.798030E+03	1.279844E-03	2.235502E-05
4.807882E+03	1.283554E-03	2.243935E-05
4.817734E+03	1.287020E-03	2.252150E-05
4.827586E+03	1.290656E-03	2.260865E-05
4.837438E+03	1.294255E-03	2.269719E-05
4.847291E+03	1.297611E-03	2.278347E-05
4.857143E+03	1.301138E-03	2.287472E-05
4.866995E+03	1.304421E-03	2.296364E-05
4.876847E+03	1.307877E-03	2.305752E-05
4.886700E+03	1.311300E-03	2.315271E-05
4.896552E+03	1.314480E-03	2.324547E-05
4.906404E+03	1.317837E-03	2.334319E-05
4.916256E+03	1.320951E-03	2.343842E-05
4.926108E+03	1.324245E-03	2.353862E-05
4.935961E+03	1.327297E-03	2.363625E-05
4.945813E+03	1.330531E-03	2.373884E-05
4.955665E+03	1.333523E-03	2.383881E-05
4.965517E+03	1.336699E-03	2.394372E-05
4.975369E+03	1.339634E-03	2.404592E-05
4.985222E+03	1.342755E-03	2.415306E-05
4.995074E+03	1.345634E-03	2.425742E-05
5.004926E+03	1.348486E-03	2.436280E-05
5.014778E+03	1.351525E-03	2.447307E-05
5.024631E+03	1.354322E-03	2.458042E-05
5.034483E+03	1.357307E-03	2.469262E-05
5.044335E+03	1.360048E-03	2.480180E-05
5.054187E+03	1.362761E-03	2.491183E-05
5.064039E+03	1.365662E-03	2.502664E-05
5.073892E+03	1.368316E-03	2.513825E-05
5.083744E+03	1.370939E-03	2.525057E-05
5.093596E+03	1.373532E-03	2.536357E-05
5.103448E+03	1.376310E-03	2.548122E-05
5.113300E+03	1.378837E-03	2.559541E-05
5.123153E+03	1.381329E-03	2.571011E-05
5.133005E+03	1.383785E-03	2.582527E-05
5.142857E+03	1.386424E-03	2.594496E-05
5.152709E+03	1.388805E-03	2.606089E-05
5.162562E+03	1.391147E-03	2.617712E-05
5.172414E+03	1.393448E-03	2.629358E-05
5.182266E+03	1.395707E-03	2.641024E-05
5.192118E+03	1.397923E-03	2.652704E-05
5.201970E+03	1.400318E-03	2.664816E-05
5.211823E+03	1.402446E-03	2.676511E-05
5.221675E+03	1.404529E-03	2.688207E-05
5.231527E+03	1.406567E-03	2.699899E-05
5.241379E+03	1.408559E-03	2.711585E-05
5.251232E+03	1.410506E-03	2.723262E-05
5.261084E+03	1.412408E-03	2.734929E-05
5.270936E+03	1.414266E-03	2.746583E-05
5.280788E+03	1.416081E-03	2.758224E-05
5.290640E+03	1.417856E-03	2.769854E-05
5.300493E+03	1.419591E-03	2.781475E-05
5.310345E+03	1.421291E-03	2.793087E-05
5.320197E+03	1.422957E-03	2.804695E-05
5.330049E+03	1.424593E-03	2.816303E-05
5.339901E+03	1.426204E-03	2.827917E-05
5.349754E+03	1.427794E-03	2.839544E-05
5.359606E+03	1.429367E-03	2.851189E-05
5.369458E+03	1.430928E-03	2.862861E-05
5.379310E+03	1.432257E-03	2.874113E-05
5.389163E+03	1.433809E-03	2.885860E-05
5.399015E+03	1.435364E-03	2.897656E-05
5.408867E+03	1.436925E-03	2.909506E-05
5.418719E+03	1.438489E-03	2.921407E-05
5.428571E+03	1.440055E-03	2.933349E-05
5.438424E+03	1.441387E-03	2.944852E-05
5.448276E+03	1.442934E-03	2.956828E-05
5.458128E+03	1.444459E-03	2.968796E-05
5.467980E+03	1.445953E-03	2.980735E-05
5.477833E+03	1.447181E-03	2.992153E-05
5.487685E+03	1.448590E-03	3.003974E-05
5.497537E+03	1.449944E-03	3.015710E-05
5.507389E+03	1.451236E-03	3.027342E-05
5.517241E+03	1.452228E-03	3.038373E-05
5.527094E+03	1.453375E-03	3.049746E-05
5.536946E+03	1.454439E-03	3.060967E-05
5.546798E+03	1.455186E-03	3.071536E-05
5.556650E+03	1.456070E-03	3.082409E-05
5.566502E+03	1.456626E-03	3.092600E-05
5.576355E+03	1.457310E-03	3.103074E-05
5.586207E+03	1.457889E-03	3.113333E-05
5.596059E+03	1.458129E-03	3.122874E-05
5.605911E+03	1.458487E-03	3.132671E-05
5.615764E+03	1.458500E-03	3.141730E-05
5.625616E+03	1.458626E-03	3.151031E-05
5.635468E+03	1.458402E-03	3.159575E-05
5.645320E+03	1.458287E-03	3.168351E-05
5.655172E+03	1.457820E-03	3.176353E-05
5.665025E+03	1.457457E-03	3.184576E-05
5.674877E+03	1.456740E-03	3.192013E-05
5.684729E+03	1.456126E-03	3.199663E-05
5.694581E+03	1.455155E-03	3.206515E-05
5.704433E+03	1.454284E-03	3.213572E-05
5.714286E+03	1.453056E-03	3.219820E-05
5.724138E+03	1.451699E-03	3.225760E-05
5.733990E+03	1.450441E-03	3.231899E-05
5.743842E+03	1.448823E-03	3.237214E-05
5.753695E+03	1.447305E-03	3.242724E-05
5.763547E+03	1.445427E-03	3.247403E-05
5.773399E+03	1.443420E-03	3.251760E-05
5.783251E+03	1.441511E-03	3.256306E-05
5.793103E+03	1.439244E-03	3.260015E-05
5.802956E+03	1.436849E-03	3.263395E-05
5.812808E+03	1.434551E-03	3.266963E-05
5.822660E+03	1.431900E-03	3.269688E-05
5.832512E+03	1.429122E-03	3.272085E-05
5.842365E+03	1.426219E-03	3.274153E-05
5.852217E+03	1.423415E-03	3.276411E-05
5.862069E+03	1.420265E-03	3.277828E-05
5.871921E+03	1.416994E-03	3.278922E-05
5.881773E+03	1.413606E-03	3.279696E-05
5.891626E+03	1.410323E-03	3.280671E-05
5.901478E+03	1.406705E-03	3.280819E-05
5.911330E+03	1.402978E-03	3.280661E-05
5.921182E+03	1.399143E-03	3.280204E-05
5.931034E+03	1.395208E-03	3.279458E-05
5.940887E+03	1.391174E-03	3.278429E-05
5.950739E+03	1.387267E-03	3.277646E-05
5.960591E+03	1.383052E-03	3.276087E-05
5.970443E+03	1.378757E-03	3.274281E-05
5.980296E+03	1.374387E-03	3.272242E-05
5.990148E+03	1.369949E-03	3.269987E-05
6.000000E+03	1.365451E-03	3.267532E-05
6.009852E+03	1.360900E-03	3.264896E-05
6.019704E+03	1.356305E-03	3.262098E-05
6.029557E+03	1.351675E-03	3.259160E-05
6.039409E+03	1.347019E-03	3.256103E-05
6.049261E+03	1.342345E-03	3.252949E-05
6.059113E+03	1.337664E-03	3.249721E-05
6.068966E+03	1.332985E-03	3.246443E-05
6.078818E+03	1.328315E-03	3.243136E-05
6.088670E+03	1.323664E-03	3.239820E-05
6.098522E+03	1.319039E-03	3.236513E-05
6.108374E+03	1.314441E-03	3.233224E-05
6.118227E+03	1.309873E-03	3.229955E-05
6.128079E+03	1.305333E-03	3.226705E-05
6.137931E+03	1.300820E-03	3.223469E-05
6.147783E+03	1.296332E-03	3.220239E-05
6.157635E+03	1.291865E-03	3.217012E-05
6.167488E+03	1.287419E-03	3.213782E-05
6.177340E+03	1.282991E-03	3.210542E-05
6.187192E+03	1.278579E-03	3.207291E-05
6.197044E+03	1.273982E-03	3.203518E-05
6.206897E+03	1.269602E-03	3.200234E-05
6.216749E+03	1.265237E-03	3.196933E-05
6.226601E+03	1.260888E-03	3.193615E-05
6.236453E+03	1.256555E-03	3.190283E-05
6.246305E+03	1.252241E-03	3.186941E-05
6.256158E+03	1.247750E-03	3.183093E-05
6.266010E+03	1.243479E-03	3.179746E-05
6.275862E+03	1.239233E-03	3.176409E-05
6.285714E+03	1.235016E-03	3.173087E-05
6.295567E+03	1.230831E-03	3.169790E-05
6.305419E+03	1.226489E-03	3.166030E-05
6.315271E+03	1.222381E-03	3.162815E-05
6.325123E+03	1.218317E-03	3.159658E-05
6.334975E+03	1.214301E-03	3.156569E-05
6.344828E+03	1.210148E-03	3.153066E-05
6.354680E+03	1.206245E-03	3.150156E-05
6.364532E+03	1.202404E-03	3.147351E-05
6.374384E+03	1.198441E-03	3.144174E-05
6.384236E+03	1.194740E-03	3.141626E-05
6.394089E+03	1.191116E-03	3.139228E-05
6.403941E+03	1.187387E-03	3.136498E-05
6.413793E+03	1.183933E-03	3.134439E-05
6.423645E+03	1.180569E-03	3.132569E-05
6.433498E+03	1.177116E-03	3.130409E-05
6.443350E+03	1.173949E-03	3.128960E-05
6.453202E+03	1.170887E-03	3.127742E-05
6.463054E+03	1.167749E-03	3.126274E-05
6.472906E+03	1.164909E-03	3.125554E-05
6.482759E+03	1.162187E-03	3.125105E-05
6.492611E+03	1.159402E-03	3.124441E-05
6.502463E+03	1.156925E-03	3.124565E-05
6.512315E+03	1.154394E-03	3.124499E-05
6.522167E+03	1.152177E-03	3.125241E-05
6.532020E+03	1.149912E-03	3.125815E-05
6.541872E+03	1.147966E-03	3.127218E-05
6.551724E+03	1.145979E-03	3.128472E-05
6.561576E+03	1.144315E-03	3.130574E-05
6.571429E+03	1.142796E-03	3.133039E-05
6.581281E+03	1.141242E-03	3.135379E-05
6.591133E+03	1.140019E-03	3.138593E-05
6.600985E+03	1.138765E-03	3.141697E-05
6.610837E+03	1.137843E-03	3.145688E-05
6.620690E+03	1.136893E-03	3.149578E-05
6.630542E+03	1.136098E-03	3.153872E-05
6.640394E+03	1.135636E-03	3.159069E-05
6.650246E+03	1.135150E-03	3.164178E-05
6.660099E+03	1.134998E-03	3.170201E-05
6.669951E+03	1.134822E-03	3.176140E-05
6.679803E+03	1.134980E-03	3.182998E-05
6.689655E+03	1.135113E-03	3.189772E-05
6.699507E+03	1.135578E-03	3.197471E-05
6.709360E+03	1.136017E-03	3.205083E-05
6.719212E+03	1.136606E-03	3.213113E-05
6.729064E+03	1.137525E-03	3.222066E-05
6.738916E+03	1.138411E-03	3.230923E-05
6.748768E+03	1.139443E-03	3.240188E-05
6.758621E+03	1.140798E-03	3.250372E-05
6.768473E+03	1.142113E-03	3.260440E-05
6.778325E+03	1.143745E-03	3.271417E-05
6.788177E+03	1.145331E-03	3.282263E-05
6.798030E+03	1.147047E-03	3.293487E-05
6.807882E+03	1.149070E-03	3.305598E-05
6.817734E+03	1.151034E-03	3.317545E-05
6.827586E+03	1.153114E-03	3.329836E-05
6.837438E+03	1.155489E-03	3.342989E-05
6.847291E+03	1.157789E-03	3.355933E-05
6.857143E+03	1.160188E-03	3.369179E-05
6.866995E+03	1.162683E-03	3.382714E-05
6.876847E+03	1.165451E-03	3.397057E-05
6.886700E+03	1.168115E-03	3.411115E-05
6.896552E+03	1.170854E-03	3.425405E-05
6.906404E+03	1.173659E-03	3.439905E-05
6.916256E+03	1.176710E-03	3.455142E-05
6.926108E+03	1.179624E-03	3.469998E-05
6.935961E+03	1.182579E-03	3.484992E-05
6.945813E+03	1.185567E-03	3.500101E-05
6.955665E+03	1.188766E-03	3.515852E-05
6.965517E+03	1.191789E-03	3.531105E-05
6.975369E+03	1.194814E-03	3.546382E-05
6.985222E+03	1.197831E-03	3.561656E-05
6.995074E+03	1.200828E-03	3.576890E-05
7.004926E+03	1.203795E-03	3.592052E-05
7.014778E+03	1.206909E-03	3.607676E-05
7.024631E+03	1.209779E-03	3.622587E-05
7.034483E+03	1.212581E-03	3.637315E-05
7.044335E+03	1.215303E-03	3.651819E-05
7.054187E+03	1.217932E-03	3.666063E-05
7.064039E+03	1.220455E-03	3.680004E-05
7.073892E+03	1.222859E-03	3.693600E-05
7.083744E+03	1.225324E-03	3.707398E-05
7.093596E+03	1.227449E-03	3.720179E-05
7.103448E+03	1.229413E-03	3.732487E-05
7.113300E+03	1.231204E-03	3.744277E-05
7.123153E+03	1.232807E-03	3.755504E-05
7.133005E+03	1.234208E-03	3.766126E-05
7.142857E+03	1.235396E-03	3.776099E-05
7.152709E+03	1.236354E-03	3.785376E-05
7.162562E+03	1.237072E-03	3.793916E-05
7.172414E+03	1.237535E-03	3.801677E-05
7.182266E+03	1.237733E-03	3.808617E-05
7.192118E+03	1.237652E-03	3.814694E-05
7.201970E+03	1.237282E-03	3.819872E-05
7.211823E+03	1.236611E-03	3.824111E-05
7.221675E+03	1.235631E-03	3.827378E-05
7.231527E+03	1.234330E-03	3.829638E-05
7.241379E+03	1.232702E-03	3.830860E-05
7.251232E+03	1.230737E-03	3.831017E-05
7.261084E+03	1.228431E-03	3.830084E-05
7.270936E+03	1.225778E-03	3.828040E-05
7.280788E+03	1.222771E-03	3.824863E-05
7.290640E+03	1.219410E-03	3.820540E-05
7.300493E+03	1.215691E-03	3.815060E-05
7.310345E+03	1.211614E-03	3.808414E-05
7.320197E+03	1.207180E-03	3.800601E-05
7.330049E+03	1.202390E-03	3.791619E-05
7.339901E+03	1.197246E-03	3.781473E-05
7.349754E+03	1.191754E-03	3.770171E-05
7.359606E+03	1.185728E-03	3.757124E-05
7.369458E+03	1.179555E-03	3.743550E-05
7.379310E+03	1.173051E-03	3.728860E-05
7.389163E+03	1.166222E-03	3.713075E-05
7.399015E+03	1.159077E-03	3.696212E-05
7.408867E+03	1.151620E-03	3.678283E-05
7.418719E+03	1.143856E-03	3.659299E-05
7.428571E+03	1.135790E-03	3.639269E-05
7.438424E+03	1.127245E-03	3.617621E-05
7.448276E+03	1.118588E-03	3.595528E-05
7.458128E+03	1.109643E-03	3.572421E-05
7.467980E+03	1.100417E-03	3.548318E-05
7.477833E+03	1.090919E-03	3.523242E-05
7.487685E+03	1.080984E-03	3.496655E-05
7.497537E+03	1.070969E-03	3.469708E-05
7.507389E+03	1.060711E-03	3.441870E-05
7.517241E+03	1.050221E-03	3.413171E-05
7.527094E+03	1.039345E-03	3.383108E-05
7.536946E+03	1.028430E-03	3.352808E-05
7.546798E+03	1.017322E-03	3.321764E-05
7.556650E+03	1.006035E-03	3.290021E-05
7.566502E+03	9.944245E-04	3.257101E-05
7.576355E+03	9.828251E-04	3.224097E-05
7.586207E+03	9.710915E-04	3.190531E-05
7.596059E+03	9.592381E-04	3.156449E-05
7.605911E+03	9.471282E-04	3.121400E-05
7.615764E+03	9.350834E-04	3.086438E-05
7.625616E+03	9.229641E-04	3.051106E-05
7.635468E+03	9.106394E-04	3.014967E-05
7.645320E+03	8.984179E-04	2.979042E-05
