#wls	flux	fluxerr
1.576355E+03	6.937552E-05	2.831859E-06
1.615764E+03	6.924665E-05	2.815339E-06
1.655172E+03	6.910949E-05	2.798249E-06
1.694581E+03	6.897625E-05	2.781080E-06
1.733990E+03	6.882213E-05	2.762832E-06
1.773399E+03	6.867173E-05	2.744496E-06
1.812808E+03	6.850052E-05	2.725091E-06
1.852217E+03	6.833322E-05	2.705603E-06
1.891626E+03	6.815762E-05	2.685547E-06
1.931034E+03	6.796201E-05	2.664465E-06
1.970443E+03	6.777106E-05	2.643329E-06
2.009852E+03	6.757320E-05	2.621685E-06
2.049261E+03	6.736919E-05	2.599564E-06
2.088670E+03	6.717186E-05	2.577461E-06
2.128079E+03	6.695829E-05	2.554495E-06
2.167488E+03	6.674191E-05	2.531183E-06
2.206897E+03	6.652422E-05	2.507584E-06
2.246305E+03	6.631893E-05	2.484210E-06
2.285714E+03	6.610458E-05	2.460253E-06
2.325123E+03	6.590727E-05	2.436683E-06
2.364532E+03	6.571804E-05	2.413158E-06
2.403941E+03	6.554038E-05	2.389798E-06
2.443350E+03	6.536646E-05	2.366310E-06
2.482759E+03	6.522402E-05	2.343686E-06
2.522167E+03	6.510636E-05	2.321663E-06
2.561576E+03	6.503074E-05	2.300830E-06
2.600985E+03	6.498056E-05	2.280566E-06
2.640394E+03	6.497473E-05	2.261508E-06
2.679803E+03	6.502146E-05	2.243898E-06
2.719212E+03	6.514167E-05	2.228404E-06
2.758621E+03	6.532298E-05	2.214535E-06
2.798030E+03	6.560036E-05	2.203406E-06
2.837438E+03	6.596433E-05	2.194607E-06
2.876847E+03	6.645352E-05	2.189323E-06
2.916256E+03	6.707391E-05	2.187619E-06
2.955665E+03	6.784538E-05	2.189999E-06
2.965517E+03	6.806150E-05	2.191202E-06
2.975369E+03	6.828887E-05	2.192705E-06
2.985222E+03	6.852779E-05	2.194516E-06
2.995074E+03	6.879086E-05	2.197033E-06
3.004926E+03	6.905435E-05	2.199494E-06
3.014778E+03	6.933071E-05	2.202294E-06
3.024631E+03	6.962044E-05	2.205447E-06
3.034483E+03	6.993627E-05	2.209349E-06
3.044335E+03	7.025420E-05	2.213238E-06
3.054187E+03	7.058699E-05	2.217514E-06
3.064039E+03	7.093511E-05	2.222188E-06
3.073892E+03	7.131158E-05	2.227661E-06
3.083744E+03	7.169210E-05	2.233170E-06
3.093596E+03	7.208962E-05	2.239115E-06
3.103448E+03	7.250481E-05	2.245512E-06
3.113300E+03	7.295103E-05	2.252768E-06
3.123153E+03	7.340347E-05	2.260111E-06
3.133005E+03	7.387548E-05	2.267950E-06
3.142857E+03	7.438079E-05	2.276697E-06
3.152709E+03	7.489422E-05	2.285576E-06
3.162562E+03	7.542935E-05	2.294997E-06
3.172414E+03	7.598699E-05	2.304978E-06
3.182266E+03	7.658136E-05	2.315943E-06
3.192118E+03	7.718666E-05	2.327104E-06
3.201970E+03	7.781692E-05	2.338878E-06
3.211823E+03	7.848684E-05	2.351699E-06
3.221675E+03	7.917004E-05	2.364768E-06
3.231527E+03	7.988099E-05	2.378511E-06
3.241379E+03	8.063491E-05	2.393370E-06
3.251232E+03	8.140468E-05	2.408533E-06
3.261084E+03	8.220538E-05	2.424438E-06
3.270936E+03	8.303817E-05	2.441110E-06
3.280788E+03	8.391874E-05	2.459000E-06
3.290640E+03	8.481920E-05	2.477278E-06
3.300493E+03	8.575532E-05	2.496398E-06
3.310345E+03	8.674346E-05	2.516823E-06
3.320197E+03	8.775492E-05	2.537708E-06
3.330049E+03	8.880601E-05	2.559516E-06
3.339901E+03	8.991377E-05	2.582725E-06
3.349754E+03	9.104864E-05	2.606470E-06
3.359606E+03	9.222760E-05	2.631229E-06
3.369458E+03	9.346846E-05	2.657493E-06
3.379310E+03	9.474058E-05	2.684377E-06
3.389163E+03	9.606170E-05	2.712371E-06
3.399015E+03	9.745055E-05	2.741987E-06
3.408867E+03	9.887533E-05	2.772313E-06
3.418719E+03	1.003546E-04	2.803856E-06
3.428571E+03	1.019079E-04	2.837146E-06
3.438424E+03	1.035023E-04	2.871243E-06
3.448276E+03	1.051754E-04	2.907177E-06
3.458128E+03	1.068932E-04	2.943986E-06
3.467980E+03	1.086760E-04	2.982211E-06
3.477833E+03	1.105451E-04	3.022418E-06
3.487685E+03	1.124649E-04	3.063608E-06
3.497537E+03	1.144566E-04	3.106345E-06
3.507389E+03	1.165431E-04	3.151221E-06
3.517241E+03	1.186868E-04	3.197196E-06
3.527094E+03	1.209102E-04	3.244857E-06
3.536946E+03	1.232374E-04	3.294824E-06
3.546798E+03	1.256290E-04	3.346014E-06
3.556650E+03	1.281087E-04	3.399038E-06
3.566502E+03	1.307022E-04	3.454548E-06
3.576355E+03	1.333677E-04	3.511408E-06
3.586207E+03	1.361542E-04	3.570878E-06
3.596059E+03	1.390180E-04	3.631788E-06
3.605911E+03	1.419857E-04	3.694798E-06
3.615764E+03	1.450857E-04	3.760616E-06
3.625616E+03	1.482717E-04	3.828007E-06
3.635468E+03	1.515718E-04	3.897668E-06
3.645320E+03	1.550164E-04	3.970341E-06
3.655172E+03	1.585561E-04	4.044725E-06
3.665025E+03	1.622209E-04	4.121551E-06
3.674877E+03	1.660431E-04	4.201602E-06
3.684729E+03	1.699700E-04	4.283499E-06
3.694581E+03	1.740634E-04	4.368765E-06
3.704433E+03	1.782680E-04	4.455966E-06
3.714286E+03	1.826170E-04	4.545897E-06
3.724138E+03	1.871466E-04	4.639417E-06
3.733990E+03	1.917973E-04	4.734997E-06
3.743842E+03	1.966045E-04	4.833477E-06
3.753695E+03	2.016070E-04	4.935760E-06
3.763547E+03	2.067403E-04	5.040218E-06
3.773399E+03	2.120424E-04	5.147735E-06
3.783251E+03	2.175547E-04	5.259265E-06
3.793103E+03	2.232073E-04	5.373067E-06
3.802956E+03	2.290406E-04	5.490070E-06
3.812808E+03	2.350991E-04	5.611283E-06
3.822660E+03	2.413067E-04	5.734839E-06
3.832512E+03	2.477491E-04	5.862725E-06
3.842365E+03	2.543459E-04	5.992982E-06
3.852217E+03	2.611422E-04	6.126627E-06
3.862069E+03	2.681873E-04	6.264762E-06
3.871921E+03	2.753935E-04	6.405279E-06
3.881773E+03	2.828087E-04	6.549247E-06
3.891626E+03	2.904856E-04	6.697828E-06
3.901478E+03	2.983282E-04	6.848755E-06
3.911330E+03	3.063875E-04	7.003150E-06
3.921182E+03	3.147195E-04	7.162239E-06
3.931034E+03	3.232193E-04	7.323575E-06
3.940887E+03	3.319408E-04	7.488340E-06
3.950739E+03	3.409435E-04	7.657820E-06
3.960591E+03	3.501125E-04	7.829380E-06
3.970443E+03	3.595050E-04	8.004263E-06
3.980296E+03	3.691839E-04	8.183815E-06
3.990148E+03	3.790235E-04	8.365200E-06
4.000000E+03	3.890842E-04	8.549719E-06
4.009852E+03	3.994324E-04	8.738786E-06
4.019704E+03	4.099306E-04	8.929347E-06
4.029557E+03	4.206425E-04	9.122765E-06
4.039409E+03	4.315642E-04	9.318923E-06
4.049261E+03	4.427672E-04	9.519328E-06
4.059113E+03	4.540968E-04	9.720621E-06
4.068966E+03	4.656205E-04	9.924239E-06
4.078818E+03	4.774139E-04	1.013176E-05
4.088670E+03	4.893085E-04	1.033959E-05
4.098522E+03	5.013754E-04	1.054924E-05
4.108374E+03	5.136935E-04	1.076235E-05
4.118227E+03	5.260790E-04	1.097506E-05
4.128079E+03	5.386078E-04	1.118896E-05
4.137931E+03	5.512679E-04	1.140383E-05
4.147783E+03	5.641432E-04	1.162141E-05
4.157635E+03	5.770302E-04	1.183750E-05
4.167488E+03	5.900087E-04	1.205379E-05
4.177340E+03	6.030637E-04	1.227001E-05
4.187192E+03	6.162848E-04	1.248800E-05
4.197044E+03	6.294467E-04	1.270324E-05
4.206897E+03	6.426359E-04	1.291754E-05
4.216749E+03	6.558329E-04	1.313056E-05
4.226601E+03	6.691336E-04	1.334427E-05
4.236453E+03	6.822923E-04	1.355384E-05
4.246305E+03	6.954002E-04	1.376117E-05
4.256158E+03	7.084358E-04	1.396591E-05
4.266010E+03	7.215008E-04	1.417016E-05
4.275862E+03	7.343279E-04	1.436874E-05
4.285714E+03	7.470153E-04	1.456370E-05
4.295567E+03	7.595387E-04	1.475467E-05
4.305419E+03	7.718721E-04	1.494125E-05
4.315271E+03	7.841249E-04	1.512567E-05
4.325123E+03	7.960081E-04	1.530247E-05
4.334975E+03	8.076372E-04	1.547401E-05
4.344828E+03	8.190016E-04	1.564023E-05
4.354680E+03	8.300952E-04	1.580113E-05
4.364532E+03	8.410551E-04	1.595944E-05
4.374384E+03	8.515926E-04	1.610981E-05
4.384236E+03	8.618434E-04	1.625495E-05
4.394089E+03	8.718045E-04	1.639494E-05
4.403941E+03	8.814726E-04	1.652984E-05
4.413793E+03	8.908454E-04	1.665974E-05
4.423645E+03	9.000740E-04	1.678757E-05
4.433498E+03	9.088546E-04	1.690779E-05
4.443350E+03	9.173390E-04	1.702335E-05
4.453202E+03	9.255279E-04	1.713439E-05
4.463054E+03	9.334246E-04	1.724105E-05
4.472906E+03	9.410325E-04	1.734347E-05
4.482759E+03	9.483566E-04	1.744183E-05
4.492611E+03	9.554016E-04	1.753628E-05
4.502463E+03	9.623381E-04	1.763002E-05
4.512315E+03	9.688485E-04	1.771728E-05
4.522167E+03	9.751028E-04	1.780125E-05
4.532020E+03	9.811119E-04	1.788219E-05
4.541872E+03	9.868860E-04	1.796032E-05
4.551724E+03	9.924378E-04	1.803593E-05
4.561576E+03	9.977799E-04	1.810930E-05
4.571429E+03	1.002928E-03	1.818073E-05
4.581281E+03	1.007897E-03	1.825056E-05
4.591133E+03	1.012704E-03	1.831913E-05
4.600985E+03	1.017368E-03	1.838679E-05
4.610837E+03	1.021909E-03	1.845394E-05
4.620690E+03	1.026347E-03	1.852097E-05
4.630542E+03	1.030703E-03	1.858828E-05
4.640394E+03	1.034997E-03	1.865625E-05
4.650246E+03	1.039247E-03	1.872523E-05
4.660099E+03	1.043465E-03	1.879544E-05
4.669951E+03	1.047652E-03	1.886693E-05
4.679803E+03	1.051806E-03	1.893969E-05
4.689655E+03	1.055925E-03	1.901365E-05
4.699507E+03	1.060001E-03	1.908874E-05
4.709360E+03	1.064031E-03	1.916489E-05
4.719212E+03	1.068012E-03	1.924205E-05
4.729064E+03	1.071938E-03	1.932016E-05
4.738916E+03	1.075807E-03	1.939917E-05
4.748768E+03	1.079618E-03	1.947908E-05
4.758621E+03	1.083369E-03	1.955984E-05
4.768473E+03	1.087058E-03	1.964147E-05
4.778325E+03	1.090687E-03	1.972396E-05
4.788177E+03	1.094253E-03	1.980731E-05
4.798030E+03	1.097760E-03	1.989155E-05
4.807882E+03	1.101205E-03	1.997668E-05
4.817734E+03	1.104592E-03	2.006274E-05
4.827586E+03	1.107920E-03	2.014970E-05
4.837438E+03	1.111192E-03	2.023758E-05
4.847291E+03	1.114221E-03	2.032293E-05
4.857143E+03	1.117383E-03	2.041262E-05
4.866995E+03	1.120493E-03	2.050321E-05
4.876847E+03	1.123552E-03	2.059472E-05
4.886700E+03	1.126562E-03	2.068713E-05
4.896552E+03	1.129525E-03	2.078046E-05
4.906404E+03	1.132441E-03	2.087470E-05
4.916256E+03	1.135122E-03	2.096632E-05
4.926108E+03	1.137950E-03	2.106235E-05
4.935961E+03	1.140737E-03	2.115928E-05
4.945813E+03	1.143484E-03	2.125710E-05
4.955665E+03	1.146192E-03	2.135580E-05
4.965517E+03	1.148668E-03	2.145176E-05
4.975369E+03	1.151300E-03	2.155218E-05
4.985222E+03	1.153897E-03	2.165344E-05
4.995074E+03	1.156459E-03	2.175553E-05
5.004926E+03	1.158986E-03	2.185843E-05
5.014778E+03	1.161285E-03	2.195843E-05
5.024631E+03	1.163746E-03	2.206288E-05
5.034483E+03	1.166175E-03	2.216808E-05
5.044335E+03	1.168571E-03	2.227400E-05
5.054187E+03	1.170739E-03	2.237687E-05
5.064039E+03	1.173072E-03	2.248414E-05
5.073892E+03	1.175374E-03	2.259205E-05
5.083744E+03	1.177644E-03	2.270057E-05
5.093596E+03	1.179685E-03	2.280583E-05
5.103448E+03	1.181891E-03	2.291545E-05
5.113300E+03	1.184066E-03	2.302556E-05
5.123153E+03	1.186009E-03	2.313226E-05
5.133005E+03	1.188118E-03	2.324324E-05
5.142857E+03	1.190194E-03	2.335461E-05
5.152709E+03	1.192036E-03	2.346238E-05
5.162562E+03	1.194043E-03	2.357437E-05
5.172414E+03	1.196014E-03	2.368661E-05
5.182266E+03	1.197749E-03	2.379507E-05
5.192118E+03	1.199648E-03	2.390766E-05
5.201970E+03	1.201509E-03	2.402037E-05
5.211823E+03	1.203129E-03	2.412910E-05
5.221675E+03	1.204912E-03	2.424189E-05
5.231527E+03	1.206452E-03	2.435056E-05
5.241379E+03	1.208153E-03	2.446321E-05
5.251232E+03	1.209811E-03	2.457575E-05
5.261084E+03	1.211223E-03	2.468397E-05
5.270936E+03	1.212794E-03	2.479609E-05
5.280788E+03	1.214116E-03	2.490378E-05
5.290640E+03	1.215596E-03	2.501531E-05
5.300493E+03	1.216825E-03	2.512227E-05
5.310345E+03	1.218211E-03	2.523303E-05
5.320197E+03	1.219548E-03	2.534335E-05
5.330049E+03	1.220633E-03	2.544893E-05
5.339901E+03	1.221873E-03	2.555824E-05
5.349754E+03	1.222860E-03	2.566270E-05
5.359606E+03	1.224002E-03	2.577087E-05
5.369458E+03	1.224890E-03	2.587412E-05
5.379310E+03	1.225935E-03	2.598105E-05
5.389163E+03	1.226728E-03	2.608301E-05
5.399015E+03	1.227678E-03	2.618867E-05
5.408867E+03	1.228376E-03	2.628927E-05
5.418719E+03	1.229232E-03	2.639354E-05
5.428571E+03	1.229833E-03	2.649263E-05
5.438424E+03	1.230382E-03	2.659083E-05
5.448276E+03	1.231082E-03	2.669253E-05
5.458128E+03	1.231518E-03	2.678872E-05
5.467980E+03	1.232099E-03	2.688827E-05
5.477833E+03	1.232412E-03	2.698212E-05
5.487685E+03	1.232865E-03	2.707919E-05
5.497537E+03	1.233045E-03	2.717039E-05
5.507389E+03	1.233156E-03	2.726016E-05
5.517241E+03	1.233403E-03	2.735301E-05
5.527094E+03	1.233371E-03	2.743975E-05
5.536946E+03	1.233472E-03	2.752949E-05
5.546798E+03	1.233292E-03	2.761299E-05
5.556650E+03	1.233036E-03	2.769478E-05
5.566502E+03	1.232911E-03	2.777947E-05
5.576355E+03	1.232501E-03	2.785771E-05
5.586207E+03	1.232013E-03	2.793413E-05
5.596059E+03	1.231652E-03	2.801335E-05
5.605911E+03	1.231005E-03	2.808597E-05
5.615764E+03	1.230278E-03	2.815665E-05
5.625616E+03	1.229676E-03	2.823004E-05
5.635468E+03	1.228787E-03	2.829670E-05
5.645320E+03	1.227816E-03	2.836131E-05
5.655172E+03	1.226969E-03	2.842858E-05
5.665025E+03	1.225834E-03	2.848898E-05
5.674877E+03	1.224616E-03	2.854725E-05
5.684729E+03	1.223317E-03	2.860336E-05
5.694581E+03	1.222139E-03	2.866206E-05
5.704433E+03	1.220674E-03	2.871377E-05
5.714286E+03	1.219127E-03	2.876325E-05
5.724138E+03	1.217700E-03	2.881529E-05
5.733990E+03	1.215987E-03	2.886026E-05
5.743842E+03	1.214193E-03	2.890295E-05
5.753695E+03	1.212316E-03	2.894334E-05
5.763547E+03	1.210359E-03	2.898144E-05
5.773399E+03	1.208522E-03	2.902208E-05
5.783251E+03	1.206403E-03	2.905555E-05
5.793103E+03	1.204204E-03	2.908671E-05
5.802956E+03	1.201926E-03	2.911555E-05
5.812808E+03	1.199569E-03	2.914207E-05
5.822660E+03	1.197335E-03	2.917115E-05
5.832512E+03	1.194824E-03	2.919306E-05
5.842365E+03	1.192237E-03	2.921267E-05
5.852217E+03	1.189576E-03	2.923001E-05
5.862069E+03	1.186843E-03	2.924509E-05
5.871921E+03	1.184037E-03	2.925791E-05
5.881773E+03	1.181359E-03	2.927342E-05
5.891626E+03	1.178415E-03	2.928186E-05
5.901478E+03	1.175405E-03	2.928816E-05
5.911330E+03	1.172331E-03	2.929234E-05
5.921182E+03	1.169195E-03	2.929447E-05
5.931034E+03	1.165999E-03	2.929458E-05
5.940887E+03	1.162747E-03	2.929275E-05
5.950739E+03	1.159440E-03	2.928903E-05
5.960591E+03	1.156277E-03	2.928840E-05
5.970443E+03	1.152872E-03	2.928114E-05
5.980296E+03	1.149424E-03	2.927224E-05
5.990148E+03	1.145938E-03	2.926181E-05
6.000000E+03	1.142417E-03	2.924995E-05
6.009852E+03	1.138866E-03	2.923680E-05
6.019704E+03	1.135292E-03	2.922249E-05
6.029557E+03	1.131699E-03	2.920716E-05
6.039409E+03	1.128094E-03	2.919099E-05
6.049261E+03	1.124485E-03	2.917415E-05
6.059113E+03	1.120879E-03	2.915687E-05
6.068966E+03	1.117283E-03	2.913933E-05
6.078818E+03	1.113706E-03	2.912174E-05
6.088670E+03	1.110155E-03	2.910433E-05
6.098522E+03	1.106636E-03	2.908727E-05
6.108374E+03	1.103153E-03	2.907064E-05
6.118227E+03	1.099705E-03	2.905444E-05
6.128079E+03	1.096290E-03	2.903859E-05
6.137931E+03	1.092903E-03	2.902301E-05
6.147783E+03	1.089541E-03	2.900762E-05
6.157635E+03	1.086203E-03	2.899234E-05
6.167488E+03	1.082885E-03	2.897711E-05
6.177340E+03	1.079586E-03	2.896190E-05
6.187192E+03	1.076306E-03	2.894669E-05
6.197044E+03	1.073044E-03	2.893144E-05
6.206897E+03	1.069800E-03	2.891619E-05
6.216749E+03	1.066574E-03	2.890093E-05
6.226601E+03	1.063368E-03	2.888568E-05
6.236453E+03	1.060183E-03	2.887048E-05
6.246305E+03	1.057020E-03	2.885539E-05
6.256158E+03	1.053880E-03	2.884043E-05
6.266010E+03	1.050767E-03	2.882568E-05
6.275862E+03	1.047507E-03	2.880638E-05
6.285714E+03	1.044453E-03	2.879222E-05
6.295567E+03	1.041432E-03	2.877846E-05
6.305419E+03	1.038446E-03	2.876519E-05
6.315271E+03	1.035499E-03	2.875247E-05
6.325123E+03	1.032593E-03	2.874039E-05
6.334975E+03	1.029730E-03	2.872903E-05
6.344828E+03	1.026915E-03	2.871848E-05
6.354680E+03	1.023977E-03	2.870403E-05
6.364532E+03	1.021264E-03	2.869535E-05
6.374384E+03	1.018605E-03	2.868775E-05
6.384236E+03	1.016005E-03	2.868132E-05
6.394089E+03	1.013466E-03	2.867614E-05
6.403941E+03	1.010991E-03	2.867230E-05
6.413793E+03	1.008582E-03	2.866990E-05
6.423645E+03	1.006074E-03	2.866422E-05
6.433498E+03	1.003806E-03	2.866495E-05
6.443350E+03	1.001613E-03	2.866736E-05
6.453202E+03	9.994968E-04	2.867156E-05
6.463054E+03	9.974594E-04	2.867760E-05
6.472906E+03	9.953379E-04	2.868082E-05
6.482759E+03	9.934665E-04	2.869084E-05
6.492611E+03	9.916811E-04	2.870296E-05
6.502463E+03	9.899837E-04	2.871725E-05
6.512315E+03	9.883761E-04	2.873378E-05
6.522167E+03	9.866951E-04	2.874782E-05
6.532020E+03	9.852722E-04	2.876903E-05
6.541872E+03	9.839443E-04	2.879268E-05
6.551724E+03	9.827129E-04	2.881884E-05
6.561576E+03	9.814148E-04	2.884272E-05
6.571429E+03	9.803791E-04	2.887402E-05
6.581281E+03	9.794429E-04	2.890796E-05
6.591133E+03	9.786075E-04	2.894460E-05
6.600985E+03	9.777096E-04	2.897913E-05
6.610837E+03	9.770766E-04	2.902126E-05
6.620690E+03	9.765457E-04	2.906618E-05
6.630542E+03	9.761169E-04	2.911393E-05
6.640394E+03	9.756269E-04	2.915962E-05
6.650246E+03	9.754026E-04	2.921306E-05
6.660099E+03	9.752798E-04	2.926935E-05
6.669951E+03	9.750957E-04	2.932362E-05
6.679803E+03	9.751752E-04	2.938564E-05
6.689655E+03	9.753546E-04	2.945053E-05
6.699507E+03	9.754694E-04	2.951333E-05
6.709360E+03	9.758456E-04	2.958390E-05
6.719212E+03	9.763178E-04	2.965727E-05
6.729064E+03	9.767213E-04	2.972844E-05
6.738916E+03	9.773816E-04	2.980733E-05
6.748768E+03	9.781326E-04	2.988890E-05
6.758621E+03	9.788087E-04	2.996811E-05
6.768473E+03	9.797352E-04	3.005492E-05
6.778325E+03	9.807451E-04	3.014425E-05
6.788177E+03	9.816723E-04	3.023098E-05
6.798030E+03	9.828414E-04	3.032513E-05
6.807882E+03	9.840853E-04	3.042157E-05
6.817734E+03	9.852355E-04	3.051509E-05
6.827586E+03	9.866179E-04	3.061579E-05
6.837438E+03	9.880640E-04	3.071848E-05
6.847291E+03	9.894040E-04	3.081787E-05
6.857143E+03	9.909644E-04	3.092414E-05
6.866995E+03	9.924093E-04	3.102683E-05
6.876847E+03	9.940648E-04	3.113612E-05
6.886700E+03	9.957612E-04	3.124673E-05
6.896552E+03	9.973252E-04	3.135323E-05
6.906404E+03	9.990853E-04	3.146592E-05
6.916256E+03	1.000701E-03	3.157411E-05
6.926108E+03	1.002501E-03	3.168818E-05
6.935961E+03	1.004144E-03	3.179732E-05
6.945813E+03	1.005960E-03	3.191197E-05
6.955665E+03	1.007773E-03	3.202659E-05
6.965517E+03	1.009407E-03	3.213558E-05
6.975369E+03	1.011192E-03	3.224946E-05
6.985222E+03	1.012784E-03	3.235720E-05
6.995074E+03	1.014514E-03	3.246937E-05
7.004926E+03	1.016032E-03	3.257485E-05
7.014778E+03	1.017672E-03	3.268427E-05
7.024631E+03	1.019086E-03	3.278645E-05
7.034483E+03	1.020605E-03	3.289204E-05
7.044335E+03	1.021879E-03	3.298977E-05
7.054187E+03	1.023242E-03	3.309039E-05
7.064039E+03	1.024342E-03	3.318251E-05
7.073892E+03	1.025513E-03	3.327694E-05
7.083744E+03	1.026404E-03	3.336225E-05
7.093596E+03	1.027348E-03	3.344928E-05
7.103448E+03	1.027992E-03	3.352652E-05
7.113300E+03	1.028672E-03	3.360489E-05
7.123153E+03	1.029033E-03	3.367279E-05
7.133005E+03	1.029413E-03	3.374123E-05
7.142857E+03	1.029455E-03	3.379852E-05
7.152709E+03	1.029499E-03	3.385575E-05
7.162562E+03	1.029187E-03	3.390118E-05
7.172414E+03	1.028859E-03	3.394594E-05
7.182266E+03	1.028159E-03	3.397829E-05
7.192118E+03	1.027426E-03	3.400935E-05
7.201970E+03	1.026306E-03	3.402743E-05
7.211823E+03	1.025137E-03	3.404366E-05
7.221675E+03	1.023567E-03	3.404635E-05
7.231527E+03	1.021933E-03	3.404668E-05
7.241379E+03	1.019886E-03	3.403294E-05
7.251232E+03	1.017593E-03	3.401069E-05
7.261084E+03	1.015217E-03	3.398537E-05
7.270936E+03	1.012414E-03	3.394540E-05
7.280788E+03	1.009521E-03	3.390204E-05
7.290640E+03	1.006194E-03	3.384372E-05
7.300493E+03	1.002602E-03	3.377605E-05
7.310345E+03	9.989106E-04	3.370460E-05
7.320197E+03	9.947834E-04	3.361798E-05
7.330049E+03	9.905558E-04	3.352747E-05
7.339901E+03	9.858955E-04	3.342181E-05
7.349754E+03	9.809725E-04	3.330668E-05
7.359606E+03	9.759539E-04	3.318775E-05
7.369458E+03	9.705161E-04	3.305399E-05
7.379310E+03	9.649914E-04	3.291665E-05
7.389163E+03	9.590603E-04	3.276481E-05
7.399015E+03	9.528916E-04	3.260420E-05
7.408867E+03	9.466497E-04	3.244041E-05
7.418719E+03	9.400183E-04	3.226257E-05
7.428571E+03	9.331613E-04	3.207625E-05
7.438424E+03	9.262377E-04	3.188689E-05
7.448276E+03	9.189389E-04	3.168383E-05
7.458128E+03	9.114278E-04	3.147265E-05
7.467980E+03	9.038629E-04	3.125878E-05
7.477833E+03	8.959456E-04	3.103189E-05
7.487685E+03	8.878370E-04	3.079748E-05
7.497537E+03	8.796945E-04	3.056102E-05
7.507389E+03	8.712287E-04	3.031241E-05
7.517241E+03	8.626001E-04	3.005721E-05
7.527094E+03	8.539619E-04	2.980073E-05
7.536946E+03	8.450357E-04	2.953323E-05
7.546798E+03	8.359777E-04	2.926015E-05
7.556650E+03	8.269384E-04	2.898673E-05
7.566502E+03	8.176480E-04	2.870351E-05
7.576355E+03	8.082589E-04	2.841581E-05
7.586207E+03	7.987824E-04	2.812401E-05
7.596059E+03	7.893620E-04	2.783315E-05
7.605911E+03	7.797421E-04	2.753422E-05
7.615764E+03	7.700671E-04	2.723230E-05
7.625616E+03	7.604764E-04	2.693231E-05
7.635468E+03	7.507230E-04	2.662550E-05
7.645320E+03	7.409460E-04	2.631680E-05
