#wls	flux	fluxerr
1.600000E+03	2.005130E-16	1.094949E-16
1.640000E+03	1.923353E-16	9.957910E-17
1.680000E+03	1.846950E-16	9.027595E-17
1.720000E+03	1.777550E-16	8.166803E-17
1.760000E+03	1.716256E-16	7.380013E-17
1.800000E+03	1.665421E-16	6.676003E-17
1.840000E+03	1.626924E-16	6.059995E-17
1.880000E+03	1.602893E-16	5.537358E-17
1.920000E+03	1.596306E-16	5.115832E-17
1.960000E+03	1.609617E-16	4.801080E-17
2.000000E+03	1.645220E-16	4.598834E-17
2.040000E+03	1.705791E-16	4.515215E-17
2.080000E+03	1.792561E-16	4.550631E-17
2.120000E+03	1.905376E-16	4.698854E-17
2.160000E+03	2.042884E-16	4.947014E-17
2.200000E+03	2.200720E-16	5.272396E-17
2.240000E+03	2.373231E-16	5.648325E-17
2.280000E+03	2.552299E-16	6.041686E-17
2.320000E+03	2.731409E-16	6.421715E-17
2.360000E+03	2.904817E-16	6.757828E-17
2.400000E+03	3.070273E-16	7.028498E-17
2.440000E+03	3.227002E-16	7.222055E-17
2.480000E+03	3.377944E-16	7.348992E-17
2.520000E+03	3.524927E-16	7.437709E-17
2.560000E+03	3.674982E-16	7.550289E-17
2.600000E+03	3.832420E-16	7.757844E-17
2.640000E+03	4.002756E-16	8.128520E-17
2.680000E+03	4.190553E-16	8.696349E-17
2.720000E+03	4.398141E-16	9.448432E-17
2.760000E+03	4.627107E-16	1.033867E-16
2.800000E+03	4.879361E-16	1.130669E-16
2.840000E+03	5.158817E-16	1.229422E-16
2.880000E+03	5.469019E-16	1.324535E-16
2.920000E+03	5.815418E-16	1.411290E-16
2.960000E+03	6.204125E-16	1.485478E-16
3.000000E+03	6.641397E-16	1.543176E-16
3.010000E+03	6.759436E-16	1.554680E-16
3.020000E+03	6.880896E-16	1.564845E-16
3.030000E+03	7.005877E-16	1.573619E-16
3.040000E+03	7.135120E-16	1.581098E-16
3.050000E+03	7.268744E-16	1.587233E-16
3.060000E+03	7.406231E-16	1.591843E-16
3.070000E+03	7.548996E-16	1.595168E-16
3.080000E+03	7.695245E-16	1.596765E-16
3.090000E+03	7.847061E-16	1.597014E-16
3.100000E+03	8.003955E-16	1.595756E-16
3.110000E+03	8.166093E-16	1.592976E-16
3.120000E+03	8.332991E-16	1.588539E-16
3.130000E+03	8.506146E-16	1.582698E-16
3.140000E+03	8.685093E-16	1.575331E-16
3.150000E+03	8.870702E-16	1.566572E-16
3.160000E+03	9.062515E-16	1.556323E-16
3.170000E+03	9.260744E-16	1.544616E-16
3.180000E+03	9.466285E-16	1.531606E-16
3.190000E+03	9.678682E-16	1.517231E-16
3.200000E+03	9.898839E-16	1.501657E-16
3.210000E+03	1.012628E-15	1.484849E-16
3.220000E+03	1.036261E-15	1.467087E-16
3.230000E+03	1.060663E-15	1.448252E-16
3.240000E+03	1.085921E-15	1.428540E-16
3.250000E+03	1.112051E-15	1.408048E-16
3.260000E+03	1.139063E-15	1.386879E-16
3.270000E+03	1.167038E-15	1.365225E-16
3.280000E+03	1.195834E-15	1.343019E-16
3.290000E+03	1.225592E-15	1.320531E-16
3.300000E+03	1.256304E-15	1.297847E-16
3.310000E+03	1.287804E-15	1.274891E-16
3.320000E+03	1.320292E-15	1.251949E-16
3.330000E+03	1.353584E-15	1.228909E-16
3.340000E+03	1.387636E-15	1.205783E-16
3.350000E+03	1.422551E-15	1.182689E-16
3.360000E+03	1.458109E-15	1.159449E-16
3.370000E+03	1.494315E-15	1.136063E-16
3.380000E+03	1.531161E-15	1.112515E-16
3.390000E+03	1.568386E-15	1.088615E-16
3.400000E+03	1.605954E-15	1.064376E-16
3.410000E+03	1.643814E-15	1.039841E-16
3.420000E+03	1.681737E-15	1.015008E-16
3.430000E+03	1.719641E-15	9.900515E-17
3.440000E+03	1.757270E-15	9.651365E-17
3.450000E+03	1.794442E-15	9.405765E-17
3.460000E+03	1.831147E-15	9.168568E-17
3.470000E+03	1.867057E-15	8.943328E-17
3.480000E+03	1.902110E-15	8.734266E-17
3.490000E+03	1.936109E-15	8.543216E-17
3.500000E+03	1.969161E-15	8.371815E-17
3.510000E+03	2.001201E-15	8.220101E-17
3.520000E+03	2.032352E-15	8.088569E-17
3.530000E+03	2.062853E-15	7.978094E-17
3.540000E+03	2.093077E-15	7.890124E-17
3.550000E+03	2.123619E-15	7.827085E-17
3.560000E+03	2.155057E-15	7.791395E-17
3.570000E+03	2.188194E-15	7.786122E-17
3.580000E+03	2.224057E-15	7.814339E-17
3.590000E+03	2.263718E-15	7.877829E-17
3.600000E+03	2.308254E-15	7.976622E-17
3.610000E+03	2.358947E-15	8.109326E-17
3.620000E+03	2.416894E-15	8.271665E-17
3.630000E+03	2.483317E-15	8.458288E-17
3.640000E+03	2.558852E-15	8.661313E-17
3.650000E+03	2.643988E-15	8.872677E-17
3.660000E+03	2.738577E-15	9.083541E-17
3.670000E+03	2.841644E-15	9.284674E-17
3.680000E+03	2.951560E-15	9.467896E-17
3.690000E+03	3.065267E-15	9.624555E-17
3.700000E+03	3.178914E-15	9.748361E-17
3.710000E+03	3.287169E-15	9.833514E-17
3.720000E+03	3.384170E-15	9.877469E-17
3.730000E+03	3.463815E-15	9.879989E-17
3.740000E+03	3.520238E-15	9.841791E-17
3.750000E+03	3.549184E-15	9.766152E-17
3.760000E+03	3.548949E-15	9.658077E-17
3.770000E+03	3.520507E-15	9.521937E-17
3.780000E+03	3.467735E-15	9.363466E-17
3.790000E+03	3.397093E-15	9.190844E-17
3.800000E+03	3.316624E-15	9.013439E-17
3.810000E+03	3.235064E-15	8.842288E-17
3.820000E+03	3.160855E-15	8.688542E-17
3.830000E+03	3.101731E-15	8.562055E-17
3.840000E+03	3.064443E-15	8.472011E-17
3.850000E+03	3.054534E-15	8.426779E-17
3.860000E+03	3.076398E-15	8.433059E-17
3.870000E+03	3.133603E-15	8.496235E-17
3.880000E+03	3.228900E-15	8.619984E-17
3.890000E+03	3.364160E-15	8.805854E-17
3.900000E+03	3.540226E-15	9.053658E-17
3.910000E+03	3.756612E-15	9.361241E-17
3.920000E+03	4.011053E-15	9.723946E-17
3.930000E+03	4.299059E-15	1.013550E-16
3.940000E+03	4.613435E-15	1.058675E-16
3.950000E+03	4.944849E-15	1.106550E-16
3.960000E+03	5.280963E-15	1.155734E-16
3.970000E+03	5.608217E-15	1.205031E-16
3.980000E+03	5.912151E-15	1.253202E-16
3.990000E+03	6.179462E-15	1.299253E-16
4.000000E+03	6.399214E-15	1.341810E-16
4.010000E+03	6.564336E-15	1.378379E-16
4.020000E+03	6.672286E-15	1.406206E-16
4.030000E+03	6.724069E-15	1.423073E-16
4.040000E+03	6.724482E-15	1.427740E-16
4.050000E+03	6.680032E-15	1.420171E-16
4.060000E+03	6.598404E-15	1.401567E-16
4.070000E+03	6.487260E-15	1.373737E-16
4.080000E+03	6.353070E-15	1.338837E-16
4.090000E+03	6.200799E-15	1.298925E-16
4.100000E+03	6.033471E-15	1.255394E-16
4.110000E+03	5.852917E-15	1.209456E-16
4.120000E+03	5.660067E-15	1.162248E-16
4.130000E+03	5.455892E-15	1.114756E-16
4.140000E+03	5.241874E-15	1.068141E-16
4.150000E+03	5.020850E-15	1.023653E-16
4.160000E+03	4.797297E-15	9.821480E-17
4.170000E+03	4.576678E-15	9.442146E-17
4.180000E+03	4.365444E-15	9.102522E-17
4.190000E+03	4.170119E-15	8.801877E-17
4.200000E+03	3.996902E-15	8.538503E-17
4.210000E+03	3.850732E-15	8.311179E-17
4.220000E+03	3.735003E-15	8.118796E-17
4.230000E+03	3.651835E-15	7.962015E-17
4.240000E+03	3.601884E-15	7.842849E-17
4.250000E+03	3.584600E-15	7.764111E-17
4.260000E+03	3.598471E-15	7.729724E-17
4.270000E+03	3.641080E-15	7.743386E-17
4.280000E+03	3.709340E-15	7.807242E-17
4.290000E+03	3.799320E-15	7.921927E-17
4.300000E+03	3.906556E-15	8.085176E-17
4.310000E+03	4.026226E-15	8.288795E-17
4.320000E+03	4.152865E-15	8.519973E-17
4.330000E+03	4.280553E-15	8.764030E-17
4.340000E+03	4.403135E-15	9.005477E-17
4.350000E+03	4.514303E-15	9.230772E-17
4.360000E+03	4.608367E-15	9.431547E-17
4.370000E+03	4.681044E-15	9.605429E-17
4.380000E+03	4.729887E-15	9.755481E-17
4.390000E+03	4.755445E-15	9.887181E-17
4.400000E+03	4.761332E-15	1.000334E-16
4.410000E+03	4.753937E-15	1.010621E-16
4.420000E+03	4.742084E-15	1.019992E-16
4.430000E+03	4.735862E-15	1.028909E-16
4.440000E+03	4.745941E-15	1.038122E-16
4.450000E+03	4.782361E-15	1.048577E-16
4.460000E+03	4.854035E-15	1.061203E-16
4.470000E+03	4.968192E-15	1.076816E-16
4.480000E+03	5.130020E-15	1.095968E-16
4.490000E+03	5.342103E-15	1.118737E-16
4.500000E+03	5.603940E-15	1.144906E-16
4.510000E+03	5.911375E-15	1.173922E-16
4.520000E+03	6.256075E-15	1.204798E-16
4.530000E+03	6.624987E-15	1.236546E-16
4.540000E+03	7.001409E-15	1.268148E-16
4.550000E+03	7.365890E-15	1.297909E-16
4.560000E+03	7.697765E-15	1.324235E-16
4.570000E+03	7.977637E-15	1.345918E-16
4.580000E+03	8.189127E-15	1.361439E-16
4.590000E+03	8.320965E-15	1.369875E-16
4.600000E+03	8.367506E-15	1.370675E-16
4.610000E+03	8.329089E-15	1.362754E-16
4.620000E+03	8.211484E-15	1.345819E-16
4.630000E+03	8.024897E-15	1.320926E-16
4.640000E+03	7.782816E-15	1.289764E-16
4.650000E+03	7.500769E-15	1.255108E-16
4.660000E+03	7.194956E-15	1.220065E-16
4.670000E+03	6.881565E-15	1.186864E-16
4.680000E+03	6.575437E-15	1.157622E-16
4.690000E+03	6.289627E-15	1.134584E-16
4.700000E+03	6.034774E-15	1.119402E-16
4.710000E+03	5.819298E-15	1.113431E-16
4.720000E+03	5.649888E-15	1.117372E-16
4.730000E+03	5.531290E-15	1.130529E-16
4.740000E+03	5.467088E-15	1.151728E-16
4.750000E+03	5.459629E-15	1.179756E-16
4.760000E+03	5.510000E-15	1.213057E-16
4.770000E+03	5.618041E-15	1.249878E-16
4.780000E+03	5.782111E-15	1.288377E-16
4.790000E+03	5.998498E-15	1.326500E-16
4.800000E+03	6.260948E-15	1.362241E-16
4.810000E+03	6.559850E-15	1.393761E-16
4.820000E+03	6.881922E-15	1.419560E-16
4.830000E+03	7.210293E-15	1.438968E-16
4.840000E+03	7.525602E-15	1.451927E-16
4.850000E+03	7.807698E-15	1.458241E-16
4.860000E+03	8.038275E-15	1.457811E-16
4.870000E+03	8.204118E-15	1.449812E-16
4.880000E+03	8.299662E-15	1.431771E-16
4.890000E+03	8.327440E-15	1.401960E-16
4.900000E+03	8.296157E-15	1.361389E-16
4.910000E+03	8.219175E-15	1.313979E-16
4.920000E+03	8.111493E-15	1.266217E-16
4.930000E+03	7.987101E-15	1.223989E-16
4.940000E+03	7.856438E-15	1.189248E-16
4.950000E+03	7.725910E-15	1.161877E-16
4.960000E+03	7.597025E-15	1.140492E-16
4.970000E+03	7.466235E-15	1.121657E-16
4.980000E+03	7.326759E-15	1.102187E-16
4.990000E+03	7.171356E-15	1.080406E-16
5.000000E+03	6.993735E-15	1.055441E-16
5.010000E+03	6.790687E-15	1.028019E-16
5.020000E+03	6.563592E-15	9.994368E-17
5.030000E+03	6.319477E-15	9.699087E-17
5.040000E+03	6.068964E-15	9.396579E-17
5.050000E+03	5.824892E-15	9.094123E-17
5.060000E+03	5.600624E-15	8.796401E-17
5.070000E+03	5.408352E-15	8.513280E-17
5.080000E+03	5.257869E-15	8.261445E-17
5.090000E+03	5.155961E-15	8.058355E-17
5.100000E+03	5.106527E-15	7.924686E-17
5.110000E+03	5.110247E-15	7.876106E-17
5.120000E+03	5.164066E-15	7.913081E-17
5.130000E+03	5.261960E-15	8.032329E-17
5.140000E+03	5.395340E-15	8.225078E-17
5.150000E+03	5.553437E-15	8.464940E-17
5.160000E+03	5.723804E-15	8.721469E-17
5.170000E+03	5.894269E-15	8.971695E-17
5.180000E+03	6.054273E-15	9.196124E-17
5.190000E+03	6.195939E-15	9.385391E-17
5.200000E+03	6.314831E-15	9.535706E-17
5.210000E+03	6.410120E-15	9.635659E-17
5.220000E+03	6.484238E-15	9.675892E-17
5.230000E+03	6.541396E-15	9.651503E-17
5.240000E+03	6.586871E-15	9.556574E-17
5.250000E+03	6.625542E-15	9.396900E-17
5.260000E+03	6.661513E-15	9.193678E-17
5.270000E+03	6.697510E-15	8.975444E-17
5.280000E+03	6.734512E-15	8.782994E-17
5.290000E+03	6.771837E-15	8.644528E-17
5.300000E+03	6.807079E-15	8.545752E-17
5.310000E+03	6.836814E-15	8.463553E-17
5.320000E+03	6.856711E-15	8.386910E-17
5.330000E+03	6.862366E-15	8.309123E-17
5.340000E+03	6.849840E-15	8.243915E-17
5.350000E+03	6.816539E-15	8.208707E-17
5.360000E+03	6.761853E-15	8.191850E-17
5.370000E+03	6.687279E-15	8.179034E-17
5.380000E+03	6.596982E-15	8.158608E-17
5.390000E+03	6.497773E-15	8.100440E-17
5.400000E+03	6.397561E-15	7.983937E-17
5.410000E+03	6.304477E-15	7.818785E-17
5.420000E+03	6.225688E-15	7.635472E-17
5.430000E+03	6.166141E-15	7.480595E-17
5.440000E+03	6.127554E-15	7.385118E-17
5.450000E+03	6.107208E-15	7.332858E-17
5.460000E+03	6.098893E-15	7.292728E-17
5.470000E+03	6.094216E-15	7.243823E-17
5.480000E+03	6.083703E-15	7.173841E-17
5.490000E+03	6.058177E-15	7.093129E-17
5.500000E+03	6.011703E-15	7.020799E-17
5.510000E+03	5.942603E-15	6.958607E-17
5.520000E+03	5.853765E-15	6.914762E-17
5.530000E+03	5.751666E-15	6.898461E-17
5.540000E+03	5.645392E-15	6.893435E-17
5.550000E+03	5.544919E-15	6.884791E-17
5.560000E+03	5.458924E-15	6.867827E-17
5.570000E+03	5.393469E-15	6.831559E-17
5.580000E+03	5.351983E-15	6.775409E-17
5.590000E+03	5.335187E-15	6.713283E-17
5.600000E+03	5.341086E-15	6.660915E-17
5.610000E+03	5.365678E-15	6.643739E-17
5.620000E+03	5.403752E-15	6.678861E-17
5.630000E+03	5.449594E-15	6.746514E-17
5.640000E+03	5.497396E-15	6.815219E-17
5.650000E+03	5.542173E-15	6.861361E-17
5.660000E+03	5.580245E-15	6.863603E-17
5.670000E+03	5.609146E-15	6.818365E-17
5.680000E+03	5.627742E-15	6.740973E-17
5.690000E+03	5.635565E-15	6.652656E-17
5.700000E+03	5.632979E-15	6.591560E-17
5.710000E+03	5.620592E-15	6.588092E-17
5.720000E+03	5.599197E-15	6.631036E-17
5.730000E+03	5.569778E-15	6.701353E-17
5.740000E+03	5.534094E-15	6.785097E-17
5.750000E+03	5.494613E-15	6.852299E-17
5.760000E+03	5.454461E-15	6.879423E-17
5.770000E+03	5.416746E-15	6.862620E-17
5.780000E+03	5.384525E-15	6.807280E-17
5.790000E+03	5.360298E-15	6.732670E-17
5.800000E+03	5.345734E-15	6.659216E-17
5.810000E+03	5.341228E-15	6.589495E-17
5.820000E+03	5.346029E-15	6.528433E-17
5.830000E+03	5.358362E-15	6.487360E-17
5.840000E+03	5.375283E-15	6.470641E-17
5.850000E+03	5.393314E-15	6.492690E-17
5.860000E+03	5.409084E-15	6.565163E-17
5.870000E+03	5.420266E-15	6.668006E-17
5.880000E+03	5.425208E-15	6.775347E-17
5.890000E+03	5.423153E-15	6.868266E-17
5.900000E+03	5.414474E-15	6.920649E-17
5.910000E+03	5.400048E-15	6.918091E-17
5.920000E+03	5.381169E-15	6.867656E-17
5.930000E+03	5.359051E-15	6.786909E-17
5.940000E+03	5.334798E-15	6.708714E-17
5.950000E+03	5.309174E-15	6.661980E-17
5.960000E+03	5.282548E-15	6.646258E-17
5.970000E+03	5.254936E-15	6.654607E-17
5.980000E+03	5.226266E-15	6.681104E-17
5.990000E+03	5.196681E-15	6.706687E-17
6.000000E+03	5.166196E-15	6.718123E-17
6.010000E+03	5.134837E-15	6.715041E-17
6.020000E+03	5.102701E-15	6.696493E-17
6.030000E+03	5.069887E-15	6.668206E-17
6.040000E+03	5.036276E-15	6.637706E-17
6.050000E+03	5.001947E-15	6.600687E-17
6.060000E+03	4.966759E-15	6.553352E-17
6.070000E+03	4.930546E-15	6.495839E-17
6.080000E+03	4.893138E-15	6.423718E-17
6.090000E+03	4.854462E-15	6.340489E-17
6.100000E+03	4.814764E-15	6.256420E-17
6.110000E+03	4.774575E-15	6.176357E-17
6.120000E+03	4.734858E-15	6.110696E-17
6.130000E+03	4.696530E-15	6.068030E-17
6.140000E+03	4.660578E-15	6.038673E-17
6.150000E+03	4.627774E-15	6.012682E-17
6.160000E+03	4.598376E-15	5.987052E-17
6.170000E+03	4.572083E-15	5.955295E-17
6.180000E+03	4.548123E-15	5.916082E-17
6.190000E+03	4.525238E-15	5.869385E-17
6.200000E+03	4.501792E-15	5.804328E-17
6.210000E+03	4.476258E-15	5.716368E-17
6.220000E+03	4.447393E-15	5.617796E-17
6.230000E+03	4.414378E-15	5.532455E-17
6.240000E+03	4.376837E-15	5.495747E-17
6.250000E+03	4.334643E-15	5.529244E-17
6.260000E+03	4.287268E-15	5.612766E-17
6.270000E+03	4.234086E-15	5.709550E-17
6.280000E+03	4.174020E-15	5.790728E-17
6.290000E+03	4.105792E-15	5.836008E-17
6.300000E+03	4.028114E-15	5.836705E-17
6.310000E+03	3.940214E-15	5.791286E-17
6.320000E+03	3.842489E-15	5.698157E-17
6.330000E+03	3.736566E-15	5.563623E-17
6.340000E+03	3.625871E-15	5.406538E-17
6.350000E+03	3.515611E-15	5.254007E-17
6.360000E+03	3.412574E-15	5.139495E-17
6.370000E+03	3.324751E-15	5.087714E-17
6.380000E+03	3.261368E-15	5.102282E-17
6.390000E+03	3.232042E-15	5.179643E-17
6.400000E+03	3.245900E-15	5.319038E-17
6.410000E+03	3.311663E-15	5.520102E-17
6.420000E+03	3.437952E-15	5.785180E-17
6.430000E+03	3.633185E-15	6.119527E-17
6.440000E+03	3.905002E-15	6.527136E-17
6.450000E+03	4.259863E-15	7.010632E-17
6.460000E+03	4.701301E-15	7.565181E-17
6.470000E+03	5.227452E-15	8.169329E-17
6.480000E+03	5.828804E-15	8.789080E-17
6.490000E+03	6.487061E-15	9.381151E-17
6.500000E+03	7.174891E-15	9.893057E-17
6.510000E+03	7.856699E-15	1.028543E-16
6.520000E+03	8.493069E-15	1.055016E-16
6.530000E+03	9.046842E-15	1.071553E-16
6.540000E+03	9.487577E-15	1.086117E-16
6.550000E+03	9.796065E-15	1.105164E-16
6.560000E+03	9.966845E-15	1.124661E-16
6.570000E+03	1.000746E-14	1.137334E-16
6.580000E+03	9.934209E-15	1.138877E-16
6.590000E+03	9.767993E-15	1.126176E-16
6.600000E+03	9.531156E-15	1.100114E-16
6.610000E+03	9.245075E-15	1.064920E-16
6.620000E+03	8.927924E-15	1.024492E-16
6.630000E+03	8.594250E-15	9.842859E-17
6.640000E+03	8.255125E-15	9.483843E-17
6.650000E+03	7.918429E-15	9.155700E-17
6.660000E+03	7.589865E-15	8.851173E-17
6.670000E+03	7.273253E-15	8.581232E-17
6.680000E+03	6.971575E-15	8.344626E-17
6.690000E+03	6.687082E-15	8.151449E-17
6.700000E+03	6.421183E-15	8.008594E-17
6.710000E+03	6.174555E-15	7.884406E-17
6.720000E+03	5.947211E-15	7.746145E-17
6.730000E+03	5.738817E-15	7.587125E-17
6.740000E+03	5.548460E-15	7.416433E-17
6.750000E+03	5.374807E-15	7.258608E-17
6.760000E+03	5.216531E-15	7.134805E-17
6.770000E+03	5.072135E-15	7.041465E-17
6.780000E+03	4.940341E-15	6.970380E-17
6.790000E+03	4.819581E-15	6.916213E-17
6.800000E+03	4.708865E-15	6.869027E-17
6.810000E+03	4.607041E-15	6.824500E-17
6.820000E+03	4.513717E-15	6.784396E-17
6.830000E+03	4.428556E-15	6.743728E-17
6.840000E+03	4.351909E-15	6.700260E-17
6.850000E+03	4.284194E-15	6.655938E-17
6.860000E+03	4.226114E-15	6.610284E-17
6.870000E+03	4.178228E-15	6.565237E-17
6.880000E+03	4.140862E-15	6.522887E-17
6.890000E+03	4.113829E-15	6.477521E-17
6.900000E+03	4.096437E-15	6.424161E-17
6.910000E+03	4.087393E-15	6.361615E-17
6.920000E+03	4.084977E-15	6.288925E-17
6.930000E+03	4.086854E-15	6.212690E-17
6.940000E+03	4.090454E-15	6.147930E-17
6.950000E+03	4.093247E-15	6.111246E-17
6.960000E+03	4.092823E-15	6.121669E-17
6.970000E+03	4.087289E-15	6.184913E-17
6.980000E+03	4.075654E-15	6.275763E-17
6.990000E+03	4.057765E-15	6.357839E-17
7.000000E+03	4.034018E-15	6.402526E-17
7.010000E+03	4.005541E-15	6.390769E-17
7.020000E+03	3.973718E-15	6.317931E-17
7.030000E+03	3.940385E-15	6.194176E-17
7.040000E+03	3.907528E-15	6.038544E-17
7.050000E+03	3.876939E-15	5.878741E-17
7.060000E+03	3.850375E-15	5.741683E-17
7.070000E+03	3.829119E-15	5.641911E-17
7.080000E+03	3.814210E-15	5.591115E-17
7.090000E+03	3.805834E-15	5.596167E-17
7.100000E+03	3.803807E-15	5.650640E-17
7.110000E+03	3.807325E-15	5.746413E-17
7.120000E+03	3.815135E-15	5.877250E-17
7.130000E+03	3.825987E-15	6.030687E-17
7.140000E+03	3.838316E-15	6.193790E-17
7.150000E+03	3.850886E-15	6.354169E-17
7.160000E+03	3.862441E-15	6.492084E-17
7.170000E+03	3.872163E-15	6.589862E-17
7.180000E+03	3.879506E-15	6.639192E-17
7.190000E+03	3.884230E-15	6.640604E-17
7.200000E+03	3.886428E-15	6.605882E-17
7.210000E+03	3.886409E-15	6.552479E-17
7.220000E+03	3.884447E-15	6.494197E-17
7.230000E+03	3.880851E-15	6.443735E-17
7.240000E+03	3.875781E-15	6.407609E-17
7.250000E+03	3.869117E-15	6.377683E-17
7.260000E+03	3.860764E-15	6.341893E-17
7.270000E+03	3.850304E-15	6.291643E-17
7.280000E+03	3.837443E-15	6.222307E-17
7.290000E+03	3.822046E-15	6.139328E-17
7.300000E+03	3.804084E-15	6.056498E-17
7.310000E+03	3.783885E-15	5.989265E-17
7.320000E+03	3.761982E-15	5.956349E-17
7.330000E+03	3.739005E-15	5.969791E-17
7.340000E+03	3.715348E-15	6.022015E-17
7.350000E+03	3.691536E-15	6.099257E-17
7.360000E+03	3.668023E-15	6.190201E-17
7.370000E+03	3.645219E-15	6.282971E-17
7.380000E+03	3.623626E-15	6.370797E-17
7.390000E+03	3.603604E-15	6.451549E-17
7.400000E+03	3.585402E-15	6.521416E-17
7.410000E+03	3.569118E-15	6.577560E-17
7.420000E+03	3.554898E-15	6.619165E-17
7.430000E+03	3.542698E-15	6.643598E-17
7.440000E+03	3.532583E-15	6.649665E-17
7.450000E+03	3.524269E-15	6.637540E-17
7.460000E+03	3.517559E-15	6.607693E-17
7.470000E+03	3.511913E-15	6.563039E-17
7.480000E+03	3.506892E-15	6.509696E-17
7.490000E+03	3.501916E-15	6.453626E-17
7.500000E+03	3.496418E-15	6.402881E-17
7.510000E+03	3.489959E-15	6.365764E-17
7.520000E+03	3.481990E-15	6.346165E-17
7.530000E+03	3.472211E-15	6.348090E-17
7.540000E+03	3.460325E-15	6.375766E-17
7.550000E+03	3.445792E-15	6.429420E-17
7.560000E+03	3.428359E-15	6.506885E-17
7.570000E+03	3.407774E-15	6.596822E-17
7.580000E+03	3.384125E-15	6.673176E-17
7.590000E+03	3.357596E-15	6.706370E-17
7.600000E+03	3.328989E-15	6.676755E-17
7.610000E+03	3.299106E-15	6.576860E-17
7.620000E+03	3.269216E-15	6.413941E-17
7.630000E+03	3.240521E-15	6.207497E-17
7.640000E+03	3.214507E-15	5.986093E-17
7.650000E+03	3.192630E-15	5.782163E-17
7.660000E+03	3.175981E-15	5.618773E-17
7.670000E+03	3.165355E-15	5.499976E-17
7.680000E+03	3.161053E-15	5.420383E-17
7.690000E+03	3.163037E-15	5.374799E-17
7.700000E+03	3.170658E-15	5.358998E-17
7.710000E+03	3.182941E-15	5.373715E-17
7.720000E+03	3.198488E-15	5.418542E-17
7.730000E+03	3.215907E-15	5.483638E-17
7.740000E+03	3.233604E-15	5.556289E-17
7.750000E+03	3.250289E-15	5.625638E-17
7.760000E+03	3.264839E-15	5.679548E-17
