#wls	flux	fluxerr
1.600000E+03	5.363969E-17	3.594840E-17
1.640000E+03	5.300255E-17	3.461366E-17
1.680000E+03	5.256865E-17	3.343454E-17
1.720000E+03	5.233809E-17	3.240861E-17
1.760000E+03	5.238196E-17	3.157690E-17
1.800000E+03	5.270322E-17	3.093662E-17
1.840000E+03	5.332903E-17	3.049962E-17
1.880000E+03	5.430960E-17	3.028992E-17
1.920000E+03	5.564868E-17	3.030442E-17
1.960000E+03	5.739370E-17	3.056389E-17
2.000000E+03	5.956531E-17	3.107331E-17
2.040000E+03	6.217772E-17	3.183356E-17
2.080000E+03	6.523615E-17	3.283986E-17
2.120000E+03	6.876104E-17	3.409364E-17
2.160000E+03	7.273621E-17	3.557615E-17
2.200000E+03	7.713249E-17	3.726089E-17
2.240000E+03	8.190884E-17	3.911453E-17
2.280000E+03	8.701535E-17	4.109904E-17
2.320000E+03	9.243026E-17	4.319010E-17
2.360000E+03	9.807169E-17	4.533677E-17
2.400000E+03	1.039302E-16	4.752506E-17
2.440000E+03	1.099434E-16	4.972040E-17
2.480000E+03	1.161352E-16	5.193184E-17
2.520000E+03	1.225156E-16	5.416474E-17
2.560000E+03	1.291138E-16	5.643354E-17
2.600000E+03	1.359768E-16	5.875719E-17
2.640000E+03	1.432476E-16	6.118769E-17
2.680000E+03	1.509662E-16	6.371942E-17
2.720000E+03	1.592234E-16	6.635192E-17
2.760000E+03	1.682083E-16	6.910551E-17
2.800000E+03	1.780440E-16	7.195070E-17
2.840000E+03	1.888718E-16	7.484295E-17
2.880000E+03	2.009010E-16	7.774175E-17
2.920000E+03	2.143246E-16	8.057593E-17
2.960000E+03	2.294646E-16	8.329725E-17
3.000000E+03	2.465380E-16	8.578991E-17
3.010000E+03	2.511522E-16	8.636771E-17
3.020000E+03	2.559304E-16	8.692882E-17
3.030000E+03	2.608780E-16	8.747114E-17
3.040000E+03	2.660010E-16	8.799249E-17
3.050000E+03	2.712522E-16	8.847327E-17
3.060000E+03	2.766897E-16	8.892861E-17
3.070000E+03	2.823198E-16	8.935605E-17
3.080000E+03	2.881485E-16	8.975305E-17
3.090000E+03	2.941823E-16	9.011697E-17
3.100000E+03	3.004274E-16	9.044507E-17
3.110000E+03	3.068338E-16	9.071780E-17
3.120000E+03	3.135203E-16	9.096581E-17
3.130000E+03	3.203795E-16	9.115279E-17
3.140000E+03	3.275327E-16	9.130871E-17
3.150000E+03	3.349288E-16	9.141384E-17
3.160000E+03	3.425139E-16	9.144898E-17
3.170000E+03	3.504129E-16	9.144304E-17
3.180000E+03	3.585720E-16	9.137660E-17
3.190000E+03	3.669966E-16	9.124640E-17
3.200000E+03	3.757541E-16	9.106445E-17
3.210000E+03	3.847878E-16	9.081188E-17
3.220000E+03	3.941014E-16	9.048555E-17
3.230000E+03	4.036983E-16	9.008241E-17
3.240000E+03	4.136471E-16	8.961392E-17
3.250000E+03	4.239524E-16	8.907660E-17
3.260000E+03	4.345499E-16	8.845328E-17
3.270000E+03	4.454400E-16	8.774162E-17
3.280000E+03	4.566916E-16	8.695286E-17
3.290000E+03	4.683767E-16	8.609735E-17
3.300000E+03	4.802832E-16	8.513382E-17
3.310000E+03	4.926223E-16	8.409925E-17
3.320000E+03	5.053212E-16	8.297905E-17
3.330000E+03	5.183768E-16	8.177206E-17
3.340000E+03	5.317846E-16	8.047764E-17
3.350000E+03	5.455390E-16	7.909570E-17
3.360000E+03	5.596331E-16	7.762685E-17
3.370000E+03	5.741369E-16	7.608281E-17
3.380000E+03	5.889642E-16	7.445470E-17
3.390000E+03	6.041841E-16	7.275527E-17
3.400000E+03	6.197052E-16	7.097810E-17
3.410000E+03	6.356775E-16	6.914576E-17
3.420000E+03	6.519239E-16	6.724411E-17
3.430000E+03	6.685103E-16	6.528658E-17
3.440000E+03	6.854198E-16	6.327694E-17
3.450000E+03	7.026340E-16	6.121822E-17
3.460000E+03	7.201341E-16	5.911258E-17
3.470000E+03	7.379883E-16	5.696813E-17
3.480000E+03	7.560915E-16	5.477864E-17
3.490000E+03	7.745134E-16	5.255237E-17
3.500000E+03	7.932354E-16	5.029334E-17
3.510000E+03	8.122368E-16	4.801091E-17
3.520000E+03	8.314012E-16	4.571832E-17
3.530000E+03	8.508781E-16	4.345737E-17
3.540000E+03	8.705365E-16	4.127271E-17
3.550000E+03	8.904189E-16	3.924243E-17
3.560000E+03	9.103733E-16	3.746350E-17
3.570000E+03	9.304288E-16	3.606666E-17
3.580000E+03	9.505263E-16	3.518961E-17
3.590000E+03	9.706309E-16	3.494975E-17
3.600000E+03	9.907686E-16	3.539942E-17
3.610000E+03	1.011154E-15	3.649940E-17
3.620000E+03	1.031889E-15	3.812553E-17
3.630000E+03	1.053205E-15	4.012404E-17
3.640000E+03	1.075523E-15	4.235348E-17
3.650000E+03	1.098841E-15	4.468168E-17
3.660000E+03	1.123380E-15	4.701563E-17
3.670000E+03	1.149168E-15	4.928340E-17
3.680000E+03	1.176212E-15	5.143648E-17
3.690000E+03	1.204196E-15	5.343249E-17
3.700000E+03	1.232870E-15	5.524896E-17
3.710000E+03	1.261775E-15	5.686917E-17
3.720000E+03	1.290268E-15	5.828127E-17
3.730000E+03	1.317962E-15	5.949599E-17
3.740000E+03	1.344086E-15	6.051511E-17
3.750000E+03	1.368446E-15	6.137081E-17
3.760000E+03	1.390409E-15	6.207511E-17
3.770000E+03	1.410150E-15	6.267097E-17
3.780000E+03	1.427622E-15	6.318125E-17
3.790000E+03	1.443377E-15	6.364185E-17
3.800000E+03	1.458266E-15	6.408730E-17
3.810000E+03	1.473218E-15	6.454287E-17
3.820000E+03	1.489480E-15	6.503830E-17
3.830000E+03	1.508544E-15	6.560815E-17
3.840000E+03	1.531890E-15	6.628301E-17
3.850000E+03	1.561013E-15	6.709202E-17
3.860000E+03	1.597272E-15	6.805643E-17
3.870000E+03	1.642285E-15	6.920670E-17
3.880000E+03	1.696958E-15	7.054140E-17
3.890000E+03	1.762432E-15	7.206906E-17
3.900000E+03	1.839381E-15	7.378157E-17
3.910000E+03	1.928128E-15	7.566415E-17
3.920000E+03	2.028559E-15	7.769856E-17
3.930000E+03	2.140048E-15	7.986668E-17
3.940000E+03	2.261488E-15	8.215766E-17
3.950000E+03	2.390807E-15	8.455420E-17
3.960000E+03	2.525852E-15	8.706441E-17
3.970000E+03	2.663342E-15	8.967881E-17
3.980000E+03	2.799899E-15	9.239634E-17
3.990000E+03	2.931775E-15	9.520217E-17
4.000000E+03	3.055183E-15	9.806527E-17
4.010000E+03	3.166506E-15	1.009317E-16
4.020000E+03	3.262486E-15	1.037198E-16
4.030000E+03	3.340487E-15	1.063217E-16
4.040000E+03	3.398198E-15	1.085955E-16
4.050000E+03	3.434241E-15	1.103949E-16
4.060000E+03	3.447700E-15	1.115698E-16
4.070000E+03	3.438656E-15	1.120016E-16
4.080000E+03	3.407676E-15	1.116078E-16
4.090000E+03	3.356280E-15	1.103733E-16
4.100000E+03	3.286467E-15	1.083409E-16
4.110000E+03	3.200637E-15	1.056071E-16
4.120000E+03	3.101783E-15	1.023176E-16
4.130000E+03	2.993022E-15	9.863528E-17
4.140000E+03	2.877487E-15	9.472004E-17
4.150000E+03	2.758503E-15	9.071965E-17
4.160000E+03	2.639096E-15	8.674625E-17
4.170000E+03	2.522246E-15	8.288751E-17
4.180000E+03	2.410468E-15	7.920075E-17
4.190000E+03	2.306007E-15	7.572737E-17
4.200000E+03	2.210724E-15	7.249786E-17
4.210000E+03	2.126160E-15	6.953886E-17
4.220000E+03	2.053260E-15	6.686623E-17
4.230000E+03	1.992963E-15	6.450646E-17
4.240000E+03	1.945599E-15	6.247732E-17
4.250000E+03	1.911296E-15	6.079942E-17
4.260000E+03	1.889893E-15	5.949075E-17
4.270000E+03	1.880901E-15	5.856197E-17
4.280000E+03	1.883644E-15	5.801576E-17
4.290000E+03	1.897076E-15	5.783586E-17
4.300000E+03	1.919867E-15	5.798435E-17
4.310000E+03	1.950489E-15	5.840232E-17
4.320000E+03	1.987055E-15	5.901017E-17
4.330000E+03	2.027493E-15	5.972179E-17
4.340000E+03	2.069538E-15	6.045278E-17
4.350000E+03	2.110940E-15	6.113318E-17
4.360000E+03	2.149590E-15	6.171227E-17
4.370000E+03	2.183645E-15	6.215745E-17
4.380000E+03	2.212007E-15	6.246060E-17
4.390000E+03	2.234138E-15	6.262225E-17
4.400000E+03	2.250577E-15	6.265712E-17
4.410000E+03	2.262757E-15	6.258681E-17
4.420000E+03	2.272896E-15	6.243981E-17
4.430000E+03	2.284062E-15	6.225995E-17
4.440000E+03	2.299720E-15	6.210372E-17
4.450000E+03	2.323800E-15	6.204700E-17
4.460000E+03	2.360343E-15	6.217639E-17
4.470000E+03	2.413452E-15	6.259249E-17
4.480000E+03	2.486981E-15	6.340413E-17
4.490000E+03	2.584549E-15	6.472639E-17
4.500000E+03	2.709073E-15	6.666733E-17
4.510000E+03	2.862521E-15	6.931794E-17
4.520000E+03	3.045352E-15	7.272889E-17
4.530000E+03	3.256312E-15	7.689233E-17
4.540000E+03	3.491808E-15	8.170683E-17
4.550000E+03	3.745923E-15	8.696173E-17
4.560000E+03	4.010302E-15	9.233912E-17
4.570000E+03	4.274726E-15	9.744421E-17
4.580000E+03	4.527815E-15	1.018506E-16
4.590000E+03	4.758007E-15	1.051775E-16
4.600000E+03	4.954602E-15	1.071572E-16
4.610000E+03	5.108986E-15	1.076782E-16
4.620000E+03	5.214968E-15	1.068015E-16
4.630000E+03	5.269766E-15	1.047586E-16
4.640000E+03	5.273683E-15	1.018890E-16
4.650000E+03	5.229926E-15	9.857775E-17
4.660000E+03	5.144391E-15	9.519051E-17
4.670000E+03	5.024612E-15	9.201573E-17
4.680000E+03	4.879525E-15	8.926958E-17
4.690000E+03	4.718388E-15	8.709624E-17
4.700000E+03	4.550741E-15	8.559238E-17
4.710000E+03	4.385225E-15	8.482897E-17
4.720000E+03	4.229667E-15	8.487510E-17
4.730000E+03	4.090509E-15	8.577844E-17
4.740000E+03	3.972890E-15	8.755551E-17
4.750000E+03	3.880809E-15	9.018170E-17
4.760000E+03	3.817051E-15	9.358022E-17
4.770000E+03	3.783389E-15	9.763488E-17
4.780000E+03	3.780746E-15	1.022048E-16
4.790000E+03	3.808969E-15	1.071194E-16
4.800000E+03	3.867141E-15	1.121879E-16
4.810000E+03	3.953473E-15	1.171993E-16
4.820000E+03	4.065430E-15	1.219315E-16
4.830000E+03	4.199649E-15	1.261635E-16
4.840000E+03	4.351779E-15	1.296918E-16
4.850000E+03	4.516641E-15	1.323623E-16
4.860000E+03	4.688252E-15	1.341028E-16
4.870000E+03	4.859783E-15	1.349405E-16
4.880000E+03	5.024378E-15	1.350268E-16
4.890000E+03	5.175248E-15	1.346225E-16
4.900000E+03	5.306462E-15	1.340545E-16
4.910000E+03	5.413441E-15	1.336167E-16
4.920000E+03	5.493270E-15	1.334688E-16
4.930000E+03	5.544803E-15	1.335517E-16
4.940000E+03	5.568339E-15	1.335717E-16
4.950000E+03	5.565213E-15	1.331035E-16
4.960000E+03	5.537465E-15	1.317334E-16
4.970000E+03	5.486955E-15	1.291542E-16
4.980000E+03	5.415396E-15	1.252374E-16
4.990000E+03	5.323752E-15	1.200335E-16
5.000000E+03	5.212761E-15	1.137591E-16
5.010000E+03	5.082834E-15	1.067608E-16
5.020000E+03	4.934916E-15	9.947115E-17
5.030000E+03	4.770858E-15	9.234645E-17
5.040000E+03	4.594110E-15	8.584214E-17
5.050000E+03	4.410256E-15	8.035217E-17
5.060000E+03	4.226588E-15	7.612148E-17
5.070000E+03	4.051497E-15	7.322192E-17
5.080000E+03	3.893312E-15	7.154002E-17
5.090000E+03	3.759400E-15	7.080991E-17
5.100000E+03	3.655656E-15	7.072632E-17
5.110000E+03	3.586014E-15	7.103012E-17
5.120000E+03	3.552532E-15	7.153088E-17
5.130000E+03	3.555394E-15	7.209718E-17
5.140000E+03	3.593174E-15	7.264133E-17
5.150000E+03	3.662781E-15	7.310044E-17
5.160000E+03	3.759575E-15	7.343669E-17
5.170000E+03	3.877331E-15	7.363549E-17
5.180000E+03	4.008631E-15	7.371389E-17
5.190000E+03	4.145240E-15	7.373888E-17
5.200000E+03	4.279008E-15	7.382513E-17
5.210000E+03	4.403120E-15	7.410806E-17
5.220000E+03	4.512806E-15	7.471201E-17
5.230000E+03	4.606047E-15	7.568812E-17
5.240000E+03	4.683526E-15	7.695249E-17
5.250000E+03	4.748077E-15	7.831813E-17
5.260000E+03	4.803570E-15	7.954371E-17
5.270000E+03	4.853908E-15	8.036737E-17
5.280000E+03	4.902329E-15	8.057178E-17
5.290000E+03	4.950710E-15	8.003496E-17
5.300000E+03	4.999708E-15	7.876866E-17
5.310000E+03	5.048434E-15	7.694734E-17
5.320000E+03	5.095006E-15	7.487665E-17
5.330000E+03	5.136378E-15	7.291535E-17
5.340000E+03	5.169199E-15	7.145665E-17
5.350000E+03	5.190107E-15	7.076137E-17
5.360000E+03	5.196692E-15	7.079719E-17
5.370000E+03	5.187419E-15	7.136938E-17
5.380000E+03	5.162109E-15	7.225205E-17
5.390000E+03	5.121828E-15	7.319110E-17
5.400000E+03	5.069130E-15	7.400761E-17
5.410000E+03	5.007735E-15	7.464088E-17
5.420000E+03	4.942284E-15	7.509293E-17
5.430000E+03	4.877872E-15	7.540950E-17
5.440000E+03	4.819131E-15	7.564144E-17
5.450000E+03	4.769839E-15	7.580094E-17
5.460000E+03	4.732351E-15	7.587172E-17
5.470000E+03	4.707183E-15	7.581838E-17
5.480000E+03	4.692489E-15	7.557695E-17
5.490000E+03	4.684500E-15	7.509624E-17
5.500000E+03	4.678054E-15	7.436928E-17
5.510000E+03	4.667196E-15	7.343828E-17
5.520000E+03	4.646494E-15	7.240475E-17
5.530000E+03	4.611884E-15	7.138314E-17
5.540000E+03	4.562108E-15	7.046860E-17
5.550000E+03	4.498581E-15	6.976127E-17
5.560000E+03	4.425652E-15	6.934395E-17
5.570000E+03	4.349865E-15	6.922116E-17
5.580000E+03	4.278652E-15	6.937066E-17
5.590000E+03	4.218744E-15	6.976849E-17
5.600000E+03	4.175330E-15	7.035869E-17
5.610000E+03	4.151515E-15	7.106022E-17
5.620000E+03	4.148258E-15	7.178452E-17
5.630000E+03	4.164224E-15	7.243687E-17
5.640000E+03	4.196165E-15	7.294441E-17
5.650000E+03	4.239287E-15	7.327474E-17
5.660000E+03	4.287675E-15	7.343550E-17
5.670000E+03	4.334916E-15	7.346699E-17
5.680000E+03	4.374978E-15	7.338876E-17
5.690000E+03	4.402621E-15	7.314194E-17
5.700000E+03	4.414079E-15	7.263442E-17
5.710000E+03	4.407461E-15	7.179846E-17
5.720000E+03	4.382551E-15	7.061391E-17
5.730000E+03	4.341104E-15	6.915378E-17
5.740000E+03	4.286133E-15	6.757036E-17
5.750000E+03	4.221761E-15	6.604914E-17
5.760000E+03	4.152720E-15	6.476782E-17
5.770000E+03	4.084118E-15	6.382979E-17
5.780000E+03	4.020938E-15	6.321435E-17
5.790000E+03	3.967778E-15	6.283527E-17
5.800000E+03	3.928568E-15	6.260467E-17
5.810000E+03	3.906474E-15	6.246308E-17
5.820000E+03	3.903457E-15	6.241012E-17
5.830000E+03	3.920445E-15	6.250170E-17
5.840000E+03	3.956948E-15	6.281035E-17
5.850000E+03	4.011123E-15	6.342628E-17
5.860000E+03	4.079903E-15	6.441146E-17
5.870000E+03	4.158957E-15	6.572850E-17
5.880000E+03	4.243058E-15	6.726464E-17
5.890000E+03	4.326654E-15	6.885333E-17
5.900000E+03	4.404579E-15	7.027615E-17
5.910000E+03	4.472300E-15	7.132928E-17
5.920000E+03	4.526396E-15	7.187976E-17
5.930000E+03	4.564691E-15	7.188058E-17
5.940000E+03	4.586410E-15	7.141236E-17
5.950000E+03	4.591775E-15	7.063482E-17
5.960000E+03	4.581691E-15	6.969034E-17
5.970000E+03	4.557730E-15	6.870008E-17
5.980000E+03	4.521742E-15	6.771353E-17
5.990000E+03	4.475805E-15	6.665594E-17
6.000000E+03	4.422202E-15	6.543135E-17
6.010000E+03	4.363084E-15	6.401766E-17
6.020000E+03	4.300900E-15	6.248974E-17
6.030000E+03	4.238064E-15	6.101826E-17
6.040000E+03	4.177049E-15	5.979109E-17
6.050000E+03	4.120349E-15	5.891359E-17
6.060000E+03	4.069999E-15	5.841378E-17
6.070000E+03	4.027459E-15	5.823244E-17
6.080000E+03	3.993300E-15	5.819728E-17
6.090000E+03	3.967133E-15	5.811432E-17
6.100000E+03	3.947950E-15	5.785329E-17
6.110000E+03	3.934040E-15	5.736683E-17
6.120000E+03	3.923559E-15	5.673210E-17
6.130000E+03	3.914615E-15	5.612794E-17
6.140000E+03	3.905878E-15	5.578028E-17
6.150000E+03	3.896550E-15	5.592491E-17
6.160000E+03	3.886429E-15	5.666798E-17
6.170000E+03	3.875819E-15	5.786010E-17
6.180000E+03	3.865439E-15	5.922594E-17
6.190000E+03	3.855943E-15	6.050291E-17
6.200000E+03	3.847802E-15	6.147260E-17
6.210000E+03	3.841153E-15	6.200171E-17
6.220000E+03	3.835851E-15	6.206170E-17
6.230000E+03	3.831622E-15	6.170729E-17
6.240000E+03	3.827882E-15	6.104953E-17
6.250000E+03	3.823837E-15	6.020167E-17
6.260000E+03	3.818506E-15	5.922900E-17
6.270000E+03	3.810577E-15	5.817138E-17
6.280000E+03	3.798189E-15	5.705954E-17
6.290000E+03	3.778889E-15	5.591026E-17
6.300000E+03	3.749355E-15	5.474964E-17
6.310000E+03	3.705783E-15	5.361245E-17
6.320000E+03	3.643914E-15	5.250920E-17
6.330000E+03	3.559869E-15	5.143632E-17
6.340000E+03	3.451374E-15	5.035223E-17
6.350000E+03	3.318560E-15	4.915218E-17
6.360000E+03	3.164573E-15	4.774600E-17
6.370000E+03	2.995630E-15	4.610911E-17
6.380000E+03	2.820844E-15	4.428797E-17
6.390000E+03	2.650700E-15	4.241719E-17
6.400000E+03	2.496021E-15	4.070564E-17
6.410000E+03	2.367019E-15	3.938650E-17
6.420000E+03	2.272806E-15	3.869577E-17
6.430000E+03	2.221315E-15	3.884470E-17
6.440000E+03	2.219753E-15	3.999644E-17
6.450000E+03	2.275393E-15	4.227921E-17
6.460000E+03	2.395970E-15	4.578705E-17
6.470000E+03	2.589831E-15	5.055843E-17
6.480000E+03	2.866016E-15	5.656292E-17
6.490000E+03	3.233484E-15	6.367808E-17
6.500000E+03	3.699123E-15	7.165442E-17
6.510000E+03	4.264538E-15	8.010117E-17
6.520000E+03	4.921552E-15	8.849110E-17
6.530000E+03	5.647715E-15	9.621491E-17
6.540000E+03	6.403101E-15	1.027097E-16
6.550000E+03	7.132804E-15	1.075752E-16
6.560000E+03	7.775874E-15	1.106432E-16
6.570000E+03	8.277175E-15	1.120820E-16
6.580000E+03	8.599594E-15	1.121906E-16
6.590000E+03	8.733670E-15	1.110933E-16
6.600000E+03	8.695862E-15	1.089646E-16
6.610000E+03	8.518919E-15	1.061099E-16
6.620000E+03	8.240969E-15	1.027522E-16
6.630000E+03	7.898497E-15	9.917613E-17
6.640000E+03	7.521894E-15	9.564279E-17
6.650000E+03	7.133478E-15	9.216391E-17
6.660000E+03	6.748157E-15	8.871439E-17
6.670000E+03	6.375735E-15	8.536200E-17
6.680000E+03	6.022283E-15	8.217240E-17
6.690000E+03	5.691397E-15	7.921621E-17
6.700000E+03	5.385468E-15	7.649124E-17
6.710000E+03	5.105832E-15	7.383913E-17
6.720000E+03	4.853344E-15	7.111390E-17
6.730000E+03	4.627816E-15	6.829930E-17
6.740000E+03	4.428477E-15	6.551489E-17
6.750000E+03	4.253884E-15	6.299489E-17
6.760000E+03	4.102169E-15	6.094918E-17
6.770000E+03	3.971142E-15	5.942270E-17
6.780000E+03	3.858456E-15	5.836379E-17
6.790000E+03	3.761522E-15	5.766689E-17
6.800000E+03	3.677655E-15	5.715714E-17
6.810000E+03	3.604337E-15	5.666322E-17
6.820000E+03	3.539209E-15	5.607313E-17
6.830000E+03	3.480579E-15	5.534484E-17
6.840000E+03	3.427116E-15	5.451497E-17
6.850000E+03	3.377992E-15	5.367006E-17
6.860000E+03	3.332837E-15	5.289277E-17
6.870000E+03	3.291635E-15	5.226317E-17
6.880000E+03	3.254759E-15	5.184757E-17
6.890000E+03	3.222693E-15	5.166385E-17
6.900000E+03	3.196045E-15	5.169147E-17
6.910000E+03	3.175198E-15	5.186144E-17
6.920000E+03	3.160248E-15	5.204428E-17
6.930000E+03	3.151085E-15	5.209635E-17
6.940000E+03	3.147118E-15	5.189705E-17
6.950000E+03	3.147593E-15	5.137295E-17
6.960000E+03	3.151299E-15	5.052960E-17
6.970000E+03	3.157054E-15	4.947780E-17
6.980000E+03	3.163476E-15	4.841367E-17
6.990000E+03	3.169307E-15	4.757947E-17
7.000000E+03	3.173375E-15	4.714287E-17
7.010000E+03	3.174962E-15	4.710596E-17
7.020000E+03	3.173657E-15	4.736592E-17
7.030000E+03	3.169327E-15	4.778587E-17
7.040000E+03	3.162187E-15	4.821483E-17
7.050000E+03	3.152553E-15	4.854207E-17
7.060000E+03	3.140848E-15	4.872324E-17
7.070000E+03	3.127483E-15	4.875924E-17
7.080000E+03	3.112857E-15	4.870001E-17
7.090000E+03	3.097422E-15	4.862203E-17
7.100000E+03	3.081732E-15	4.858882E-17
7.110000E+03	3.066349E-15	4.865835E-17
7.120000E+03	3.051932E-15	4.886962E-17
7.130000E+03	3.039235E-15	4.920859E-17
7.140000E+03	3.028837E-15	4.962500E-17
7.150000E+03	3.021119E-15	5.004696E-17
7.160000E+03	3.016153E-15	5.037901E-17
7.170000E+03	3.013877E-15	5.054506E-17
7.180000E+03	3.013852E-15	5.051632E-17
7.190000E+03	3.015614E-15	5.032259E-17
7.200000E+03	3.018591E-15	5.005804E-17
7.210000E+03	3.022349E-15	4.985118E-17
7.220000E+03	3.026487E-15	4.980697E-17
7.230000E+03	3.030829E-15	4.999592E-17
7.240000E+03	3.035426E-15	5.042884E-17
7.250000E+03	3.040471E-15	5.103195E-17
7.260000E+03	3.046359E-15	5.169304E-17
7.270000E+03	3.053286E-15	5.230732E-17
7.280000E+03	3.061261E-15	5.280011E-17
7.290000E+03	3.070096E-15	5.314753E-17
7.300000E+03	3.079444E-15	5.336093E-17
7.310000E+03	3.088537E-15	5.344873E-17
7.320000E+03	3.096730E-15	5.343144E-17
7.330000E+03	3.103303E-15	5.332870E-17
7.340000E+03	3.107788E-15	5.314373E-17
7.350000E+03	3.109798E-15	5.288557E-17
7.360000E+03	3.109365E-15	5.258190E-17
7.370000E+03	3.106557E-15	5.225811E-17
7.380000E+03	3.101756E-15	5.196114E-17
7.390000E+03	3.095274E-15	5.173701E-17
7.400000E+03	3.087639E-15	5.159632E-17
7.410000E+03	3.079266E-15	5.152592E-17
7.420000E+03	3.070383E-15	5.148610E-17
7.430000E+03	3.061230E-15	5.139531E-17
7.440000E+03	3.051760E-15	5.116691E-17
7.450000E+03	3.041936E-15	5.075223E-17
7.460000E+03	3.031805E-15	5.014970E-17
7.470000E+03	3.021272E-15	4.941571E-17
7.480000E+03	3.010411E-15	4.864686E-17
7.490000E+03	2.999221E-15	4.794241E-17
7.500000E+03	2.987788E-15	4.742338E-17
7.510000E+03	2.975855E-15	4.719525E-17
7.520000E+03	2.963062E-15	4.729908E-17
7.530000E+03	2.948951E-15	4.775048E-17
7.540000E+03	2.933086E-15	4.855290E-17
7.550000E+03	2.915528E-15	4.966633E-17
7.560000E+03	2.896558E-15	5.101119E-17
7.570000E+03	2.876679E-15	5.245986E-17
7.580000E+03	2.856698E-15	5.382251E-17
7.590000E+03	2.837447E-15	5.490131E-17
7.600000E+03	2.819853E-15	5.556053E-17
7.610000E+03	2.804550E-15	5.574666E-17
7.620000E+03	2.791979E-15	5.549747E-17
7.630000E+03	2.782320E-15	5.492840E-17
7.640000E+03	2.775354E-15	5.420132E-17
7.650000E+03	2.770717E-15	5.349412E-17
7.660000E+03	2.767898E-15	5.294760E-17
7.670000E+03	2.766384E-15	5.262407E-17
7.680000E+03	2.765729E-15	5.250841E-17
7.690000E+03	2.765825E-15	5.252331E-17
7.700000E+03	2.766720E-15	5.254528E-17
7.710000E+03	2.768582E-15	5.246156E-17
7.720000E+03	2.771677E-15	5.221388E-17
7.730000E+03	2.776268E-15	5.181130E-17
7.740000E+03	2.782420E-15	5.133556E-17
7.750000E+03	2.789904E-15	5.089669E-17
7.760000E+03	2.798131E-15	5.057156E-17
