#wls	flux	fluxerr
1.600000E+03	4.897494E-17	3.541379E-17
1.640000E+03	4.882102E-17	3.464702E-17
1.680000E+03	4.879622E-17	3.398069E-17
1.720000E+03	4.897969E-17	3.346864E-17
1.760000E+03	4.934665E-17	3.309128E-17
1.800000E+03	4.991440E-17	3.285828E-17
1.840000E+03	5.074110E-17	3.280527E-17
1.880000E+03	5.180185E-17	3.291271E-17
1.920000E+03	5.315338E-17	3.321341E-17
1.960000E+03	5.476670E-17	3.368524E-17
2.000000E+03	5.669432E-17	3.435653E-17
2.040000E+03	5.892099E-17	3.521294E-17
2.080000E+03	6.147042E-17	3.626312E-17
2.120000E+03	6.431578E-17	3.748481E-17
2.160000E+03	6.749457E-17	3.889264E-17
2.200000E+03	7.094376E-17	4.044195E-17
2.240000E+03	7.469289E-17	4.214086E-17
2.280000E+03	7.869402E-17	4.395262E-17
2.320000E+03	8.297741E-17	4.588418E-17
2.360000E+03	8.746692E-17	4.788323E-17
2.400000E+03	9.217134E-17	4.994504E-17
2.440000E+03	9.707860E-17	5.205341E-17
2.480000E+03	1.021846E-16	5.419641E-17
2.520000E+03	1.074948E-16	5.636627E-17
2.560000E+03	1.130245E-16	5.855857E-17
2.600000E+03	1.187996E-16	6.077064E-17
2.640000E+03	1.248902E-16	6.301687E-17
2.680000E+03	1.313088E-16	6.527481E-17
2.720000E+03	1.381454E-16	6.755201E-17
2.760000E+03	1.454653E-16	6.983243E-17
2.800000E+03	1.533418E-16	7.209219E-17
2.840000E+03	1.618564E-16	7.429871E-17
2.880000E+03	1.711376E-16	7.642767E-17
2.920000E+03	1.812843E-16	7.842667E-17
2.960000E+03	1.924001E-16	8.023223E-17
3.000000E+03	2.046772E-16	8.180359E-17
3.010000E+03	2.079628E-16	8.215826E-17
3.020000E+03	2.113078E-16	8.248253E-17
3.030000E+03	2.147577E-16	8.279204E-17
3.040000E+03	2.182698E-16	8.306798E-17
3.050000E+03	2.218450E-16	8.330876E-17
3.060000E+03	2.255752E-16	8.354649E-17
3.070000E+03	2.293715E-16	8.374539E-17
3.080000E+03	2.332345E-16	8.390373E-17
3.090000E+03	2.372112E-16	8.403632E-17
3.100000E+03	2.413033E-16	8.414100E-17
3.110000E+03	2.455120E-16	8.421560E-17
3.120000E+03	2.497906E-16	8.424168E-17
3.130000E+03	2.541870E-16	8.423338E-17
3.140000E+03	2.587021E-16	8.418836E-17
3.150000E+03	2.633365E-16	8.410425E-17
3.160000E+03	2.680407E-16	8.396307E-17
3.170000E+03	2.729138E-16	8.379368E-17
3.180000E+03	2.778556E-16	8.356268E-17
3.190000E+03	2.829153E-16	8.328318E-17
3.200000E+03	2.881437E-16	8.296758E-17
3.210000E+03	2.934369E-16	8.258359E-17
3.220000E+03	2.988445E-16	8.214384E-17
3.230000E+03	3.044175E-16	8.166017E-17
3.240000E+03	3.100485E-16	8.110167E-17
3.250000E+03	3.158412E-16	8.049425E-17
3.260000E+03	3.217397E-16	7.982157E-17
3.270000E+03	3.277408E-16	7.908156E-17
3.280000E+03	3.338963E-16	7.828524E-17
3.290000E+03	3.401479E-16	7.741731E-17
3.300000E+03	3.464916E-16	7.647611E-17
3.310000E+03	3.529796E-16	7.547224E-17
3.320000E+03	3.596090E-16	7.440349E-17
3.330000E+03	3.663189E-16	7.325630E-17
3.340000E+03	3.731048E-16	7.202970E-17
3.350000E+03	3.800792E-16	7.074468E-17
3.360000E+03	3.871228E-16	6.937769E-17
3.370000E+03	3.943504E-16	6.794880E-17
3.380000E+03	4.016419E-16	6.643619E-17
3.390000E+03	4.090551E-16	6.484951E-17
3.400000E+03	4.165899E-16	6.318814E-17
3.410000E+03	4.242474E-16	6.145175E-17
3.420000E+03	4.320914E-16	5.964878E-17
3.430000E+03	4.400665E-16	5.777048E-17
3.440000E+03	4.481795E-16	5.581784E-17
3.450000E+03	4.565026E-16	5.379992E-17
3.460000E+03	4.650501E-16	5.171833E-17
3.470000E+03	4.737770E-16	4.956952E-17
3.480000E+03	4.827049E-16	4.735959E-17
3.490000E+03	4.919873E-16	4.510904E-17
3.500000E+03	5.015949E-16	4.282275E-17
3.510000E+03	5.115032E-16	4.051236E-17
3.520000E+03	5.218879E-16	3.821239E-17
3.530000E+03	5.327410E-16	3.595121E-17
3.540000E+03	5.441276E-16	3.377579E-17
3.550000E+03	5.561894E-16	3.175380E-17
3.560000E+03	5.690145E-16	2.996842E-17
3.570000E+03	5.826363E-16	2.852033E-17
3.580000E+03	5.971645E-16	2.752810E-17
3.590000E+03	6.128518E-16	2.711054E-17
3.600000E+03	6.297343E-16	2.733332E-17
3.610000E+03	6.478308E-16	2.816789E-17
3.620000E+03	6.671097E-16	2.951180E-17
3.630000E+03	6.875204E-16	3.123284E-17
3.640000E+03	7.090708E-16	3.320086E-17
3.650000E+03	7.316105E-16	3.529334E-17
3.660000E+03	7.551184E-16	3.741440E-17
3.670000E+03	7.794829E-16	3.948520E-17
3.676497E+03	5.793498E-16	2.002974E-16
3.679365E+03	5.846305E-16	1.933175E-16
3.682233E+03	5.936409E-16	1.903596E-16
3.685101E+03	6.123045E-16	1.893925E-16
3.687968E+03	6.181023E-16	1.936809E-16
3.690836E+03	6.368135E-16	1.937634E-16
3.693704E+03	6.623938E-16	1.823929E-16
3.696572E+03	6.931372E-16	1.776712E-16
3.699440E+03	7.137180E-16	1.835451E-16
3.702308E+03	7.433904E-16	1.780084E-16
3.705175E+03	7.870684E-16	1.761749E-16
3.708043E+03	8.152305E-16	1.774940E-16
3.710911E+03	8.534993E-16	1.808002E-16
3.713779E+03	8.936694E-16	1.732836E-16
3.716647E+03	9.280251E-16	1.669972E-16
3.719515E+03	9.682695E-16	1.710463E-16
3.722383E+03	1.013405E-15	1.583220E-16
3.725250E+03	1.053933E-15	1.677855E-16
3.728118E+03	1.098046E-15	1.629882E-16
3.730986E+03	1.140761E-15	1.520782E-16
3.733854E+03	1.183672E-15	1.598655E-16
3.736722E+03	1.224787E-15	1.498410E-16
3.739590E+03	1.263308E-15	1.543800E-16
3.742457E+03	1.298239E-15	1.546801E-16
3.745325E+03	1.327688E-15	1.538463E-16
3.748193E+03	1.350559E-15	1.697687E-16
3.751061E+03	1.370738E-15	1.666745E-16
3.753929E+03	1.392411E-15	1.802786E-16
3.756797E+03	1.403721E-15	1.740533E-16
3.759664E+03	1.422802E-15	1.757076E-16
3.762532E+03	1.439492E-15	1.787359E-16
3.765400E+03	1.451100E-15	1.948240E-16
3.768268E+03	1.459221E-15	2.031901E-16
3.771136E+03	1.471526E-15	1.956357E-16
3.774004E+03	1.469287E-15	1.901538E-16
3.776872E+03	1.472926E-15	1.873647E-16
3.779740E+03	1.478657E-15	1.766509E-16
3.782607E+03	1.475325E-15	1.685692E-16
3.785475E+03	1.470997E-15	1.688787E-16
3.788343E+03	1.467168E-15	1.537463E-16
3.791211E+03	1.449695E-15	1.504920E-16
3.794079E+03	1.431029E-15	1.505267E-16
3.796947E+03	1.408381E-15	1.448707E-16
3.799814E+03	1.372291E-15	1.475644E-16
3.802682E+03	1.340087E-15	1.460791E-16
3.805550E+03	1.312367E-15	1.535008E-16
3.808418E+03	1.282856E-15	1.611726E-16
3.811286E+03	1.249265E-15	1.697960E-16
3.814154E+03	1.221352E-15	1.523344E-16
3.817021E+03	1.185375E-15	1.375868E-16
3.819889E+03	1.148605E-15	1.501301E-16
3.822757E+03	1.117213E-15	1.595483E-16
3.825625E+03	1.074872E-15	1.545580E-16
3.828493E+03	1.040995E-15	1.519225E-16
3.831361E+03	1.005827E-15	1.520048E-16
3.834229E+03	9.764443E-16	1.469730E-16
3.837096E+03	9.573675E-16	1.564646E-16
3.839964E+03	9.334239E-16	1.605296E-16
3.842832E+03	9.105171E-16	1.612388E-16
3.845700E+03	8.861484E-16	1.617209E-16
3.848568E+03	8.619205E-16	1.623291E-16
3.851436E+03	8.403916E-16	1.598322E-16
3.854303E+03	8.169030E-16	1.512918E-16
3.857171E+03	7.886977E-16	1.262010E-16
3.860039E+03	7.583239E-16	1.008995E-16
3.862907E+03	7.352873E-16	1.001340E-16
3.865775E+03	7.058221E-16	1.108993E-16
3.868643E+03	6.783689E-16	1.029405E-16
3.871511E+03	6.555350E-16	1.123032E-16
3.874378E+03	6.435308E-16	1.148205E-16
3.877246E+03	6.307012E-16	1.187200E-16
3.880114E+03	6.189074E-16	1.171757E-16
3.882982E+03	6.131752E-16	1.171382E-16
3.885850E+03	6.188385E-16	1.135737E-16
3.888718E+03	6.187398E-16	1.079955E-16
3.891586E+03	6.366840E-16	1.068600E-16
3.894453E+03	6.665798E-16	1.082194E-16
3.897321E+03	6.980177E-16	1.104000E-16
3.900189E+03	7.325698E-16	1.068601E-16
3.903057E+03	7.808243E-16	1.264131E-16
3.905925E+03	8.327600E-16	1.405214E-16
3.908793E+03	8.789432E-16	1.511350E-16
3.911660E+03	9.409477E-16	1.668034E-16
3.914528E+03	1.002941E-15	1.607417E-16
3.917396E+03	1.071094E-15	1.599684E-16
3.920264E+03	1.143325E-15	1.430180E-16
3.923132E+03	1.219039E-15	1.363041E-16
3.926000E+03	1.298035E-15	1.328993E-16
3.928867E+03	1.371857E-15	1.550930E-16
3.931735E+03	1.450454E-15	1.717346E-16
3.934603E+03	1.519399E-15	1.813187E-16
3.937471E+03	1.590335E-15	1.878505E-16
3.940339E+03	1.661369E-15	1.983845E-16
3.943207E+03	1.728922E-15	2.082643E-16
3.946075E+03	1.805927E-15	2.170110E-16
3.948942E+03	1.879052E-15	2.169164E-16
3.951810E+03	1.943521E-15	2.094183E-16
3.954678E+03	2.008885E-15	2.020381E-16
3.957546E+03	2.068679E-15	1.970698E-16
3.960414E+03	2.117430E-15	1.746836E-16
3.963282E+03	2.173046E-15	1.776428E-16
3.966149E+03	2.221102E-15	1.810422E-16
3.969017E+03	2.262194E-15	1.927413E-16
3.971885E+03	2.298910E-15	1.905694E-16
3.974753E+03	2.341497E-15	1.971003E-16
3.977621E+03	2.383190E-15	1.954945E-16
3.980489E+03	2.418418E-15	1.904215E-16
3.983357E+03	2.452850E-15	1.869180E-16
3.986224E+03	2.480220E-15	1.876440E-16
3.989092E+03	2.504806E-15	1.786508E-16
3.991960E+03	2.515761E-15	1.714483E-16
3.994828E+03	2.526420E-15	1.563010E-16
3.997696E+03	2.516285E-15	1.523525E-16
4.000564E+03	2.505952E-15	1.420484E-16
4.003432E+03	2.491341E-15	1.312916E-16
4.006299E+03	2.474145E-15	1.252008E-16
4.009167E+03	2.456651E-15	1.359537E-16
4.012035E+03	2.439358E-15	1.343093E-16
4.014903E+03	2.410722E-15	1.369909E-16
4.017771E+03	2.387162E-15	1.262911E-16
4.020639E+03	2.365195E-15	1.278535E-16
4.023506E+03	2.346613E-15	1.239683E-16
4.026374E+03	2.332011E-15	1.214286E-16
4.029242E+03	2.322088E-15	1.276934E-16
4.032110E+03	2.318734E-15	1.306619E-16
4.034978E+03	2.321850E-15	1.239755E-16
4.037846E+03	2.334421E-15	1.409925E-16
4.040713E+03	2.344307E-15	1.383581E-16
4.043581E+03	2.365141E-15	1.530585E-16
4.046449E+03	2.388366E-15	1.776047E-16
4.049317E+03	2.417068E-15	2.081945E-16
4.052185E+03	2.442586E-15	2.042959E-16
4.055053E+03	2.471492E-15	2.044721E-16
4.057921E+03	2.496219E-15	1.924211E-16
4.060789E+03	2.525329E-15	2.009847E-16
4.063656E+03	2.552152E-15	2.134705E-16
4.066524E+03	2.575793E-15	2.470054E-16
4.069392E+03	2.594260E-15	2.672564E-16
4.072260E+03	2.603374E-15	3.045324E-16
4.075128E+03	2.607612E-15	3.092990E-16
4.077995E+03	2.609663E-15	3.130512E-16
4.080863E+03	2.597978E-15	3.200621E-16
4.083731E+03	2.596548E-15	3.223122E-16
4.086599E+03	2.583273E-15	3.175609E-16
4.089467E+03	2.568605E-15	3.138856E-16
4.092335E+03	2.553142E-15	3.037636E-16
4.095203E+03	2.543455E-15	2.777017E-16
4.098070E+03	2.525007E-15	2.366587E-16
4.100938E+03	2.510443E-15	2.323946E-16
4.103806E+03	2.495083E-15	2.316351E-16
4.106674E+03	2.475941E-15	2.507153E-16
4.109542E+03	2.456699E-15	2.719210E-16
4.112410E+03	2.443035E-15	2.873593E-16
4.115278E+03	2.422998E-15	2.851648E-16
4.118145E+03	2.406845E-15	2.905809E-16
4.121013E+03	2.381432E-15	2.558598E-16
4.123881E+03	2.361496E-15	2.502954E-16
4.126749E+03	2.340763E-15	2.355627E-16
4.129617E+03	2.313358E-15	2.102571E-16
4.132485E+03	2.286650E-15	1.950053E-16
4.135352E+03	2.251177E-15	1.596133E-16
4.138220E+03	2.220782E-15	1.648571E-16
4.141088E+03	2.180626E-15	1.946648E-16
4.143956E+03	2.140667E-15	2.333754E-16
4.146824E+03	2.105488E-15	2.738719E-16
4.149692E+03	2.065924E-15	2.978019E-16
4.152560E+03	2.028252E-15	3.045856E-16
4.155427E+03	1.997353E-15	3.146416E-16
4.158295E+03	1.957884E-15	3.070748E-16
4.161163E+03	1.926085E-15	2.956159E-16
4.164031E+03	1.901858E-15	2.822731E-16
4.166899E+03	1.872947E-15	2.603881E-16
4.169767E+03	1.851010E-15	2.607034E-16
4.172635E+03	1.831962E-15	2.517144E-16
4.175502E+03	1.822581E-15	2.573990E-16
4.178370E+03	1.814696E-15	2.564343E-16
4.181238E+03	1.807808E-15	2.690297E-16
4.184106E+03	1.800921E-15	2.768837E-16
4.186974E+03	1.790944E-15	2.799266E-16
4.189842E+03	1.776582E-15	2.757357E-16
4.192709E+03	1.758830E-15	2.597490E-16
4.195577E+03	1.737090E-15	2.318976E-16
4.198445E+03	1.707173E-15	2.052848E-16
4.201313E+03	1.685231E-15	1.951051E-16
4.204181E+03	1.657704E-15	1.678057E-16
4.207049E+03	1.627683E-15	1.720300E-16
4.209917E+03	1.599654E-15	1.657587E-16
4.212784E+03	1.562149E-15	1.723182E-16
4.215652E+03	1.528929E-15	1.837310E-16
4.218520E+03	1.498100E-15	1.784153E-16
4.221388E+03	1.459190E-15	1.765636E-16
4.224256E+03	1.427658E-15	1.626822E-16
4.227124E+03	1.391933E-15	1.510108E-16
4.229991E+03	1.356404E-15	1.388071E-16
4.232859E+03	1.325062E-15	1.262816E-16
4.235727E+03	1.292321E-15	1.246329E-16
4.238595E+03	1.261073E-15	1.229867E-16
4.241463E+03	1.234313E-15	1.190490E-16
4.244331E+03	1.215035E-15	1.193048E-16
4.247199E+03	1.195756E-15	1.115195E-16
4.250066E+03	1.179269E-15	1.204178E-16
4.252934E+03	1.169969E-15	1.166847E-16
4.255802E+03	1.168654E-15	1.043990E-16
4.258670E+03	1.169436E-15	9.540079E-17
4.261538E+03	1.179605E-15	9.013012E-17
4.264406E+03	1.189276E-15	6.925978E-17
4.267273E+03	1.201247E-15	6.060833E-17
4.270141E+03	1.210425E-15	6.334254E-17
4.273009E+03	1.220504E-15	6.482529E-17
4.275877E+03	1.229187E-15	6.599850E-17
4.278745E+03	1.241968E-15	6.527565E-17
4.281613E+03	1.249657E-15	6.793072E-17
4.284480E+03	1.258348E-15	6.525235E-17
4.287348E+03	1.267441E-15	6.855873E-17
4.290216E+03	1.276637E-15	6.584256E-17
4.293084E+03	1.285935E-15	7.659945E-17
4.295952E+03	1.302331E-15	8.330911E-17
4.298820E+03	1.309937E-15	7.894123E-17
4.301688E+03	1.324241E-15	1.000087E-16
4.304556E+03	1.338050E-15	1.031475E-16
4.307423E+03	1.356460E-15	1.134870E-16
4.310291E+03	1.374176E-15	1.197793E-16
4.313159E+03	1.393895E-15	1.207641E-16
4.316027E+03	1.410519E-15	1.195863E-16
4.318895E+03	1.428948E-15	1.199647E-16
4.321762E+03	1.444581E-15	1.132992E-16
4.324630E+03	1.468221E-15	1.079675E-16
4.327498E+03	1.484764E-15	1.196960E-16
4.330366E+03	1.498910E-15	1.250461E-16
4.333234E+03	1.510159E-15	1.424777E-16
4.336102E+03	1.521512E-15	1.523069E-16
4.338970E+03	1.529666E-15	1.571274E-16
4.341837E+03	1.537223E-15	1.605315E-16
4.344705E+03	1.541680E-15	1.607305E-16
4.347573E+03	1.547541E-15	1.628372E-16
4.350441E+03	1.555407E-15	1.471856E-16
4.353309E+03	1.562976E-15	1.432243E-16
4.356177E+03	1.572250E-15	1.295249E-16
4.359044E+03	1.576821E-15	1.165541E-16
4.361912E+03	1.585701E-15	1.079108E-16
4.364780E+03	1.596188E-15	1.256456E-16
4.367648E+03	1.600066E-15	1.265792E-16
4.370516E+03	1.607855E-15	1.248583E-16
4.373384E+03	1.615947E-15	1.377262E-16
4.376252E+03	1.627149E-15	1.342652E-16
4.379119E+03	1.638355E-15	1.299010E-16
4.381987E+03	1.649666E-15	1.175964E-16
4.384855E+03	1.662485E-15	1.099612E-16
4.387723E+03	1.676712E-15	1.041550E-16
4.390591E+03	1.688136E-15	9.669729E-17
4.393459E+03	1.696858E-15	9.314972E-17
4.396327E+03	1.705182E-15	8.777725E-17
4.399194E+03	1.719929E-15	9.669214E-17
4.402062E+03	1.735886E-15	9.535364E-17
4.404930E+03	1.750744E-15	9.872013E-17
4.407798E+03	1.768016E-15	9.744679E-17
4.410666E+03	1.786399E-15	9.759308E-17
4.413534E+03	1.800371E-15	8.380691E-17
4.416401E+03	1.815052E-15	8.045608E-17
4.419269E+03	1.823314E-15	8.549295E-17
4.422137E+03	1.830074E-15	7.027914E-17
4.425005E+03	1.835934E-15	7.038893E-17
4.427873E+03	1.837580E-15	7.762353E-17
4.430741E+03	1.836617E-15	7.939723E-17
4.433609E+03	1.828825E-15	8.416911E-17
4.436476E+03	1.816813E-15	8.321295E-17
4.439344E+03	1.802489E-15	8.334030E-17
4.442212E+03	1.788364E-15	8.897136E-17
4.445080E+03	1.766599E-15	8.977873E-17
4.447948E+03	1.739704E-15	8.013552E-17
4.450816E+03	1.713708E-15	7.978838E-17
4.453684E+03	1.689114E-15	7.515871E-17
4.456551E+03	1.663710E-15	7.976944E-17
4.459419E+03	1.641419E-15	7.917686E-17
4.462287E+03	1.623248E-15	8.122329E-17
4.465155E+03	1.602357E-15	8.143249E-17
4.468023E+03	1.584279E-15	7.816539E-17
4.470891E+03	1.563380E-15	8.292090E-17
4.473758E+03	1.544691E-15	8.591003E-17
4.476626E+03	1.522878E-15	8.170170E-17
4.479494E+03	1.505892E-15	7.916667E-17
4.482362E+03	1.489105E-15	7.357413E-17
4.485230E+03	1.471306E-15	7.280161E-17
4.488098E+03	1.459145E-15	7.340194E-17
4.490966E+03	1.443355E-15	6.430842E-17
4.493833E+03	1.437941E-15	6.412041E-17
4.496701E+03	1.447541E-15	6.958545E-17
4.499569E+03	1.454526E-15	7.695471E-17
4.502437E+03	1.483390E-15	9.336666E-17
4.505305E+03	1.523255E-15	9.249108E-17
4.508173E+03	1.573320E-15	9.758514E-17
4.511040E+03	1.631975E-15	9.778319E-17
4.513908E+03	1.703766E-15	9.405922E-17
4.516776E+03	1.782644E-15	9.236552E-17
4.519644E+03	1.870835E-15	9.301317E-17
4.522512E+03	1.969149E-15	9.602383E-17
4.525380E+03	2.075272E-15	9.860015E-17
4.528248E+03	2.186077E-15	9.521398E-17
4.531115E+03	2.301568E-15	9.116323E-17
4.533983E+03	2.418817E-15	8.901851E-17
4.536851E+03	2.541463E-15	8.085059E-17
4.539719E+03	2.664458E-15	1.152669E-16
4.542587E+03	2.794067E-15	1.438843E-16
4.545455E+03	2.915841E-15	1.917298E-16
4.548322E+03	3.038065E-15	2.221361E-16
4.551190E+03	3.164077E-15	2.475034E-16
4.554058E+03	3.279924E-15	2.677416E-16
4.556926E+03	3.389950E-15	2.855451E-16
4.559794E+03	3.491420E-15	2.875978E-16
4.562662E+03	3.593133E-15	2.809372E-16
4.565529E+03	3.687296E-15	2.703594E-16
4.568397E+03	3.768239E-15	2.703280E-16
4.571265E+03	3.851745E-15	2.717750E-16
4.574133E+03	3.926173E-15	2.607631E-16
4.577001E+03	3.994050E-15	2.899827E-16
4.579869E+03	4.057803E-15	2.970157E-16
4.582737E+03	4.119354E-15	3.023610E-16
4.585605E+03	4.173939E-15	3.178091E-16
4.588472E+03	4.213246E-15	3.307081E-16
4.591340E+03	4.249023E-15	3.374612E-16
4.594208E+03	4.276098E-15	3.297210E-16
4.597076E+03	4.300955E-15	3.189565E-16
4.599944E+03	4.318219E-15	2.942543E-16
4.602811E+03	4.325651E-15	2.683932E-16
4.605679E+03	4.330351E-15	2.241900E-16
4.608547E+03	4.333532E-15	1.819838E-16
4.611415E+03	4.333470E-15	1.475379E-16
4.614283E+03	4.326609E-15	1.288124E-16
4.617151E+03	4.317919E-15	1.332513E-16
4.620019E+03	4.306385E-15	1.550581E-16
4.622886E+03	4.298608E-15	1.636278E-16
4.625754E+03	4.287579E-15	1.525948E-16
4.628622E+03	4.278885E-15	1.800648E-16
4.631490E+03	4.267345E-15	1.925077E-16
4.634358E+03	4.256615E-15	1.899666E-16
4.637226E+03	4.246188E-15	1.794137E-16
4.640093E+03	4.241150E-15	1.710467E-16
4.642961E+03	4.237129E-15	1.617660E-16
4.645829E+03	4.234126E-15	1.560836E-16
4.648697E+03	4.232346E-15	1.542858E-16
4.651565E+03	4.233314E-15	1.542926E-16
4.654433E+03	4.232555E-15	1.594645E-16
4.657301E+03	4.234343E-15	1.600256E-16
4.660168E+03	4.240513E-15	1.558648E-16
4.663036E+03	4.247401E-15	1.559211E-16
4.665904E+03	4.252153E-15	1.572895E-16
4.668772E+03	4.253546E-15	1.558396E-16
4.671640E+03	4.250864E-15	1.554336E-16
4.674508E+03	4.242473E-15	1.557056E-16
4.677376E+03	4.230613E-15	1.387680E-16
4.680243E+03	4.211813E-15	1.323626E-16
4.683111E+03	4.184029E-15	1.246916E-16
4.685979E+03	4.149499E-15	1.215842E-16
4.688847E+03	4.112099E-15	1.158603E-16
4.691715E+03	4.071825E-15	1.151680E-16
4.694583E+03	4.031945E-15	1.121170E-16
4.697450E+03	3.989802E-15	1.139434E-16
4.700318E+03	3.943453E-15	1.106219E-16
4.703186E+03	3.901991E-15	1.070157E-16
4.706054E+03	3.858366E-15	1.046878E-16
4.708922E+03	3.810736E-15	1.041844E-16
4.711790E+03	3.766973E-15	9.941617E-17
4.714658E+03	3.727998E-15	1.065195E-16
4.717525E+03	3.680722E-15	9.741717E-17
4.720393E+03	3.638030E-15	9.379231E-17
4.723261E+03	3.595628E-15	9.312810E-17
4.726129E+03	3.551980E-15	9.388772E-17
4.728997E+03	3.513637E-15	9.192759E-17
4.731865E+03	3.470158E-15	9.002072E-17
4.734733E+03	3.424818E-15	8.918251E-17
4.737600E+03	3.381917E-15	9.041999E-17
4.740468E+03	3.328957E-15	9.174921E-17
4.743336E+03	3.268802E-15	1.114832E-16
4.746204E+03	3.198882E-15	1.163460E-16
4.749072E+03	3.124832E-15	1.387243E-16
4.751940E+03	3.040804E-15	1.465279E-16
4.754807E+03	2.948123E-15	1.632861E-16
4.757675E+03	2.846272E-15	1.714188E-16
4.760543E+03	2.746019E-15	1.698725E-16
4.763411E+03	2.646338E-15	1.503280E-16
4.766279E+03	2.544048E-15	1.434329E-16
4.769147E+03	2.447977E-15	1.369789E-16
4.772015E+03	2.363367E-15	1.425455E-16
4.774882E+03	2.282419E-15	1.646658E-16
4.777750E+03	2.216231E-15	1.840818E-16
4.780618E+03	2.157619E-15	2.314126E-16
4.783486E+03	2.117483E-15	2.678238E-16
4.786354E+03	2.087714E-15	3.207556E-16
4.789222E+03	2.069759E-15	3.661253E-16
4.792089E+03	2.072058E-15	3.815687E-16
4.794957E+03	2.086600E-15	4.230175E-16
4.797825E+03	2.117407E-15	4.287691E-16
4.800693E+03	2.162431E-15	4.288195E-16
4.803561E+03	2.218592E-15	4.012117E-16
4.806429E+03	2.283838E-15	3.698679E-16
4.809297E+03	2.357145E-15	3.454005E-16
4.812164E+03	2.436974E-15	3.407044E-16
4.815032E+03	2.522194E-15	3.868487E-16
4.817900E+03	2.611882E-15	4.390330E-16
4.820768E+03	2.700783E-15	4.990616E-16
4.823636E+03	2.794465E-15	5.681552E-16
4.826504E+03	2.885403E-15	6.344259E-16
4.829371E+03	2.981021E-15	6.650211E-16
4.832239E+03	3.073378E-15	6.944428E-16
4.835107E+03	3.162781E-15	6.844717E-16
4.837975E+03	3.254081E-15	6.626439E-16
4.840843E+03	3.350477E-15	6.374874E-16
4.843711E+03	3.443920E-15	5.668701E-16
4.846578E+03	3.535234E-15	5.059018E-16
