#wls	flux	fluxerr
1.600000E+03	1.496534E-17	1.270902E-17
1.640000E+03	1.516530E-17	1.277965E-17
1.680000E+03	1.539301E-17	1.287144E-17
1.720000E+03	1.565973E-17	1.299356E-17
1.760000E+03	1.595881E-17	1.314011E-17
1.800000E+03	1.629692E-17	1.331622E-17
1.840000E+03	1.668066E-17	1.352678E-17
1.880000E+03	1.710300E-17	1.376548E-17
1.920000E+03	1.757471E-17	1.404036E-17
1.960000E+03	1.809280E-17	1.434820E-17
2.000000E+03	1.865379E-17	1.468537E-17
2.040000E+03	1.926782E-17	1.505883E-17
2.080000E+03	1.993556E-17	1.546783E-17
2.120000E+03	2.064759E-17	1.590363E-17
2.160000E+03	2.141336E-17	1.637195E-17
2.200000E+03	2.222241E-17	1.686295E-17
2.240000E+03	2.308901E-17	1.738538E-17
2.280000E+03	2.399688E-17	1.792459E-17
2.320000E+03	2.495514E-17	1.848477E-17
2.360000E+03	2.595735E-17	1.905812E-17
2.400000E+03	2.700227E-17	1.964040E-17
2.440000E+03	2.809446E-17	2.023117E-17
2.480000E+03	2.922766E-17	2.082166E-17
2.520000E+03	3.040727E-17	2.141097E-17
2.560000E+03	3.162758E-17	2.198976E-17
2.600000E+03	3.288895E-17	2.255242E-17
2.640000E+03	3.420465E-17	2.310139E-17
2.680000E+03	3.556402E-17	2.362195E-17
2.720000E+03	3.698168E-17	2.411561E-17
2.760000E+03	3.845394E-17	2.457066E-17
2.800000E+03	3.999038E-17	2.498311E-17
2.840000E+03	4.159468E-17	2.534396E-17
2.880000E+03	4.327094E-17	2.564347E-17
2.920000E+03	4.503788E-17	2.587922E-17
2.960000E+03	4.690167E-17	2.603963E-17
3.000000E+03	4.887690E-17	2.611638E-17
3.010000E+03	4.938482E-17	2.611868E-17
3.020000E+03	4.991191E-17	2.612077E-17
3.030000E+03	5.043633E-17	2.611086E-17
3.040000E+03	5.098039E-17	2.610026E-17
3.050000E+03	5.152955E-17	2.608107E-17
3.060000E+03	5.208397E-17	2.605312E-17
3.070000E+03	5.265138E-17	2.601996E-17
3.080000E+03	5.323207E-17	2.598133E-17
3.090000E+03	5.382639E-17	2.593697E-17
3.100000E+03	5.442704E-17	2.588299E-17
3.110000E+03	5.504196E-17	2.582282E-17
3.120000E+03	5.566385E-17	2.575264E-17
3.130000E+03	5.630850E-17	2.567933E-17
3.140000E+03	5.696092E-17	2.559556E-17
3.150000E+03	5.762930E-17	2.550461E-17
3.160000E+03	5.831415E-17	2.540624E-17
3.170000E+03	5.900814E-17	2.529678E-17
3.180000E+03	5.972762E-17	2.518281E-17
3.190000E+03	6.046537E-17	2.506063E-17
3.200000E+03	6.121403E-17	2.492671E-17
3.210000E+03	6.199036E-17	2.478739E-17
3.220000E+03	6.277903E-17	2.463591E-17
3.230000E+03	6.359705E-17	2.447844E-17
3.240000E+03	6.443725E-17	2.431151E-17
3.250000E+03	6.530057E-17	2.413488E-17
3.260000E+03	6.618802E-17	2.394831E-17
3.270000E+03	6.710067E-17	2.375157E-17
3.280000E+03	6.804806E-17	2.354735E-17
3.290000E+03	6.902309E-17	2.333243E-17
3.300000E+03	7.002705E-17	2.310662E-17
3.310000E+03	7.106985E-17	2.287249E-17
3.320000E+03	7.214444E-17	2.262702E-17
3.330000E+03	7.325233E-17	2.237006E-17
3.340000E+03	7.440383E-17	2.210410E-17
3.350000E+03	7.560075E-17	2.182891E-17
3.360000E+03	7.683611E-17	2.154182E-17
3.370000E+03	7.812062E-17	2.124528E-17
3.380000E+03	7.944728E-17	2.093687E-17
3.390000E+03	8.082707E-17	2.061910E-17
3.400000E+03	8.226211E-17	2.029214E-17
3.410000E+03	8.375458E-17	1.995627E-17
3.420000E+03	8.530668E-17	1.961198E-17
3.430000E+03	8.691120E-17	1.925786E-17
3.440000E+03	8.858913E-17	1.889914E-17
3.450000E+03	9.032370E-17	1.853299E-17
3.460000E+03	9.213622E-17	1.816515E-17
3.470000E+03	9.400944E-17	1.779394E-17
3.480000E+03	9.596494E-17	1.742594E-17
3.490000E+03	9.799493E-17	1.706273E-17
3.500000E+03	1.001114E-16	1.671033E-17
3.510000E+03	1.022959E-16	1.637053E-17
3.520000E+03	1.045809E-16	1.605453E-17
3.530000E+03	1.069371E-16	1.576474E-17
3.540000E+03	1.093869E-16	1.551273E-17
3.550000E+03	1.119322E-16	1.530780E-17
3.560000E+03	1.145638E-16	1.515857E-17
3.570000E+03	1.172942E-16	1.507690E-17
3.580000E+03	1.201251E-16	1.507273E-17
3.590000E+03	1.230581E-16	1.515461E-17
3.600000E+03	1.260824E-16	1.532709E-17
3.610000E+03	1.292086E-16	1.559395E-17
3.620000E+03	1.324468E-16	1.595533E-17
3.630000E+03	1.357715E-16	1.640402E-17
3.640000E+03	1.392033E-16	1.693608E-17
3.650000E+03	1.427273E-16	1.754168E-17
3.660000E+03	1.463401E-16	1.821135E-17
3.670000E+03	1.500376E-16	1.893512E-17
3.680000E+03	1.538283E-16	1.970448E-17
3.690000E+03	1.576949E-16	2.050788E-17
3.700000E+03	1.616450E-16	2.133729E-17
3.710000E+03	1.656602E-16	2.218171E-17
3.720000E+03	1.697470E-16	2.303399E-17
3.730000E+03	1.738989E-16	2.388574E-17
3.740000E+03	1.781083E-16	2.472902E-17
3.750000E+03	1.823535E-16	2.555438E-17
3.760000E+03	1.866529E-16	2.635853E-17
3.770000E+03	1.909694E-16	2.713096E-17
3.780000E+03	1.953204E-16	2.786939E-17
3.790000E+03	1.996812E-16	2.856612E-17
3.800000E+03	2.040399E-16	2.921590E-17
3.810000E+03	2.083839E-16	2.981397E-17
3.820000E+03	2.127145E-16	3.035822E-17
3.830000E+03	2.170032E-16	3.084300E-17
3.840000E+03	2.212501E-16	3.126739E-17
3.850000E+03	2.254398E-16	3.162906E-17
3.860000E+03	2.295417E-16	3.192431E-17
3.870000E+03	2.335389E-16	3.215223E-17
3.880000E+03	2.374439E-16	3.231665E-17
3.890000E+03	2.412243E-16	3.241602E-17
3.900000E+03	2.448471E-16	3.244956E-17
3.910000E+03	2.483239E-16	3.242311E-17
3.920000E+03	2.516066E-16	3.233530E-17
3.930000E+03	2.547070E-16	3.219310E-17
3.940000E+03	2.575927E-16	3.199826E-17
3.950000E+03	2.602617E-16	3.175673E-17
3.960000E+03	2.626695E-16	3.146947E-17
3.970000E+03	2.648313E-16	3.114492E-17
3.980000E+03	2.667356E-16	3.078810E-17
3.990000E+03	2.683587E-16	3.040264E-17
4.000000E+03	2.697088E-16	2.999554E-17
4.010000E+03	2.707691E-16	2.957059E-17
4.020000E+03	2.715545E-16	2.913464E-17
4.030000E+03	2.720697E-16	2.869272E-17
4.040000E+03	2.723237E-16	2.824962E-17
4.050000E+03	2.723299E-16	2.780973E-17
4.060000E+03	2.720929E-16	2.737569E-17
4.070000E+03	2.716608E-16	2.695354E-17
4.080000E+03	2.710342E-16	2.654346E-17
4.090000E+03	2.702566E-16	2.614878E-17
4.100000E+03	2.693738E-16	2.577186E-17
4.110000E+03	2.683994E-16	2.541082E-17
4.120000E+03	2.673974E-16	2.506748E-17
4.130000E+03	2.663987E-16	2.473953E-17
4.140000E+03	2.654474E-16	2.442513E-17
4.150000E+03	2.645887E-16	2.412190E-17
4.160000E+03	2.638676E-16	2.382707E-17
4.170000E+03	2.633284E-16	2.353760E-17
4.180000E+03	2.630242E-16	2.325121E-17
4.190000E+03	2.629752E-16	2.296276E-17
4.200000E+03	2.632401E-16	2.267065E-17
4.210000E+03	2.638439E-16	2.237052E-17
4.220000E+03	2.648184E-16	2.205878E-17
4.230000E+03	2.661914E-16	2.173171E-17
4.240000E+03	2.679956E-16	2.138618E-17
4.250000E+03	2.702302E-16	2.101665E-17
4.260000E+03	2.729172E-16	2.061988E-17
4.270000E+03	2.760625E-16	2.019203E-17
4.280000E+03	2.796648E-16	1.972986E-17
4.290000E+03	2.837056E-16	1.923062E-17
4.300000E+03	2.881854E-16	1.869548E-17
4.310000E+03	2.930576E-16	1.812624E-17
4.320000E+03	2.982845E-16	1.753078E-17
4.330000E+03	3.038268E-16	1.692424E-17
4.340000E+03	3.096161E-16	1.632974E-17
4.350000E+03	3.155932E-16	1.578261E-17
4.360000E+03	3.216728E-16	1.532936E-17
4.370000E+03	3.277766E-16	1.502682E-17
4.380000E+03	3.338243E-16	1.493285E-17
4.390000E+03	3.397887E-16	1.509171E-17
4.400000E+03	3.456484E-16	1.551309E-17
4.410000E+03	3.514477E-16	1.617204E-17
4.420000E+03	3.572724E-16	1.702303E-17
4.430000E+03	3.632057E-16	1.801433E-17
4.440000E+03	3.693460E-16	1.909894E-17
4.450000E+03	3.757900E-16	2.023815E-17
4.460000E+03	3.826279E-16	2.140192E-17
4.470000E+03	3.899283E-16	2.256691E-17
4.480000E+03	3.977547E-16	2.371564E-17
4.490000E+03	4.061616E-16	2.483460E-17
4.500000E+03	4.151524E-16	2.591018E-17
4.510000E+03	4.247461E-16	2.693156E-17
4.520000E+03	4.348852E-16	2.788412E-17
4.530000E+03	4.455355E-16	2.875510E-17
4.540000E+03	4.566050E-16	2.952814E-17
4.550000E+03	4.679856E-16	3.018584E-17
4.560000E+03	4.795347E-16	3.070868E-17
4.570000E+03	4.911110E-16	3.107760E-17
4.580000E+03	5.025380E-16	3.127207E-17
4.590000E+03	5.136421E-16	3.127322E-17
4.600000E+03	5.242500E-16	3.106440E-17
4.610000E+03	5.341860E-16	3.063195E-17
4.620000E+03	5.433017E-16	2.996828E-17
4.630000E+03	5.514725E-16	2.907299E-17
4.640000E+03	5.586037E-16	2.795531E-17
4.650000E+03	5.646233E-16	2.663644E-17
4.660000E+03	5.695180E-16	2.515529E-17
4.670000E+03	5.732891E-16	2.357179E-17
4.680000E+03	5.759734E-16	2.197516E-17
4.690000E+03	5.776621E-16	2.049195E-17
4.700000E+03	5.784624E-16	1.928618E-17
4.710000E+03	5.784823E-16	1.854135E-17
4.720000E+03	5.778957E-16	1.840840E-17
4.730000E+03	5.768544E-16	1.892528E-17
4.740000E+03	5.756044E-16	1.999858E-17
4.750000E+03	5.743354E-16	2.146403E-17
4.760000E+03	5.732768E-16	2.316207E-17
4.770000E+03	5.725950E-16	2.496695E-17
4.780000E+03	5.724606E-16	2.679282E-17
4.790000E+03	5.730040E-16	2.858451E-17
4.800000E+03	5.743036E-16	3.030770E-17
4.810000E+03	5.764434E-16	3.194441E-17
4.820000E+03	5.794340E-16	3.348355E-17
4.830000E+03	5.832909E-16	3.492145E-17
4.840000E+03	5.879482E-16	3.625453E-17
4.850000E+03	5.933572E-16	3.748350E-17
4.860000E+03	5.994216E-16	3.860857E-17
4.870000E+03	6.060094E-16	3.962963E-17
4.880000E+03	6.129674E-16	4.054675E-17
4.890000E+03	6.201538E-16	4.136219E-17
4.900000E+03	6.273758E-16	4.207607E-17
4.910000E+03	6.344624E-16	4.269086E-17
4.920000E+03	6.412314E-16	4.320869E-17
4.930000E+03	6.475045E-16	4.363178E-17
4.940000E+03	6.530935E-16	4.396069E-17
4.950000E+03	6.578743E-16	4.419875E-17
4.960000E+03	6.616930E-16	4.434513E-17
4.970000E+03	6.644399E-16	4.439970E-17
4.980000E+03	6.660431E-16	4.436272E-17
4.990000E+03	6.664419E-16	4.423367E-17
5.000000E+03	6.656200E-16	4.401410E-17
5.010000E+03	6.636070E-16	4.370845E-17
5.020000E+03	6.604519E-16	4.332281E-17
5.030000E+03	6.562619E-16	4.286767E-17
5.040000E+03	6.511643E-16	4.235526E-17
5.050000E+03	6.453323E-16	4.180080E-17
5.060000E+03	6.389890E-16	4.122212E-17
5.070000E+03	6.323459E-16	4.063509E-17
5.080000E+03	6.256481E-16	4.005616E-17
5.090000E+03	6.191622E-16	3.950138E-17
5.100000E+03	6.131124E-16	3.898258E-17
5.110000E+03	6.077297E-16	3.851091E-17
5.120000E+03	6.032154E-16	3.809519E-17
5.130000E+03	5.997092E-16	3.774045E-17
5.140000E+03	5.973407E-16	3.745184E-17
5.150000E+03	5.961697E-16	3.723119E-17
5.160000E+03	5.962260E-16	3.707969E-17
5.170000E+03	5.974869E-16	3.699642E-17
5.180000E+03	5.998806E-16	3.697831E-17
5.190000E+03	6.033236E-16	3.702193E-17
5.200000E+03	6.076710E-16	3.711987E-17
5.210000E+03	6.127885E-16	3.726445E-17
5.220000E+03	6.185044E-16	3.744420E-17
5.230000E+03	6.246587E-16	3.764624E-17
5.240000E+03	6.310870E-16	3.785505E-17
5.250000E+03	6.376274E-16	3.805280E-17
5.260000E+03	6.441589E-16	3.822186E-17
5.270000E+03	6.505571E-16	3.834267E-17
5.280000E+03	6.567290E-16	3.839647E-17
5.290000E+03	6.626060E-16	3.836566E-17
5.300000E+03	6.681605E-16	3.823542E-17
5.310000E+03	6.733541E-16	3.799130E-17
5.320000E+03	6.781943E-16	3.762272E-17
5.330000E+03	6.826980E-16	3.712086E-17
5.340000E+03	6.869048E-16	3.647903E-17
5.350000E+03	6.908479E-16	3.569054E-17
5.360000E+03	6.945840E-16	3.474946E-17
5.370000E+03	6.981549E-16	3.364786E-17
5.380000E+03	7.016177E-16	3.237675E-17
5.390000E+03	7.050246E-16	3.092470E-17
5.400000E+03	7.083963E-16	2.927707E-17
5.410000E+03	7.117807E-16	2.741985E-17
5.420000E+03	7.151961E-16	2.533964E-17
5.430000E+03	7.186675E-16	2.302966E-17
5.440000E+03	7.222294E-16	2.049758E-17
5.450000E+03	7.258996E-16	1.777974E-17
5.460000E+03	7.297162E-16	1.497355E-17
5.470000E+03	7.336607E-16	1.230479E-17
5.480000E+03	7.376917E-16	1.025822E-17
5.490000E+03	7.416961E-16	9.602110E-18
5.500000E+03	7.455388E-16	1.073432E-17
5.510000E+03	7.491020E-16	1.311494E-17
5.520000E+03	7.522444E-16	1.601786E-17
5.530000E+03	7.547833E-16	1.901434E-17
5.540000E+03	7.565283E-16	2.189460E-17
5.550000E+03	7.573209E-16	2.455662E-17
5.560000E+03	7.570699E-16	2.695193E-17
5.570000E+03	7.557306E-16	2.906043E-17
5.580000E+03	7.533647E-16	3.088111E-17
5.590000E+03	7.500603E-16	3.242331E-17
5.600000E+03	7.459802E-16	3.370529E-17
5.610000E+03	7.412699E-16	3.474825E-17
5.620000E+03	7.360998E-16	3.557685E-17
5.630000E+03	7.305789E-16	3.621422E-17
5.640000E+03	7.247924E-16	3.668319E-17
5.650000E+03	7.187973E-16	3.700578E-17
5.660000E+03	7.125734E-16	3.720042E-17
5.670000E+03	7.061259E-16	3.728681E-17
5.680000E+03	6.994112E-16	3.728163E-17
5.690000E+03	6.924395E-16	3.720309E-17
5.700000E+03	6.852660E-16	3.706968E-17
5.710000E+03	6.779880E-16	3.689908E-17
5.720000E+03	6.708013E-16	3.671050E-17
5.730000E+03	6.639650E-16	3.652252E-17
5.740000E+03	6.578170E-16	3.635394E-17
5.750000E+03	6.527577E-16	3.622352E-17
5.760000E+03	6.492010E-16	3.614803E-17
5.770000E+03	6.475930E-16	3.614413E-17
5.780000E+03	6.483520E-16	3.622590E-17
5.790000E+03	6.518733E-16	3.640565E-17
5.800000E+03	6.584729E-16	3.669123E-17
5.810000E+03	6.684140E-16	3.708785E-17
5.820000E+03	6.818310E-16	3.759417E-17
5.830000E+03	6.987477E-16	3.820406E-17
5.840000E+03	7.190416E-16	3.890548E-17
5.850000E+03	7.424214E-16	3.968070E-17
5.860000E+03	7.684027E-16	4.050660E-17
5.870000E+03	7.963239E-16	4.135706E-17
5.880000E+03	8.253233E-16	4.220300E-17
5.890000E+03	8.543832E-16	4.301478E-17
5.900000E+03	8.824025E-16	4.376474E-17
5.910000E+03	9.082382E-16	4.442660E-17
5.920000E+03	9.308246E-16	4.497751E-17
5.930000E+03	9.492596E-16	4.539819E-17
5.940000E+03	9.628784E-16	4.567290E-17
5.950000E+03	9.713300E-16	4.579096E-17
5.960000E+03	9.745991E-16	4.574741E-17
5.970000E+03	9.729506E-16	4.554159E-17
5.980000E+03	9.669314E-16	4.517937E-17
5.990000E+03	9.572916E-16	4.467197E-17
6.000000E+03	9.448774E-16	4.403325E-17
6.010000E+03	9.305877E-16	4.327925E-17
6.020000E+03	9.152919E-16	4.242551E-17
6.030000E+03	8.998120E-16	4.148644E-17
6.040000E+03	8.848545E-16	4.047204E-17
6.050000E+03	8.710207E-16	3.938780E-17
6.060000E+03	8.587905E-16	3.823317E-17
6.070000E+03	8.485203E-16	3.700087E-17
6.080000E+03	8.404370E-16	3.567637E-17
6.090000E+03	8.346654E-16	3.423960E-17
6.100000E+03	8.311972E-16	3.266503E-17
6.110000E+03	8.299179E-16	3.092587E-17
6.120000E+03	8.306087E-16	2.899909E-17
6.130000E+03	8.329163E-16	2.687264E-17
6.140000E+03	8.364162E-16	2.456112E-17
6.150000E+03	8.405649E-16	2.212588E-17
6.160000E+03	8.447409E-16	1.971109E-17
6.170000E+03	8.482984E-16	1.759076E-17
6.180000E+03	8.505657E-16	1.618558E-17
6.190000E+03	8.509678E-16	1.592085E-17
6.200000E+03	8.491356E-16	1.688001E-17
6.210000E+03	8.449799E-16	1.870727E-17
6.220000E+03	8.385504E-16	2.092772E-17
6.230000E+03	8.299814E-16	2.318516E-17
6.240000E+03	8.194457E-16	2.526676E-17
6.250000E+03	8.071083E-16	2.706030E-17
6.260000E+03	7.931407E-16	2.851668E-17
6.270000E+03	7.777257E-16	2.962538E-17
6.280000E+03	7.610115E-16	3.039735E-17
6.290000E+03	7.431729E-16	3.085720E-17
6.300000E+03	7.243872E-16	3.103590E-17
6.310000E+03	7.048587E-16	3.096735E-17
6.320000E+03	6.848054E-16	3.068505E-17
6.330000E+03	6.645013E-16	3.022235E-17
6.340000E+03	6.442335E-16	2.960981E-17
6.350000E+03	6.243512E-16	2.887717E-17
6.360000E+03	6.052423E-16	2.805248E-17
6.370000E+03	5.873219E-16	2.716169E-17
6.380000E+03	5.710257E-16	2.622836E-17
6.390000E+03	5.568239E-16	2.527408E-17
6.400000E+03	5.451781E-16	2.431589E-17
6.410000E+03	5.365635E-16	2.336643E-17
6.420000E+03	5.314495E-16	2.243196E-17
6.430000E+03	5.303111E-16	2.151159E-17
6.440000E+03	5.336118E-16	2.059549E-17
6.450000E+03	5.418528E-16	1.966613E-17
6.460000E+03	5.555304E-16	1.869696E-17
6.470000E+03	5.751612E-16	1.765624E-17
6.480000E+03	6.013022E-16	1.651551E-17
6.490000E+03	6.344836E-16	1.526666E-17
6.500000E+03	6.752276E-16	1.396519E-17
6.510000E+03	7.239381E-16	1.281348E-17
6.520000E+03	7.808144E-16	1.227708E-17
6.530000E+03	8.457008E-16	1.302863E-17
6.540000E+03	9.178538E-16	1.544578E-17
6.550000E+03	9.958497E-16	1.930297E-17
6.560000E+03	1.077447E-15	2.413102E-17
6.570000E+03	1.159634E-15	2.950115E-17
6.580000E+03	1.238853E-15	3.505174E-17
6.590000E+03	1.311226E-15	4.046067E-17
6.600000E+03	1.373060E-15	4.544294E-17
6.610000E+03	1.421123E-15	4.975788E-17
6.620000E+03	1.453183E-15	5.323148E-17
6.630000E+03	1.468101E-15	5.576387E-17
6.640000E+03	1.465972E-15	5.733418E-17
6.650000E+03	1.448021E-15	5.799235E-17
6.660000E+03	1.416309E-15	5.784060E-17
6.670000E+03	1.373488E-15	5.701521E-17
6.680000E+03	1.322424E-15	5.566446E-17
6.690000E+03	1.265938E-15	5.393285E-17
6.700000E+03	1.206597E-15	5.195035E-17
6.710000E+03	1.146602E-15	4.982746E-17
6.720000E+03	1.087692E-15	4.765259E-17
6.730000E+03	1.031202E-15	4.549583E-17
6.740000E+03	9.780438E-16	4.340972E-17
6.750000E+03	9.288178E-16	4.143428E-17
6.760000E+03	8.838457E-16	3.959851E-17
6.770000E+03	8.432057E-16	3.792111E-17
6.780000E+03	8.068471E-16	3.641468E-17
6.790000E+03	7.745952E-16	3.508493E-17
6.800000E+03	7.462079E-16	3.393230E-17
6.810000E+03	7.213794E-16	3.295148E-17
6.820000E+03	6.997984E-16	3.213353E-17
6.830000E+03	6.811253E-16	3.146473E-17
6.840000E+03	6.650698E-16	3.093028E-17
6.850000E+03	6.513226E-16	3.051167E-17
6.860000E+03	6.396181E-16	3.019039E-17
6.870000E+03	6.297304E-16	2.994876E-17
6.880000E+03	6.214604E-16	2.977033E-17
6.890000E+03	6.146366E-16	2.964082E-17
6.900000E+03	6.091342E-16	2.954963E-17
6.910000E+03	6.048428E-16	2.948855E-17
6.920000E+03	6.016969E-16	2.945322E-17
6.930000E+03	5.996201E-16	2.944013E-17
6.940000E+03	5.985684E-16	2.944835E-17
6.950000E+03	5.984883E-16	2.947708E-17
6.960000E+03	5.993388E-16	2.952651E-17
6.970000E+03	6.010651E-16	2.959638E-17
6.980000E+03	6.036014E-16	2.968619E-17
6.990000E+03	6.068610E-16	2.979488E-17
7.000000E+03	6.107565E-16	2.992201E-17
7.010000E+03	6.151793E-16	3.006682E-17
7.020000E+03	6.200005E-16	3.022832E-17
7.030000E+03	6.250980E-16	3.040623E-17
7.040000E+03	6.303388E-16	3.059981E-17
7.050000E+03	6.355859E-16	3.080768E-17
7.060000E+03	6.407213E-16	3.102847E-17
7.070000E+03	6.456626E-16	3.126131E-17
7.080000E+03	6.503159E-16	3.150344E-17
7.090000E+03	6.546612E-16	3.175438E-17
7.100000E+03	6.587026E-16	3.201359E-17
7.110000E+03	6.624686E-16	3.228078E-17
7.120000E+03	6.660598E-16	3.255833E-17
7.130000E+03	6.695949E-16	3.284883E-17
7.140000E+03	6.732015E-16	3.315474E-17
7.150000E+03	6.770560E-16	3.348041E-17
7.160000E+03	6.813122E-16	3.382872E-17
7.170000E+03	6.861223E-16	3.420221E-17
7.180000E+03	6.916246E-16	3.460254E-17
7.190000E+03	6.978974E-16	3.502838E-17
7.200000E+03	7.050019E-16	3.547753E-17
7.210000E+03	7.129399E-16	3.594498E-17
7.220000E+03	7.216670E-16	3.642363E-17
7.230000E+03	7.310532E-16	3.690250E-17
7.240000E+03	7.409281E-16	3.736924E-17
7.250000E+03	7.510852E-16	3.781055E-17
7.260000E+03	7.612400E-16	3.821026E-17
7.270000E+03	7.710666E-16	3.855130E-17
7.280000E+03	7.802308E-16	3.881726E-17
7.290000E+03	7.883664E-16	3.899094E-17
7.300000E+03	7.951348E-16	3.905680E-17
7.310000E+03	8.002156E-16	3.899979E-17
7.320000E+03	8.033267E-16	3.880558E-17
7.330000E+03	8.042757E-16	3.846212E-17
7.340000E+03	8.029315E-16	3.795771E-17
7.350000E+03	7.992746E-16	3.728294E-17
7.360000E+03	7.933549E-16	3.642874E-17
7.370000E+03	7.853260E-16	3.538839E-17
7.380000E+03	7.753882E-16	3.415570E-17
7.390000E+03	7.638008E-16	3.272656E-17
7.400000E+03	7.508599E-16	3.109910E-17
7.410000E+03	7.368466E-16	2.927269E-17
7.420000E+03	7.220392E-16	2.724983E-17
7.430000E+03	7.066985E-16	2.503706E-17
7.440000E+03	6.910195E-16	2.264547E-17
7.450000E+03	6.752027E-16	2.009679E-17
7.460000E+03	6.593498E-16	1.742655E-17
7.470000E+03	6.435686E-16	1.470045E-17
7.480000E+03	6.279053E-16	1.204012E-17
7.490000E+03	6.123916E-16	9.682694E-18
7.500000E+03	5.970562E-16	8.063143E-18
7.510000E+03	5.819751E-16	7.701635E-18
7.520000E+03	5.673035E-16	8.611482E-18
7.530000E+03	5.532955E-16	1.022363E-17
7.540000E+03	5.402245E-16	1.203705E-17
7.550000E+03	5.283387E-16	1.380595E-17
7.560000E+03	5.178211E-16	1.543542E-17
7.570000E+03	5.088108E-16	1.690012E-17
7.580000E+03	5.013998E-16	1.820514E-17
7.590000E+03	4.956469E-16	1.936864E-17
7.600000E+03	4.915624E-16	2.041271E-17
7.610000E+03	4.891348E-16	2.136025E-17
7.620000E+03	4.883339E-16	2.223310E-17
7.630000E+03	4.890921E-16	2.305015E-17
7.640000E+03	4.913253E-16	2.382773E-17
7.650000E+03	4.949334E-16	2.457930E-17
7.660000E+03	4.997778E-16	2.531414E-17
7.670000E+03	5.057110E-16	2.603856E-17
7.680000E+03	5.125490E-16	2.675445E-17
7.690000E+03	5.200961E-16	2.746054E-17
7.700000E+03	5.281510E-16	2.815285E-17
7.710000E+03	5.364905E-16	2.882409E-17
7.720000E+03	5.449076E-16	2.946605E-17
7.730000E+03	5.531888E-16	3.006883E-17
7.740000E+03	5.611531E-16	3.062347E-17
7.750000E+03	5.686267E-16	3.112095E-17
7.760000E+03	5.754810E-16	3.155461E-17
