#wls	flux	fluxerr
1.600000E+03	1.082967E-17	9.853617E-18
1.640000E+03	1.097100E-17	9.938510E-18
1.680000E+03	1.113012E-17	1.003799E-17
1.720000E+03	1.130112E-17	1.014656E-17
1.760000E+03	1.149149E-17	1.027075E-17
1.800000E+03	1.170198E-17	1.041094E-17
1.840000E+03	1.192992E-17	1.056447E-17
1.880000E+03	1.217595E-17	1.073156E-17
1.920000E+03	1.244404E-17	1.091532E-17
1.960000E+03	1.273476E-17	1.111575E-17
2.000000E+03	1.304859E-17	1.133274E-17
2.040000E+03	1.338246E-17	1.156300E-17
2.080000E+03	1.374020E-17	1.180911E-17
2.120000E+03	1.412208E-17	1.207053E-17
2.160000E+03	1.452837E-17	1.234653E-17
2.200000E+03	1.495562E-17	1.263315E-17
2.240000E+03	1.541128E-17	1.293552E-17
2.280000E+03	1.589566E-17	1.325251E-17
2.320000E+03	1.640151E-17	1.357656E-17
2.360000E+03	1.693663E-17	1.391246E-17
2.400000E+03	1.750148E-17	1.425866E-17
2.440000E+03	1.809271E-17	1.461027E-17
2.480000E+03	1.871491E-17	1.496866E-17
2.520000E+03	1.936903E-17	1.533190E-17
2.560000E+03	2.005625E-17	1.569795E-17
2.600000E+03	2.077803E-17	1.606469E-17
2.640000E+03	2.153620E-17	1.642988E-17
2.680000E+03	2.234169E-17	1.679775E-17
2.720000E+03	2.318438E-17	1.715611E-17
2.760000E+03	2.408085E-17	1.751233E-17
2.800000E+03	2.503099E-17	1.786067E-17
2.840000E+03	2.603991E-17	1.819860E-17
2.880000E+03	2.711848E-17	1.852691E-17
2.920000E+03	2.826949E-17	1.883992E-17
2.960000E+03	2.951172E-17	1.914179E-17
3.000000E+03	3.085145E-17	1.942713E-17
3.010000E+03	3.120042E-17	1.949397E-17
3.020000E+03	3.156002E-17	1.956183E-17
3.030000E+03	3.193054E-17	1.963066E-17
3.040000E+03	3.230198E-17	1.969412E-17
3.050000E+03	3.268486E-17	1.975851E-17
3.060000E+03	3.307955E-17	1.982380E-17
3.070000E+03	3.348113E-17	1.988682E-17
3.080000E+03	3.388988E-17	1.994758E-17
3.090000E+03	3.430610E-17	2.000607E-17
3.100000E+03	3.473546E-17	2.006540E-17
3.110000E+03	3.517836E-17	2.012553E-17
3.120000E+03	3.562441E-17	2.018031E-17
3.130000E+03	3.609025E-17	2.023896E-17
3.140000E+03	3.655995E-17	2.029228E-17
3.150000E+03	3.704489E-17	2.034642E-17
3.160000E+03	3.754559E-17	2.040136E-17
3.170000E+03	3.805135E-17	2.045107E-17
3.180000E+03	3.857951E-17	2.050465E-17
3.190000E+03	3.911366E-17	2.055308E-17
3.200000E+03	3.966567E-17	2.060243E-17
3.210000E+03	4.023621E-17	2.065272E-17
3.220000E+03	4.082012E-17	2.070101E-17
3.230000E+03	4.142386E-17	2.075035E-17
3.240000E+03	4.204224E-17	2.079783E-17
3.250000E+03	4.267590E-17	2.084356E-17
3.260000E+03	4.333154E-17	2.089057E-17
3.270000E+03	4.400393E-17	2.093603E-17
3.280000E+03	4.469994E-17	2.098297E-17
3.290000E+03	4.541431E-17	2.102863E-17
3.300000E+03	4.615410E-17	2.107604E-17
3.310000E+03	4.692035E-17	2.112534E-17
3.320000E+03	4.770132E-17	2.117102E-17
3.330000E+03	4.851715E-17	2.122182E-17
3.340000E+03	4.935615E-17	2.127227E-17
3.350000E+03	5.021933E-17	2.132264E-17
3.360000E+03	5.111445E-17	2.137602E-17
3.370000E+03	5.203609E-17	2.142989E-17
3.380000E+03	5.299226E-17	2.148738E-17
3.390000E+03	5.398445E-17	2.154882E-17
3.400000E+03	5.500719E-17	2.161182E-17
3.410000E+03	5.606894E-17	2.167955E-17
3.420000E+03	5.716420E-17	2.174971E-17
3.430000E+03	5.830173E-17	2.182552E-17
3.440000E+03	5.947602E-17	2.190475E-17
3.450000E+03	6.069617E-17	2.199065E-17
3.460000E+03	6.195661E-17	2.208109E-17
3.470000E+03	6.326680E-17	2.217936E-17
3.480000E+03	6.462891E-17	2.228605E-17
3.490000E+03	6.603730E-17	2.239912E-17
3.500000E+03	6.750199E-17	2.252189E-17
3.510000E+03	6.901723E-17	2.265233E-17
3.520000E+03	7.059341E-17	2.279375E-17
3.530000E+03	7.223305E-17	2.294677E-17
3.540000E+03	7.393020E-17	2.310930E-17
3.550000E+03	7.569572E-17	2.328453E-17
3.560000E+03	7.753219E-17	2.347293E-17
3.570000E+03	7.943318E-17	2.367216E-17
3.580000E+03	8.140984E-17	2.388512E-17
3.590000E+03	8.345519E-17	2.410917E-17
3.600000E+03	8.558031E-17	2.434682E-17
3.610000E+03	8.778701E-17	2.459767E-17
3.620000E+03	9.006699E-17	2.485833E-17
3.630000E+03	9.243093E-17	2.513055E-17
3.640000E+03	9.487971E-17	2.541315E-17
3.650000E+03	9.741395E-17	2.570467E-17
3.660000E+03	1.000233E-16	2.600069E-17
3.670000E+03	1.027072E-16	2.629924E-17
3.680000E+03	1.054866E-16	2.660367E-17
3.690000E+03	1.083389E-16	2.690606E-17
3.700000E+03	1.112739E-16	2.720656E-17
3.710000E+03	1.142783E-16	2.749956E-17
3.720000E+03	1.173733E-16	2.778769E-17
3.730000E+03	1.205332E-16	2.806215E-17
3.740000E+03	1.237543E-16	2.831964E-17
3.750000E+03	1.270578E-16	2.856239E-17
3.760000E+03	1.304152E-16	2.878123E-17
3.770000E+03	1.338214E-16	2.897261E-17
3.780000E+03	1.372974E-16	2.913862E-17
3.790000E+03	1.408116E-16	2.927005E-17
3.800000E+03	1.443711E-16	2.936628E-17
3.810000E+03	1.479694E-16	2.942395E-17
3.820000E+03	1.515851E-16	2.943714E-17
3.830000E+03	1.552242E-16	2.940575E-17
3.840000E+03	1.588785E-16	2.932721E-17
3.850000E+03	1.625390E-16	2.919931E-17
3.860000E+03	1.661810E-16	2.901769E-17
3.870000E+03	1.698089E-16	2.878394E-17
3.880000E+03	1.734121E-16	2.849757E-17
3.890000E+03	1.769791E-16	2.815885E-17
3.900000E+03	1.804822E-16	2.776646E-17
3.910000E+03	1.839244E-16	2.732505E-17
3.920000E+03	1.872928E-16	2.683779E-17
3.930000E+03	1.905740E-16	2.630898E-17
3.940000E+03	1.937377E-16	2.574197E-17
3.950000E+03	1.967864E-16	2.514587E-17
3.960000E+03	1.997059E-16	2.452873E-17
3.970000E+03	2.024654E-16	2.389764E-17
3.980000E+03	2.050858E-16	2.326655E-17
3.990000E+03	2.075213E-16	2.264159E-17
4.000000E+03	2.097798E-16	2.203435E-17
4.010000E+03	2.118376E-16	2.145161E-17
4.020000E+03	2.137255E-16	2.090401E-17
4.030000E+03	2.154077E-16	2.039374E-17
4.040000E+03	2.169016E-16	1.992668E-17
4.050000E+03	2.181909E-16	1.950400E-17
4.060000E+03	2.192941E-16	1.912872E-17
4.070000E+03	2.202127E-16	1.880097E-17
4.080000E+03	2.209492E-16	1.851983E-17
4.090000E+03	2.215079E-16	1.828349E-17
4.100000E+03	2.218792E-16	1.808796E-17
4.110000E+03	2.220920E-16	1.793140E-17
4.120000E+03	2.221633E-16	1.780996E-17
4.130000E+03	2.220993E-16	1.771798E-17
4.140000E+03	2.219446E-16	1.765206E-17
4.150000E+03	2.217311E-16	1.760719E-17
4.160000E+03	2.214932E-16	1.757824E-17
4.170000E+03	2.212508E-16	1.755904E-17
4.180000E+03	2.210552E-16	1.754645E-17
4.190000E+03	2.209400E-16	1.753674E-17
4.200000E+03	2.209207E-16	1.752565E-17
4.210000E+03	2.210414E-16	1.751208E-17
4.220000E+03	2.213270E-16	1.749422E-17
4.230000E+03	2.217845E-16	1.746951E-17
4.240000E+03	2.224485E-16	1.743822E-17
4.250000E+03	2.233353E-16	1.739972E-17
4.260000E+03	2.244590E-16	1.735371E-17
4.270000E+03	2.258151E-16	1.729906E-17
4.280000E+03	2.274115E-16	1.723612E-17
4.290000E+03	2.292818E-16	1.716787E-17
4.300000E+03	2.313956E-16	1.709305E-17
4.310000E+03	2.337477E-16	1.701317E-17
4.320000E+03	2.363436E-16	1.693148E-17
4.330000E+03	2.391701E-16	1.685097E-17
4.340000E+03	2.422105E-16	1.677579E-17
4.350000E+03	2.454300E-16	1.671024E-17
4.360000E+03	2.488063E-16	1.666086E-17
4.370000E+03	2.523314E-16	1.663615E-17
4.380000E+03	2.559824E-16	1.664369E-17
4.390000E+03	2.597276E-16	1.668841E-17
4.400000E+03	2.635842E-16	1.677302E-17
4.410000E+03	2.675558E-16	1.689359E-17
4.420000E+03	2.716865E-16	1.704580E-17
4.430000E+03	2.759907E-16	1.722264E-17
4.440000E+03	2.805157E-16	1.741948E-17
4.450000E+03	2.852928E-16	1.763163E-17
4.460000E+03	2.903200E-16	1.785357E-17
4.470000E+03	2.956781E-16	1.808621E-17
4.480000E+03	3.013452E-16	1.832530E-17
4.490000E+03	3.073974E-16	1.857349E-17
4.500000E+03	3.138002E-16	1.882718E-17
4.510000E+03	3.205946E-16	1.908742E-17
4.520000E+03	3.277716E-16	1.935208E-17
4.530000E+03	3.352665E-16	1.961584E-17
4.540000E+03	3.430850E-16	1.987796E-17
4.550000E+03	3.510999E-16	2.013098E-17
4.560000E+03	3.592573E-16	2.037314E-17
4.570000E+03	3.674312E-16	2.060033E-17
4.580000E+03	3.755244E-16	2.081208E-17
4.590000E+03	3.833981E-16	2.100764E-17
4.600000E+03	3.909384E-16	2.118953E-17
4.610000E+03	3.980661E-16	2.136354E-17
4.620000E+03	4.046604E-16	2.153387E-17
4.630000E+03	4.107091E-16	2.171032E-17
4.640000E+03	4.161867E-16	2.190071E-17
4.650000E+03	4.210518E-16	2.211027E-17
4.660000E+03	4.253706E-16	2.234772E-17
4.670000E+03	4.291634E-16	2.261716E-17
4.680000E+03	4.324860E-16	2.292280E-17
4.690000E+03	4.354045E-16	2.326821E-17
4.700000E+03	4.380134E-16	2.365754E-17
4.710000E+03	4.403683E-16	2.409178E-17
4.720000E+03	4.425260E-16	2.457017E-17
4.730000E+03	4.446063E-16	2.509272E-17
4.740000E+03	4.466606E-16	2.565275E-17
4.750000E+03	4.487552E-16	2.624209E-17
4.760000E+03	4.509475E-16	2.685041E-17
4.770000E+03	4.533059E-16	2.746669E-17
4.780000E+03	4.558223E-16	2.807422E-17
4.790000E+03	4.585393E-16	2.865851E-17
4.800000E+03	4.614846E-16	2.920424E-17
4.810000E+03	4.646073E-16	2.969205E-17
4.820000E+03	4.679046E-16	3.010754E-17
4.830000E+03	4.713399E-16	3.043670E-17
4.840000E+03	4.748872E-16	3.066947E-17
4.850000E+03	4.784492E-16	3.079486E-17
4.860000E+03	4.819880E-16	3.080988E-17
4.870000E+03	4.854428E-16	3.071449E-17
4.880000E+03	4.887536E-16	3.051339E-17
4.890000E+03	4.918649E-16	3.021613E-17
4.900000E+03	4.947066E-16	2.983569E-17
4.910000E+03	4.972824E-16	2.939326E-17
4.920000E+03	4.995198E-16	2.890823E-17
4.930000E+03	5.014192E-16	2.840571E-17
4.940000E+03	5.029673E-16	2.790864E-17
4.950000E+03	5.041566E-16	2.743558E-17
4.960000E+03	5.049832E-16	2.699701E-17
4.970000E+03	5.054236E-16	2.659262E-17
4.980000E+03	5.054948E-16	2.621664E-17
4.990000E+03	5.051874E-16	2.585829E-17
5.000000E+03	5.044642E-16	2.550596E-17
5.010000E+03	5.033443E-16	2.515456E-17
5.020000E+03	5.017611E-16	2.479988E-17
5.030000E+03	4.996927E-16	2.444532E-17
5.040000E+03	4.971696E-16	2.410052E-17
5.050000E+03	4.941644E-16	2.377325E-17
5.060000E+03	4.907227E-16	2.347270E-17
5.070000E+03	4.869486E-16	2.320601E-17
5.080000E+03	4.829665E-16	2.297453E-17
5.090000E+03	4.789371E-16	2.277438E-17
5.100000E+03	4.750235E-16	2.259689E-17
5.110000E+03	4.714101E-16	2.243280E-17
5.120000E+03	4.682854E-16	2.227438E-17
5.130000E+03	4.657966E-16	2.211548E-17
5.140000E+03	4.640443E-16	2.195274E-17
5.150000E+03	4.631316E-16	2.178824E-17
5.160000E+03	4.630870E-16	2.162530E-17
5.170000E+03	4.639302E-16	2.147046E-17
5.180000E+03	4.655989E-16	2.132884E-17
5.190000E+03	4.680242E-16	2.120654E-17
5.200000E+03	4.710695E-16	2.110674E-17
5.210000E+03	4.745931E-16	2.103121E-17
5.220000E+03	4.784602E-16	2.097960E-17
5.230000E+03	4.825193E-16	2.094698E-17
5.240000E+03	4.866120E-16	2.092347E-17
5.250000E+03	4.906124E-16	2.089616E-17
5.260000E+03	4.944304E-16	2.085018E-17
5.270000E+03	4.979575E-16	2.076809E-17
5.280000E+03	5.011202E-16	2.063447E-17
5.290000E+03	5.038784E-16	2.043838E-17
5.300000E+03	5.061712E-16	2.017284E-17
5.310000E+03	5.079720E-16	1.983788E-17
5.320000E+03	5.092913E-16	1.944003E-17
5.330000E+03	5.101258E-16	1.898874E-17
5.340000E+03	5.105161E-16	1.849611E-17
5.350000E+03	5.105494E-16	1.797389E-17
5.360000E+03	5.103043E-16	1.742943E-17
5.370000E+03	5.098984E-16	1.686716E-17
5.380000E+03	5.094581E-16	1.628809E-17
5.390000E+03	5.091220E-16	1.569014E-17
5.400000E+03	5.089716E-16	1.506595E-17
5.410000E+03	5.090671E-16	1.440397E-17
5.420000E+03	5.094218E-16	1.368927E-17
5.430000E+03	5.100238E-16	1.290942E-17
5.440000E+03	5.107805E-16	1.206139E-17
5.450000E+03	5.116570E-16	1.116477E-17
5.460000E+03	5.125732E-16	1.027098E-17
5.470000E+03	5.134912E-16	9.477887E-18
5.480000E+03	5.144199E-16	8.933471E-18
5.490000E+03	5.153155E-16	8.795874E-18
5.500000E+03	5.161181E-16	9.129450E-18
5.510000E+03	5.165841E-16	9.840987E-18
5.520000E+03	5.164359E-16	1.076401E-17
5.530000E+03	5.154349E-16	1.175138E-17
5.540000E+03	5.134213E-16	1.270132E-17
5.550000E+03	5.103233E-16	1.355183E-17
5.560000E+03	5.061566E-16	1.427059E-17
5.570000E+03	5.010333E-16	1.484715E-17
5.580000E+03	4.950832E-16	1.528498E-17
5.590000E+03	4.885498E-16	1.559970E-17
5.600000E+03	4.816394E-16	1.581066E-17
5.610000E+03	4.746217E-16	1.594082E-17
5.620000E+03	4.676923E-16	1.600968E-17
5.630000E+03	4.610010E-16	1.603243E-17
5.640000E+03	4.546842E-16	1.602109E-17
5.650000E+03	4.487732E-16	1.598208E-17
5.660000E+03	4.432426E-16	1.591887E-17
5.670000E+03	4.380651E-16	1.583541E-17
5.680000E+03	4.331445E-16	1.573488E-17
5.690000E+03	4.283945E-16	1.562296E-17
5.700000E+03	4.237362E-16	1.550748E-17
5.710000E+03	4.191790E-16	1.540035E-17
5.720000E+03	4.147500E-16	1.531354E-17
5.730000E+03	4.106126E-16	1.526209E-17
5.740000E+03	4.069816E-16	1.525980E-17
5.750000E+03	4.041562E-16	1.531976E-17
5.760000E+03	4.025340E-16	1.545537E-17
5.770000E+03	4.024910E-16	1.567663E-17
5.780000E+03	4.044380E-16	1.599258E-17
5.790000E+03	4.087399E-16	1.640804E-17
5.800000E+03	4.157098E-16	1.692281E-17
5.810000E+03	4.255365E-16	1.752815E-17
5.820000E+03	4.383553E-16	1.820991E-17
5.830000E+03	4.541824E-16	1.894719E-17
5.840000E+03	4.729740E-16	1.971637E-17
5.850000E+03	4.945292E-16	2.048894E-17
5.860000E+03	5.185039E-16	2.123467E-17
5.870000E+03	5.444300E-16	2.192544E-17
5.880000E+03	5.715782E-16	2.253312E-17
5.890000E+03	5.990523E-16	2.303658E-17
5.900000E+03	6.257348E-16	2.342161E-17
5.910000E+03	6.503574E-16	2.368319E-17
5.920000E+03	6.716067E-16	2.382540E-17
5.930000E+03	6.882684E-16	2.385918E-17
5.940000E+03	6.993695E-16	2.379797E-17
5.950000E+03	7.044135E-16	2.365618E-17
5.960000E+03	7.033210E-16	2.344128E-17
5.970000E+03	6.965508E-16	2.315879E-17
5.980000E+03	6.849085E-16	2.281125E-17
5.990000E+03	6.694284E-16	2.240180E-17
6.000000E+03	6.512145E-16	2.193707E-17
6.010000E+03	6.313975E-16	2.143161E-17
6.020000E+03	6.109175E-16	2.090188E-17
6.030000E+03	5.906154E-16	2.036726E-17
6.040000E+03	5.711432E-16	1.984320E-17
6.050000E+03	5.529910E-16	1.933946E-17
6.060000E+03	5.365114E-16	1.886104E-17
6.070000E+03	5.219320E-16	1.840989E-17
6.080000E+03	5.094400E-16	1.798868E-17
6.090000E+03	4.990894E-16	1.759802E-17
6.100000E+03	4.909161E-16	1.724034E-17
6.110000E+03	4.848812E-16	1.691776E-17
6.120000E+03	4.808747E-16	1.663271E-17
6.130000E+03	4.787720E-16	1.639031E-17
6.140000E+03	4.783365E-16	1.619498E-17
6.150000E+03	4.793237E-16	1.605338E-17
6.160000E+03	4.814484E-16	1.597157E-17
6.170000E+03	4.843427E-16	1.595111E-17
6.180000E+03	4.877179E-16	1.599174E-17
6.190000E+03	4.912569E-16	1.608408E-17
6.200000E+03	4.947057E-16	1.620902E-17
6.210000E+03	4.979264E-16	1.634173E-17
6.220000E+03	5.007759E-16	1.645583E-17
6.230000E+03	5.031844E-16	1.653293E-17
6.240000E+03	5.050847E-16	1.656363E-17
6.250000E+03	5.064012E-16	1.654728E-17
6.260000E+03	5.071027E-16	1.649118E-17
6.270000E+03	5.071117E-16	1.640311E-17
6.280000E+03	5.063502E-16	1.628776E-17
6.290000E+03	5.047733E-16	1.614507E-17
6.300000E+03	5.023340E-16	1.597071E-17
6.310000E+03	4.990085E-16	1.576053E-17
6.320000E+03	4.948052E-16	1.551435E-17
6.330000E+03	4.897696E-16	1.523853E-17
6.340000E+03	4.839887E-16	1.494617E-17
6.350000E+03	4.775807E-16	1.465434E-17
6.360000E+03	4.707562E-16	1.438133E-17
6.370000E+03	4.637264E-16	1.413814E-17
6.380000E+03	4.568124E-16	1.392845E-17
6.390000E+03	4.503288E-16	1.374668E-17
6.400000E+03	4.446655E-16	1.358433E-17
6.410000E+03	4.402366E-16	1.343159E-17
6.420000E+03	4.374343E-16	1.327793E-17
6.430000E+03	4.366975E-16	1.311463E-17
6.440000E+03	4.384570E-16	1.293229E-17
6.450000E+03	4.431444E-16	1.271993E-17
6.460000E+03	4.511891E-16	1.246421E-17
6.470000E+03	4.630237E-16	1.215068E-17
6.480000E+03	4.791023E-16	1.176986E-17
6.490000E+03	4.999255E-16	1.133046E-17
6.500000E+03	5.260601E-16	1.088285E-17
6.510000E+03	5.581449E-16	1.055617E-17
6.520000E+03	5.968535E-16	1.059259E-17
6.530000E+03	6.427138E-16	1.129963E-17
6.540000E+03	6.957084E-16	1.285189E-17
6.550000E+03	7.548519E-16	1.516290E-17
6.560000E+03	8.183040E-16	1.799751E-17
6.570000E+03	8.833595E-16	2.109008E-17
6.580000E+03	9.465823E-16	2.418190E-17
6.590000E+03	1.003927E-15	2.702723E-17
6.600000E+03	1.051349E-15	2.941184E-17
6.610000E+03	1.085174E-15	3.116846E-17
6.620000E+03	1.102916E-15	3.220409E-17
6.630000E+03	1.103471E-15	3.250484E-17
6.640000E+03	1.087369E-15	3.213441E-17
6.650000E+03	1.056594E-15	3.121432E-17
6.660000E+03	1.014195E-15	2.989646E-17
6.670000E+03	9.637887E-16	2.833569E-17
6.680000E+03	9.089341E-16	2.666567E-17
6.690000E+03	8.528953E-16	2.499442E-17
6.700000E+03	7.981688E-16	2.339563E-17
6.710000E+03	7.465088E-16	2.191453E-17
6.720000E+03	6.989736E-16	2.057391E-17
6.730000E+03	6.560890E-16	1.938122E-17
6.740000E+03	6.179255E-16	1.833213E-17
6.750000E+03	5.843788E-16	1.742043E-17
6.760000E+03	5.551517E-16	1.663807E-17
6.770000E+03	5.299190E-16	1.597872E-17
6.780000E+03	5.082858E-16	1.543454E-17
6.790000E+03	4.899169E-16	1.499754E-17
6.800000E+03	4.744527E-16	1.465531E-17
6.810000E+03	4.615231E-16	1.439195E-17
6.820000E+03	4.508362E-16	1.419204E-17
6.830000E+03	4.420849E-16	1.403896E-17
6.840000E+03	4.350047E-16	1.391843E-17
6.850000E+03	4.293742E-16	1.382016E-17
6.860000E+03	4.249774E-16	1.373801E-17
6.870000E+03	4.216420E-16	1.367261E-17
6.880000E+03	4.192267E-16	1.363112E-17
6.890000E+03	4.176340E-16	1.362576E-17
6.900000E+03	4.167865E-16	1.366859E-17
6.910000E+03	4.166156E-16	1.376549E-17
6.920000E+03	4.171327E-16	1.391513E-17
6.930000E+03	4.183474E-16	1.410752E-17
6.940000E+03	4.202678E-16	1.432801E-17
6.950000E+03	4.229147E-16	1.456153E-17
6.960000E+03	4.263012E-16	1.479472E-17
6.970000E+03	4.304506E-16	1.501822E-17
6.980000E+03	4.353011E-16	1.522381E-17
6.990000E+03	4.408275E-16	1.540850E-17
7.000000E+03	4.469322E-16	1.557019E-17
7.010000E+03	4.535061E-16	1.570916E-17
7.020000E+03	4.603730E-16	1.582599E-17
7.030000E+03	4.673446E-16	1.592345E-17
7.040000E+03	4.741698E-16	1.600461E-17
7.050000E+03	4.805872E-16	1.607460E-17
7.060000E+03	4.863431E-16	1.614031E-17
7.070000E+03	4.911872E-16	1.620841E-17
7.080000E+03	4.949000E-16	1.628380E-17
7.090000E+03	4.973710E-16	1.636901E-17
7.100000E+03	4.985632E-16	1.646093E-17
7.110000E+03	4.985665E-16	1.655364E-17
7.120000E+03	4.975941E-16	1.664087E-17
7.130000E+03	4.959370E-16	1.671737E-17
7.140000E+03	4.939374E-16	1.678142E-17
7.150000E+03	4.920023E-16	1.683786E-17
7.160000E+03	4.905131E-16	1.689599E-17
7.170000E+03	4.898613E-16	1.697007E-17
7.180000E+03	4.903648E-16	1.707459E-17
7.190000E+03	4.923133E-16	1.722350E-17
7.200000E+03	4.959135E-16	1.742664E-17
7.210000E+03	5.012809E-16	1.768785E-17
7.220000E+03	5.084779E-16	1.800530E-17
7.230000E+03	5.174472E-16	1.836903E-17
7.240000E+03	5.280673E-16	1.876370E-17
7.250000E+03	5.400807E-16	1.916716E-17
7.260000E+03	5.531729E-16	1.955577E-17
7.270000E+03	5.668366E-16	1.990254E-17
7.280000E+03	5.805652E-16	2.018674E-17
7.290000E+03	5.936754E-16	2.038947E-17
7.300000E+03	6.054582E-16	2.049921E-17
7.310000E+03	6.152123E-16	2.051082E-17
7.320000E+03	6.222756E-16	2.042242E-17
7.330000E+03	6.261268E-16	2.023310E-17
7.340000E+03	6.264346E-16	1.994041E-17
7.350000E+03	6.231490E-16	1.954371E-17
7.360000E+03	6.164200E-16	1.904414E-17
7.370000E+03	6.066652E-16	1.844944E-17
7.380000E+03	5.943529E-16	1.776871E-17
7.390000E+03	5.801441E-16	1.701648E-17
7.400000E+03	5.646103E-16	1.620278E-17
7.410000E+03	5.483257E-16	1.533497E-17
7.420000E+03	5.317459E-16	1.441375E-17
7.430000E+03	5.151919E-16	1.343437E-17
7.440000E+03	4.989108E-16	1.239318E-17
7.450000E+03	4.830321E-16	1.129289E-17
7.460000E+03	4.676740E-16	1.015099E-17
7.470000E+03	4.528566E-16	9.003764E-18
7.480000E+03	4.386309E-16	7.917706E-18
7.490000E+03	4.250188E-16	6.999832E-18
7.500000E+03	4.120842E-16	6.398474E-18
7.510000E+03	3.999006E-16	6.240696E-18
7.520000E+03	3.885726E-16	6.513776E-18
7.530000E+03	3.782299E-16	7.068115E-18
7.540000E+03	3.689973E-16	7.748048E-18
7.550000E+03	3.610169E-16	8.457551E-18
7.560000E+03	3.543875E-16	9.149739E-18
7.570000E+03	3.492166E-16	9.804639E-18
7.580000E+03	3.455354E-16	1.041127E-17
7.590000E+03	3.433861E-16	1.096330E-17
7.600000E+03	3.427694E-16	1.145603E-17
7.610000E+03	3.437071E-16	1.188826E-17
7.620000E+03	3.461609E-16	1.225972E-17
7.630000E+03	3.501090E-16	1.257379E-17
7.640000E+03	3.554807E-16	1.283557E-17
7.650000E+03	3.622060E-16	1.305414E-17
7.660000E+03	3.701198E-16	1.323962E-17
7.670000E+03	3.790350E-16	1.340596E-17
7.680000E+03	3.886871E-16	1.356822E-17
7.690000E+03	3.987325E-16	1.374032E-17
7.700000E+03	4.088155E-16	1.393389E-17
7.710000E+03	4.185048E-16	1.415154E-17
7.720000E+03	4.274361E-16	1.438745E-17
7.730000E+03	4.352979E-16	1.462573E-17
7.740000E+03	4.418507E-16	1.484557E-17
7.750000E+03	4.469760E-16	1.503022E-17
7.760000E+03	4.506435E-16	1.517179E-17
