#wls	flux	fluxerr
1.600000E+03	8.902610E-18	8.273856E-18
1.640000E+03	9.008352E-18	8.342967E-18
1.680000E+03	9.121766E-18	8.418047E-18
1.720000E+03	9.249254E-18	8.504876E-18
1.760000E+03	9.388331E-18	8.600988E-18
1.800000E+03	9.539450E-18	8.706610E-18
1.840000E+03	9.703040E-18	8.821915E-18
1.880000E+03	9.879503E-18	8.947018E-18
1.920000E+03	1.006921E-17	9.081968E-18
1.960000E+03	1.027554E-17	9.229470E-18
2.000000E+03	1.049582E-17	9.386716E-18
2.040000E+03	1.073034E-17	9.553538E-18
2.080000E+03	1.097936E-17	9.729685E-18
2.120000E+03	1.124627E-17	9.917590E-18
2.160000E+03	1.152824E-17	1.011410E-17
2.200000E+03	1.182872E-17	1.032152E-17
2.240000E+03	1.214481E-17	1.053651E-17
2.280000E+03	1.248010E-17	1.076128E-17
2.320000E+03	1.283171E-17	1.099230E-17
2.360000E+03	1.320339E-17	1.123170E-17
2.400000E+03	1.359578E-17	1.147869E-17
2.440000E+03	1.400616E-17	1.172960E-17
2.480000E+03	1.444228E-17	1.198934E-17
2.520000E+03	1.489827E-17	1.225127E-17
2.560000E+03	1.538250E-17	1.252034E-17
2.600000E+03	1.588938E-17	1.278985E-17
2.640000E+03	1.642808E-17	1.306485E-17
2.680000E+03	1.699727E-17	1.334161E-17
2.720000E+03	1.760354E-17	1.362237E-17
2.760000E+03	1.824251E-17	1.390054E-17
2.800000E+03	1.892986E-17	1.418456E-17
2.840000E+03	1.965844E-17	1.446507E-17
2.880000E+03	2.044605E-17	1.475092E-17
2.920000E+03	2.129128E-17	1.503615E-17
2.960000E+03	2.220636E-17	1.532414E-17
3.000000E+03	2.320543E-17	1.561862E-17
3.010000E+03	2.346798E-17	1.569225E-17
3.020000E+03	2.373556E-17	1.576563E-17
3.030000E+03	2.400836E-17	1.583878E-17
3.040000E+03	2.429117E-17	1.591474E-17
3.050000E+03	2.457968E-17	1.599053E-17
3.060000E+03	2.487411E-17	1.606618E-17
3.070000E+03	2.517467E-17	1.614173E-17
3.080000E+03	2.548163E-17	1.621722E-17
3.090000E+03	2.579997E-17	1.629569E-17
3.100000E+03	2.612529E-17	1.637419E-17
3.110000E+03	2.645785E-17	1.645275E-17
3.120000E+03	2.679795E-17	1.653144E-17
3.130000E+03	2.714588E-17	1.661031E-17
3.140000E+03	2.750690E-17	1.669241E-17
3.150000E+03	2.787649E-17	1.677480E-17
3.160000E+03	2.825497E-17	1.685756E-17
3.170000E+03	2.864273E-17	1.694076E-17
3.180000E+03	2.904524E-17	1.702747E-17
3.190000E+03	2.945789E-17	1.711476E-17
3.200000E+03	2.988107E-17	1.720273E-17
3.210000E+03	3.031523E-17	1.729147E-17
3.220000E+03	3.076081E-17	1.738106E-17
3.230000E+03	3.122365E-17	1.747462E-17
3.240000E+03	3.169899E-17	1.756924E-17
3.250000E+03	3.218734E-17	1.766505E-17
3.260000E+03	3.268924E-17	1.776216E-17
3.270000E+03	3.321085E-17	1.786370E-17
3.280000E+03	3.374163E-17	1.796379E-17
3.290000E+03	3.429344E-17	1.806858E-17
3.300000E+03	3.486711E-17	1.817823E-17
3.310000E+03	3.545183E-17	1.828686E-17
3.320000E+03	3.605993E-17	1.840066E-17
3.330000E+03	3.668636E-17	1.851678E-17
3.340000E+03	3.733188E-17	1.863539E-17
3.350000E+03	3.800343E-17	1.875971E-17
3.360000E+03	3.868965E-17	1.888385E-17
3.370000E+03	3.940376E-17	1.901408E-17
3.380000E+03	4.014052E-17	1.914755E-17
3.390000E+03	4.090733E-17	1.928751E-17
3.400000E+03	4.169888E-17	1.943114E-17
3.410000E+03	4.251619E-17	1.957863E-17
3.420000E+03	4.336031E-17	1.973020E-17
3.430000E+03	4.423231E-17	1.988604E-17
3.440000E+03	4.514027E-17	2.004944E-17
3.450000E+03	4.607861E-17	2.021753E-17
3.460000E+03	4.704850E-17	2.039051E-17
3.470000E+03	4.805845E-17	2.057165E-17
3.480000E+03	4.909527E-17	2.075492E-17
3.490000E+03	5.017491E-17	2.094668E-17
3.500000E+03	5.129903E-17	2.114712E-17
3.510000E+03	5.245379E-17	2.135001E-17
3.520000E+03	5.365592E-17	2.156176E-17
3.530000E+03	5.489913E-17	2.177921E-17
3.540000E+03	5.618472E-17	2.200236E-17
3.550000E+03	5.752234E-17	2.223433E-17
3.560000E+03	5.890523E-17	2.247181E-17
3.570000E+03	6.033462E-17	2.271456E-17
3.580000E+03	6.182053E-17	2.296558E-17
3.590000E+03	6.334657E-17	2.321795E-17
3.600000E+03	6.493156E-17	2.347773E-17
3.610000E+03	6.656756E-17	2.374105E-17
3.620000E+03	6.826482E-17	2.401051E-17
3.630000E+03	7.001479E-17	2.428194E-17
3.640000E+03	7.181788E-17	2.455437E-17
3.650000E+03	7.367436E-17	2.482667E-17
3.660000E+03	7.559462E-17	2.510104E-17
3.670000E+03	7.756861E-17	2.537275E-17
3.680000E+03	7.959600E-17	2.564031E-17
3.690000E+03	8.167620E-17	2.590213E-17
3.700000E+03	8.381958E-17	2.616000E-17
3.710000E+03	8.601429E-17	2.640864E-17
3.720000E+03	8.825896E-17	2.664614E-17
3.730000E+03	9.056378E-17	2.687405E-17
3.740000E+03	9.291533E-17	2.708678E-17
3.750000E+03	9.531127E-17	2.728221E-17
3.760000E+03	9.774888E-17	2.745820E-17
3.770000E+03	1.002379E-16	2.761611E-17
3.780000E+03	1.027626E-16	2.775024E-17
3.790000E+03	1.053189E-16	2.785848E-17
3.800000E+03	1.079026E-16	2.793878E-17
3.810000E+03	1.105228E-16	2.799271E-17
3.820000E+03	1.131608E-16	2.801496E-17
3.830000E+03	1.158254E-16	2.800739E-17
3.840000E+03	1.184818E-16	2.796166E-17
3.850000E+03	1.211525E-16	2.788364E-17
3.860000E+03	1.238158E-16	2.776908E-17
3.870000E+03	1.264796E-16	2.762101E-17
3.880000E+03	1.291209E-16	2.743609E-17
3.890000E+03	1.317311E-16	2.721490E-17
3.900000E+03	1.343012E-16	2.695860E-17
3.910000E+03	1.368383E-16	2.667208E-17
3.920000E+03	1.393003E-16	2.635131E-17
3.930000E+03	1.417267E-16	2.600860E-17
3.940000E+03	1.440581E-16	2.563823E-17
3.950000E+03	1.463179E-16	2.525044E-17
3.960000E+03	1.484796E-16	2.484688E-17
3.970000E+03	1.505335E-16	2.443263E-17
3.980000E+03	1.524707E-16	2.401305E-17
3.990000E+03	1.543005E-16	2.359619E-17
4.000000E+03	1.559985E-16	2.318450E-17
4.010000E+03	1.575761E-16	2.278546E-17
4.020000E+03	1.589934E-16	2.239833E-17
4.030000E+03	1.602820E-16	2.203199E-17
4.040000E+03	1.614219E-16	2.168702E-17
4.050000E+03	1.624120E-16	2.136583E-17
4.060000E+03	1.632701E-16	2.107238E-17
4.070000E+03	1.639801E-16	2.080529E-17
4.080000E+03	1.645451E-16	2.056490E-17
4.090000E+03	1.649699E-16	2.035102E-17
4.100000E+03	1.652794E-16	2.016510E-17
4.110000E+03	1.654652E-16	2.000384E-17
4.120000E+03	1.655390E-16	1.986586E-17
4.130000E+03	1.655325E-16	1.975161E-17
4.140000E+03	1.654273E-16	1.965519E-17
4.150000E+03	1.652761E-16	1.957890E-17
4.160000E+03	1.650813E-16	1.951889E-17
4.170000E+03	1.648802E-16	1.947546E-17
4.180000E+03	1.646595E-16	1.944309E-17
4.190000E+03	1.644734E-16	1.942441E-17
4.200000E+03	1.643246E-16	1.941635E-17
4.210000E+03	1.642319E-16	1.941803E-17
4.220000E+03	1.642290E-16	1.943072E-17
4.230000E+03	1.643156E-16	1.945202E-17
4.240000E+03	1.645060E-16	1.948162E-17
4.250000E+03	1.648132E-16	1.951935E-17
4.260000E+03	1.652486E-16	1.956513E-17
4.270000E+03	1.658379E-16	1.962083E-17
4.280000E+03	1.665732E-16	1.968453E-17
4.290000E+03	1.674613E-16	1.975624E-17
4.300000E+03	1.685072E-16	1.983592E-17
4.310000E+03	1.697311E-16	1.992544E-17
4.320000E+03	1.711037E-16	2.002094E-17
4.330000E+03	1.726595E-16	2.012614E-17
4.340000E+03	1.743840E-16	2.023913E-17
4.350000E+03	1.762792E-16	2.035990E-17
4.360000E+03	1.783634E-16	2.049041E-17
4.370000E+03	1.806068E-16	2.062704E-17
4.380000E+03	1.830462E-16	2.077381E-17
4.390000E+03	1.856700E-16	2.092919E-17
4.400000E+03	1.884848E-16	2.109365E-17
4.410000E+03	1.914984E-16	2.126778E-17
4.420000E+03	1.947372E-16	2.145423E-17
4.430000E+03	1.981769E-16	2.165009E-17
4.440000E+03	2.018633E-16	2.186029E-17
4.450000E+03	2.057904E-16	2.208413E-17
4.460000E+03	2.099692E-16	2.232299E-17
4.470000E+03	2.144097E-16	2.257827E-17
4.480000E+03	2.191388E-16	2.285327E-17
4.490000E+03	2.241236E-16	2.314516E-17
4.500000E+03	2.294029E-16	2.345870E-17
4.510000E+03	2.349320E-16	2.379011E-17
4.520000E+03	2.407379E-16	2.414309E-17
4.530000E+03	2.467800E-16	2.451463E-17
4.540000E+03	2.530284E-16	2.490310E-17
4.550000E+03	2.594445E-16	2.530635E-17
4.560000E+03	2.659816E-16	2.572188E-17
4.570000E+03	2.726088E-16	2.614922E-17
4.580000E+03	2.792236E-16	2.658151E-17
4.590000E+03	2.858117E-16	2.702082E-17
4.600000E+03	2.922684E-16	2.746098E-17
4.610000E+03	2.985863E-16	2.790525E-17
4.620000E+03	3.046949E-16	2.835089E-17
4.630000E+03	3.105561E-16	2.879801E-17
4.640000E+03	3.161427E-16	2.924724E-17
4.650000E+03	3.214391E-16	2.969970E-17
4.660000E+03	3.264411E-16	3.015676E-17
4.670000E+03	3.311551E-16	3.061999E-17
4.680000E+03	3.355971E-16	3.109099E-17
4.690000E+03	3.397911E-16	3.157126E-17
4.700000E+03	3.437671E-16	3.206208E-17
4.710000E+03	3.475596E-16	3.256428E-17
4.720000E+03	3.512327E-16	3.308065E-17
4.730000E+03	3.547707E-16	3.360554E-17
4.740000E+03	3.582374E-16	3.413988E-17
4.750000E+03	3.616679E-16	3.468098E-17
4.760000E+03	3.651203E-16	3.522769E-17
4.770000E+03	3.685654E-16	3.576980E-17
4.780000E+03	3.720497E-16	3.630397E-17
4.790000E+03	3.755854E-16	3.682336E-17
4.800000E+03	3.792047E-16	3.732325E-17
4.810000E+03	3.828483E-16	3.779033E-17
4.820000E+03	3.865331E-16	3.821961E-17
4.830000E+03	3.902408E-16	3.860381E-17
4.840000E+03	3.939476E-16	3.893656E-17
4.850000E+03	3.976242E-16	3.921279E-17
4.860000E+03	4.012385E-16	3.942905E-17
4.870000E+03	4.047559E-16	3.958378E-17
4.880000E+03	4.081417E-16	3.967747E-17
4.890000E+03	4.113620E-16	3.971259E-17
4.900000E+03	4.143853E-16	3.969349E-17
4.910000E+03	4.171534E-16	3.962319E-17
4.920000E+03	4.197002E-16	3.951409E-17
4.930000E+03	4.219456E-16	3.936772E-17
4.940000E+03	4.239309E-16	3.919627E-17
4.950000E+03	4.255828E-16	3.899987E-17
4.960000E+03	4.269189E-16	3.878532E-17
4.970000E+03	4.279294E-16	3.855498E-17
4.980000E+03	4.286060E-16	3.830966E-17
4.990000E+03	4.289417E-16	3.804915E-17
5.000000E+03	4.289315E-16	3.777281E-17
5.010000E+03	4.285446E-16	3.747770E-17
5.020000E+03	4.278418E-16	3.716917E-17
5.030000E+03	4.267760E-16	3.684347E-17
5.040000E+03	4.253962E-16	3.650543E-17
5.050000E+03	4.237356E-16	3.615819E-17
5.060000E+03	4.218411E-16	3.580542E-17
5.070000E+03	4.197468E-16	3.544863E-17
5.080000E+03	4.175834E-16	3.509620E-17
5.090000E+03	4.153813E-16	3.474677E-17
5.100000E+03	4.132599E-16	3.440544E-17
5.110000E+03	4.113111E-16	3.407447E-17
5.120000E+03	4.096221E-16	3.375567E-17
5.130000E+03	4.082438E-16	3.344834E-17
5.140000E+03	4.072913E-16	3.315790E-17
5.150000E+03	4.067566E-16	3.288073E-17
5.160000E+03	4.066898E-16	3.261910E-17
5.170000E+03	4.070675E-16	3.237029E-17
5.180000E+03	4.079228E-16	3.213681E-17
5.190000E+03	4.091653E-16	3.191183E-17
5.200000E+03	4.107656E-16	3.169341E-17
5.210000E+03	4.126555E-16	3.147634E-17
5.220000E+03	4.147320E-16	3.125221E-17
5.230000E+03	4.169658E-16	3.101742E-17
5.240000E+03	4.192241E-16	3.075975E-17
5.250000E+03	4.214291E-16	3.047042E-17
5.260000E+03	4.235620E-16	3.014431E-17
5.270000E+03	4.255087E-16	2.976920E-17
5.280000E+03	4.272434E-16	2.933949E-17
5.290000E+03	4.287263E-16	2.884907E-17
5.300000E+03	4.299036E-16	2.829190E-17
5.310000E+03	4.307871E-16	2.766729E-17
5.320000E+03	4.313762E-16	2.697448E-17
5.330000E+03	4.316838E-16	2.621409E-17
5.340000E+03	4.317096E-16	2.538602E-17
5.350000E+03	4.315168E-16	2.449352E-17
5.360000E+03	4.311254E-16	2.353635E-17
5.370000E+03	4.306117E-16	2.251621E-17
5.380000E+03	4.300265E-16	2.143198E-17
5.390000E+03	4.294156E-16	2.028113E-17
5.400000E+03	4.287905E-16	1.905901E-17
5.410000E+03	4.282006E-16	1.776336E-17
5.420000E+03	4.276555E-16	1.639257E-17
5.430000E+03	4.271259E-16	1.494948E-17
5.440000E+03	4.266214E-16	1.344980E-17
5.450000E+03	4.261192E-16	1.192855E-17
5.460000E+03	4.255701E-16	1.045623E-17
5.470000E+03	4.249764E-16	9.163950E-18
5.480000E+03	4.242953E-16	8.257981E-18
5.490000E+03	4.235272E-16	7.972272E-18
5.500000E+03	4.226176E-16	8.397578E-18
5.510000E+03	4.214698E-16	9.384139E-18
5.520000E+03	4.199497E-16	1.068390E-17
5.530000E+03	4.179656E-16	1.209806E-17
5.540000E+03	4.155050E-16	1.350438E-17
5.550000E+03	4.124734E-16	1.483104E-17
5.560000E+03	4.089537E-16	1.604413E-17
5.570000E+03	4.049442E-16	1.712605E-17
5.580000E+03	4.005396E-16	1.807444E-17
5.590000E+03	3.958083E-16	1.889309E-17
5.600000E+03	3.908734E-16	1.959269E-17
5.610000E+03	3.858150E-16	2.018444E-17
5.620000E+03	3.807496E-16	2.068269E-17
5.630000E+03	3.757581E-16	2.110044E-17
5.640000E+03	3.708837E-16	2.144857E-17
5.650000E+03	3.661928E-16	2.173900E-17
5.660000E+03	3.616947E-16	2.198002E-17
5.670000E+03	3.574271E-16	2.218135E-17
5.680000E+03	3.534025E-16	2.235098E-17
5.690000E+03	3.496169E-16	2.249563E-17
5.700000E+03	3.460977E-16	2.262369E-17
5.710000E+03	3.429277E-16	2.274687E-17
5.720000E+03	3.401202E-16	2.287175E-17
5.730000E+03	3.378268E-16	2.301344E-17
5.740000E+03	3.361329E-16	2.318181E-17
5.750000E+03	3.351827E-16	2.338975E-17
5.760000E+03	3.351532E-16	2.365149E-17
5.770000E+03	3.361903E-16	2.397807E-17
5.780000E+03	3.384706E-16	2.438165E-17
5.790000E+03	3.421363E-16	2.487093E-17
5.800000E+03	3.472844E-16	2.545026E-17
5.810000E+03	3.540118E-16	2.612301E-17
5.820000E+03	3.623328E-16	2.688565E-17
5.830000E+03	3.722452E-16	2.773296E-17
5.840000E+03	3.836454E-16	2.865217E-17
5.850000E+03	3.963985E-16	2.962875E-17
5.860000E+03	4.102501E-16	3.064053E-17
5.870000E+03	4.249047E-16	3.166430E-17
5.880000E+03	4.399399E-16	3.267008E-17
5.890000E+03	4.549030E-16	3.362871E-17
5.900000E+03	4.692626E-16	3.450832E-17
5.910000E+03	4.824353E-16	3.527592E-17
5.920000E+03	4.938743E-16	3.590309E-17
5.930000E+03	5.031202E-16	3.636827E-17
5.940000E+03	5.097692E-16	3.665312E-17
5.950000E+03	5.136149E-16	3.675138E-17
5.960000E+03	5.145915E-16	3.666399E-17
5.970000E+03	5.127742E-16	3.639880E-17
5.980000E+03	5.084156E-16	3.597341E-17
5.990000E+03	5.019109E-16	3.541343E-17
6.000000E+03	4.937037E-16	3.474659E-17
6.010000E+03	4.842455E-16	3.400066E-17
6.020000E+03	4.740352E-16	3.320681E-17
6.030000E+03	4.634897E-16	3.239076E-17
6.040000E+03	4.530011E-16	3.157686E-17
6.050000E+03	4.429237E-16	3.078723E-17
6.060000E+03	4.335247E-16	3.003827E-17
6.070000E+03	4.249885E-16	2.934106E-17
6.080000E+03	4.174663E-16	2.870494E-17
6.090000E+03	4.110792E-16	2.813773E-17
6.100000E+03	4.058806E-16	2.764329E-17
6.110000E+03	4.018633E-16	2.722202E-17
6.120000E+03	3.990252E-16	2.687538E-17
6.130000E+03	3.972915E-16	2.660046E-17
6.140000E+03	3.965803E-16	2.639432E-17
6.150000E+03	3.968068E-16	2.625392E-17
6.160000E+03	3.978489E-16	2.617347E-17
6.170000E+03	3.995529E-16	2.614441E-17
6.180000E+03	4.018010E-16	2.615948E-17
6.190000E+03	4.044364E-16	2.620741E-17
6.200000E+03	4.073298E-16	2.627714E-17
6.210000E+03	4.103832E-16	2.635835E-17
6.220000E+03	4.134898E-16	2.643953E-17
6.230000E+03	4.165324E-16	2.650868E-17
6.240000E+03	4.194452E-16	2.655776E-17
6.250000E+03	4.221279E-16	2.657744E-17
6.260000E+03	4.245291E-16	2.656231E-17
6.270000E+03	4.265614E-16	2.650520E-17
6.280000E+03	4.281659E-16	2.640093E-17
6.290000E+03	4.293146E-16	2.624622E-17
6.300000E+03	4.299703E-16	2.603722E-17
6.310000E+03	4.300908E-16	2.576993E-17
6.320000E+03	4.296970E-16	2.544463E-17
6.330000E+03	4.287910E-16	2.506091E-17
6.340000E+03	4.274458E-16	2.462295E-17
6.350000E+03	4.257215E-16	2.413410E-17
6.360000E+03	4.237528E-16	2.360127E-17
6.370000E+03	4.216633E-16	2.302932E-17
6.380000E+03	4.196483E-16	2.242504E-17
6.390000E+03	4.178867E-16	2.179186E-17
6.400000E+03	4.166203E-16	2.113388E-17
6.410000E+03	4.160634E-16	2.045114E-17
6.420000E+03	4.164804E-16	1.974368E-17
6.430000E+03	4.181171E-16	1.900825E-17
6.440000E+03	4.211740E-16	1.823783E-17
6.450000E+03	4.259486E-16	1.742890E-17
6.460000E+03	4.326219E-16	1.657395E-17
6.470000E+03	4.414028E-16	1.567182E-17
6.480000E+03	4.525061E-16	1.473349E-17
6.490000E+03	4.661073E-16	1.379264E-17
6.500000E+03	4.823342E-16	1.292525E-17
6.510000E+03	5.013263E-16	1.227576E-17
6.520000E+03	5.231089E-16	1.206232E-17
6.530000E+03	5.476128E-16	1.251971E-17
6.540000E+03	5.744284E-16	1.375889E-17
6.550000E+03	6.028326E-16	1.570045E-17
6.560000E+03	6.317338E-16	1.815219E-17
6.570000E+03	6.598797E-16	2.090610E-17
6.580000E+03	6.858564E-16	2.377217E-17
6.590000E+03	7.081915E-16	2.658234E-17
6.600000E+03	7.255922E-16	2.919387E-17
6.610000E+03	7.369492E-16	3.148692E-17
6.620000E+03	7.415675E-16	3.337323E-17
6.630000E+03	7.392881E-16	3.480272E-17
6.640000E+03	7.302844E-16	3.575483E-17
6.650000E+03	7.152395E-16	3.624607E-17
6.660000E+03	6.952067E-16	3.632271E-17
6.670000E+03	6.714022E-16	3.604874E-17
6.680000E+03	6.450709E-16	3.549660E-17
6.690000E+03	6.174634E-16	3.474415E-17
6.700000E+03	5.896150E-16	3.386084E-17
6.710000E+03	5.624210E-16	3.291036E-17
6.720000E+03	5.365275E-16	3.194324E-17
6.730000E+03	5.123505E-16	3.099679E-17
6.740000E+03	4.901586E-16	3.009926E-17
6.750000E+03	4.701271E-16	2.927268E-17
6.760000E+03	4.522274E-16	2.852561E-17
6.770000E+03	4.364079E-16	2.786394E-17
6.780000E+03	4.225890E-16	2.729049E-17
6.790000E+03	4.106375E-16	2.680330E-17
6.800000E+03	4.003844E-16	2.639665E-17
6.810000E+03	3.916954E-16	2.606587E-17
6.820000E+03	3.844161E-16	2.580400E-17
6.830000E+03	3.783788E-16	2.560255E-17
6.840000E+03	3.734637E-16	2.545592E-17
6.850000E+03	3.695248E-16	2.535676E-17
6.860000E+03	3.664673E-16	2.530145E-17
6.870000E+03	3.641921E-16	2.528638E-17
6.880000E+03	3.625975E-16	2.530788E-17
6.890000E+03	3.616341E-16	2.536571E-17
6.900000E+03	3.612489E-16	2.545877E-17
6.910000E+03	3.613845E-16	2.558460E-17
6.920000E+03	3.620313E-16	2.574279E-17
6.930000E+03	3.631695E-16	2.593098E-17
6.940000E+03	3.647655E-16	2.614475E-17
6.950000E+03	3.668228E-16	2.638174E-17
6.960000E+03	3.693037E-16	2.663652E-17
6.970000E+03	3.722002E-16	2.690607E-17
6.980000E+03	3.754742E-16	2.718585E-17
6.990000E+03	3.790735E-16	2.747116E-17
7.000000E+03	3.829104E-16	2.775564E-17
7.010000E+03	3.868995E-16	2.803407E-17
7.020000E+03	3.909800E-16	2.830387E-17
7.030000E+03	3.949988E-16	2.855656E-17
7.040000E+03	3.988549E-16	2.878802E-17
7.050000E+03	4.024063E-16	2.899143E-17
7.060000E+03	4.055808E-16	2.916504E-17
7.070000E+03	4.082210E-16	2.930054E-17
7.080000E+03	4.103233E-16	2.939992E-17
7.090000E+03	4.118167E-16	2.945923E-17
7.100000E+03	4.127371E-16	2.948100E-17
7.110000E+03	4.131451E-16	2.946834E-17
7.120000E+03	4.131238E-16	2.942506E-17
7.130000E+03	4.128366E-16	2.936019E-17
7.140000E+03	4.124537E-16	2.928305E-17
7.150000E+03	4.121404E-16	2.920273E-17
7.160000E+03	4.121087E-16	2.913197E-17
7.170000E+03	4.125410E-16	2.908167E-17
7.180000E+03	4.136006E-16	2.906145E-17
7.190000E+03	4.154007E-16	2.907721E-17
7.200000E+03	4.180611E-16	2.913484E-17
7.210000E+03	4.216379E-16	2.923503E-17
7.220000E+03	4.261168E-16	2.937274E-17
7.230000E+03	4.314996E-16	2.954318E-17
7.240000E+03	4.376209E-16	2.972949E-17
7.250000E+03	4.443971E-16	2.992018E-17
7.260000E+03	4.515998E-16	3.009425E-17
7.270000E+03	4.589498E-16	3.022830E-17
7.280000E+03	4.661503E-16	3.029931E-17
7.290000E+03	4.729266E-16	3.028764E-17
7.300000E+03	4.788958E-16	3.016875E-17
7.310000E+03	4.837878E-16	2.992737E-17
7.320000E+03	4.872418E-16	2.954427E-17
7.330000E+03	4.891124E-16	2.901466E-17
7.340000E+03	4.892049E-16	2.833133E-17
7.350000E+03	4.874940E-16	2.749730E-17
7.360000E+03	4.840208E-16	2.651912E-17
7.370000E+03	4.789109E-16	2.540755E-17
7.380000E+03	4.723316E-16	2.417494E-17
7.390000E+03	4.645468E-16	2.283771E-17
7.400000E+03	4.558159E-16	2.141079E-17
7.410000E+03	4.463973E-16	1.990797E-17
7.420000E+03	4.365311E-16	1.834159E-17
7.430000E+03	4.264038E-16	1.672217E-17
7.440000E+03	4.162130E-16	1.506299E-17
7.450000E+03	4.060955E-16	1.338011E-17
7.460000E+03	3.961324E-16	1.169798E-17
7.470000E+03	3.864413E-16	1.006087E-17
7.480000E+03	3.770303E-16	8.543350E-18
7.490000E+03	3.679554E-16	7.276362E-18
7.500000E+03	3.592248E-16	6.453055E-18
7.510000E+03	3.509192E-16	6.253693E-18
7.520000E+03	3.430813E-16	6.669903E-18
7.530000E+03	3.358523E-16	7.496307E-18
7.540000E+03	3.293616E-16	8.512972E-18
7.550000E+03	3.237232E-16	9.580965E-18
7.560000E+03	3.190292E-16	1.063087E-17
7.570000E+03	3.153317E-16	1.163277E-17
7.580000E+03	3.126966E-16	1.257846E-17
7.590000E+03	3.111522E-16	1.346905E-17
7.600000E+03	3.107083E-16	1.431004E-17
7.610000E+03	3.113396E-16	1.510773E-17
7.620000E+03	3.130548E-16	1.587121E-17
7.630000E+03	3.157737E-16	1.660571E-17
7.640000E+03	3.194468E-16	1.731816E-17
7.650000E+03	3.239833E-16	1.801337E-17
7.660000E+03	3.292665E-16	1.869453E-17
7.670000E+03	3.351335E-16	1.936175E-17
7.680000E+03	3.414332E-16	2.001487E-17
7.690000E+03	3.479945E-16	2.065127E-17
7.700000E+03	3.545736E-16	2.126223E-17
7.710000E+03	3.609613E-16	2.183882E-17
7.720000E+03	3.670002E-16	2.237307E-17
7.730000E+03	3.724933E-16	2.285272E-17
7.740000E+03	3.772742E-16	2.326613E-17
7.750000E+03	3.812591E-16	2.360623E-17
7.760000E+03	3.843863E-16	2.386766E-17
