#wls	flux	fluxerr
1.600000E+03	9.551683E-18	8.817975E-18
1.640000E+03	9.669042E-18	8.892758E-18
1.680000E+03	9.798205E-18	8.977136E-18
1.720000E+03	9.939751E-18	9.071488E-18
1.760000E+03	1.009423E-17	9.176144E-18
1.800000E+03	1.026529E-17	9.294195E-18
1.840000E+03	1.044722E-17	9.420223E-18
1.880000E+03	1.064670E-17	9.559996E-18
1.920000E+03	1.086421E-17	9.713582E-18
1.960000E+03	1.109385E-17	9.875327E-18
2.000000E+03	1.134230E-17	1.005076E-17
2.040000E+03	1.160991E-17	1.023969E-17
2.080000E+03	1.189381E-17	1.043898E-17
2.120000E+03	1.219422E-17	1.064823E-17
2.160000E+03	1.251799E-17	1.087266E-17
2.200000E+03	1.285547E-17	1.110306E-17
2.240000E+03	1.321693E-17	1.134739E-17
2.280000E+03	1.359596E-17	1.159907E-17
2.320000E+03	1.399978E-17	1.186310E-17
2.360000E+03	1.442191E-17	1.213264E-17
2.400000E+03	1.486635E-17	1.240961E-17
2.440000E+03	1.533374E-17	1.269293E-17
2.480000E+03	1.582858E-17	1.298447E-17
2.520000E+03	1.634457E-17	1.327702E-17
2.560000E+03	1.689035E-17	1.357541E-17
2.600000E+03	1.746762E-17	1.387843E-17
2.640000E+03	1.807447E-17	1.418179E-17
2.680000E+03	1.871713E-17	1.448732E-17
2.720000E+03	1.939445E-17	1.479075E-17
2.760000E+03	2.011793E-17	1.509708E-17
2.800000E+03	2.088355E-17	1.539907E-17
2.840000E+03	2.170455E-17	1.570194E-17
2.880000E+03	2.258275E-17	1.600180E-17
2.920000E+03	2.352518E-17	1.629802E-17
2.960000E+03	2.454483E-17	1.659335E-17
3.000000E+03	2.564740E-17	1.688468E-17
3.010000E+03	2.594103E-17	1.695932E-17
3.020000E+03	2.623523E-17	1.703010E-17
3.030000E+03	2.653961E-17	1.710317E-17
3.040000E+03	2.684971E-17	1.717547E-17
3.050000E+03	2.717055E-17	1.725009E-17
3.060000E+03	2.749277E-17	1.732093E-17
3.070000E+03	2.782628E-17	1.739413E-17
3.080000E+03	2.817142E-17	1.746969E-17
3.090000E+03	2.851869E-17	1.754157E-17
3.100000E+03	2.887821E-17	1.761587E-17
3.110000E+03	2.924538E-17	1.768960E-17
3.120000E+03	2.962049E-17	1.776279E-17
3.130000E+03	3.000388E-17	1.783549E-17
3.140000E+03	3.040101E-17	1.791078E-17
3.150000E+03	3.080719E-17	1.798567E-17
3.160000E+03	3.122277E-17	1.806023E-17
3.170000E+03	3.165342E-17	1.813752E-17
3.180000E+03	3.209436E-17	1.821460E-17
3.190000E+03	3.254603E-17	1.829154E-17
3.200000E+03	3.300886E-17	1.836842E-17
3.210000E+03	3.348877E-17	1.844833E-17
3.220000E+03	3.398090E-17	1.852835E-17
3.230000E+03	3.448576E-17	1.860857E-17
3.240000E+03	3.500948E-17	1.869209E-17
3.250000E+03	3.554715E-17	1.877603E-17
3.260000E+03	3.609934E-17	1.886051E-17
3.270000E+03	3.666667E-17	1.894566E-17
3.280000E+03	3.725561E-17	1.903459E-17
3.290000E+03	3.786114E-17	1.912447E-17
3.300000E+03	3.848396E-17	1.921544E-17
3.310000E+03	3.913082E-17	1.931065E-17
3.320000E+03	3.979661E-17	1.940729E-17
3.330000E+03	4.048216E-17	1.950555E-17
3.340000E+03	4.119452E-17	1.960859E-17
3.350000E+03	4.192851E-17	1.971365E-17
3.360000E+03	4.268506E-17	1.982094E-17
3.370000E+03	4.346514E-17	1.993070E-17
3.380000E+03	4.427628E-17	2.004611E-17
3.390000E+03	4.511981E-17	2.016743E-17
3.400000E+03	4.598365E-17	2.028898E-17
3.410000E+03	4.688230E-17	2.041697E-17
3.420000E+03	4.781033E-17	2.054869E-17
3.430000E+03	4.877598E-17	2.068739E-17
3.440000E+03	4.976664E-17	2.082743E-17
3.450000E+03	5.080494E-17	2.097798E-17
3.460000E+03	5.187097E-17	2.113043E-17
3.470000E+03	5.298068E-17	2.129100E-17
3.480000E+03	5.412833E-17	2.145698E-17
3.490000E+03	5.532309E-17	2.163162E-17
3.500000E+03	5.655907E-17	2.181218E-17
3.510000E+03	5.783786E-17	2.199885E-17
3.520000E+03	5.916909E-17	2.219485E-17
3.530000E+03	6.054658E-17	2.239729E-17
3.540000E+03	6.197193E-17	2.260627E-17
3.550000E+03	6.345522E-17	2.282485E-17
3.560000E+03	6.498984E-17	2.304997E-17
3.570000E+03	6.657731E-17	2.328149E-17
3.580000E+03	6.822805E-17	2.352227E-17
3.590000E+03	6.993479E-17	2.376891E-17
3.600000E+03	7.169880E-17	2.402092E-17
3.610000E+03	7.353060E-17	2.428079E-17
3.620000E+03	7.542198E-17	2.454463E-17
3.630000E+03	7.738350E-17	2.481463E-17
3.640000E+03	7.940621E-17	2.508654E-17
3.650000E+03	8.149042E-17	2.535907E-17
3.660000E+03	8.364668E-17	2.563398E-17
3.670000E+03	8.586480E-17	2.590650E-17
3.680000E+03	8.815526E-17	2.617808E-17
3.690000E+03	9.050695E-17	2.644360E-17
3.700000E+03	9.291891E-17	2.670099E-17
3.710000E+03	9.538987E-17	2.694803E-17
3.720000E+03	9.793003E-17	2.718564E-17
3.730000E+03	1.005382E-16	2.741140E-17
3.740000E+03	1.031881E-16	2.761615E-17
3.750000E+03	1.059140E-16	2.780710E-17
3.760000E+03	1.086759E-16	2.797167E-17
3.770000E+03	1.114956E-16	2.811365E-17
3.780000E+03	1.143566E-16	2.822696E-17
3.790000E+03	1.172680E-16	2.831213E-17
3.800000E+03	1.202117E-16	2.836314E-17
3.810000E+03	1.231965E-16	2.838063E-17
3.820000E+03	1.261886E-16	2.835564E-17
3.830000E+03	1.292242E-16	2.829552E-17
3.840000E+03	1.322536E-16	2.818863E-17
3.850000E+03	1.352985E-16	2.803959E-17
3.860000E+03	1.383515E-16	2.784696E-17
3.870000E+03	1.413735E-16	2.760368E-17
3.880000E+03	1.444019E-16	2.731850E-17
3.890000E+03	1.473803E-16	2.698259E-17
3.900000E+03	1.503301E-16	2.660283E-17
3.910000E+03	1.532245E-16	2.617801E-17
3.920000E+03	1.560689E-16	2.571350E-17
3.930000E+03	1.588351E-16	2.521006E-17
3.940000E+03	1.615280E-16	2.467488E-17
3.950000E+03	1.641183E-16	2.411094E-17
3.960000E+03	1.665933E-16	2.352497E-17
3.970000E+03	1.689405E-16	2.292466E-17
3.980000E+03	1.711653E-16	2.232071E-17
3.990000E+03	1.732571E-16	2.172159E-17
4.000000E+03	1.751894E-16	2.113346E-17
4.010000E+03	1.769550E-16	2.056417E-17
4.020000E+03	1.785493E-16	2.002063E-17
4.030000E+03	1.799871E-16	1.951062E-17
4.040000E+03	1.812488E-16	1.903680E-17
4.050000E+03	1.823512E-16	1.860460E-17
4.060000E+03	1.832758E-16	1.821461E-17
4.070000E+03	1.840400E-16	1.786999E-17
4.080000E+03	1.846089E-16	1.756769E-17
4.090000E+03	1.850203E-16	1.731067E-17
4.100000E+03	1.852792E-16	1.709751E-17
4.110000E+03	1.853766E-16	1.692450E-17
4.120000E+03	1.853257E-16	1.678889E-17
4.130000E+03	1.851618E-16	1.668890E-17
4.140000E+03	1.848726E-16	1.661758E-17
4.150000E+03	1.845351E-16	1.657535E-17
4.160000E+03	1.841262E-16	1.655328E-17
4.170000E+03	1.837088E-16	1.655020E-17
4.180000E+03	1.833114E-16	1.656225E-17
4.190000E+03	1.829285E-16	1.658317E-17
4.200000E+03	1.826190E-16	1.661328E-17
4.210000E+03	1.824063E-16	1.665051E-17
4.220000E+03	1.822790E-16	1.669034E-17
4.230000E+03	1.822884E-16	1.673459E-17
4.240000E+03	1.824350E-16	1.678101E-17
4.250000E+03	1.827492E-16	1.683057E-17
4.260000E+03	1.832276E-16	1.688156E-17
4.270000E+03	1.838807E-16	1.693388E-17
4.280000E+03	1.847325E-16	1.698902E-17
4.290000E+03	1.857728E-16	1.704558E-17
4.300000E+03	1.870047E-16	1.710359E-17
4.310000E+03	1.884285E-16	1.716298E-17
4.320000E+03	1.900581E-16	1.722511E-17
4.330000E+03	1.918743E-16	1.728845E-17
4.340000E+03	1.938731E-16	1.735304E-17
4.350000E+03	1.960663E-16	1.742039E-17
4.360000E+03	1.984351E-16	1.748924E-17
4.370000E+03	2.009781E-16	1.755978E-17
4.380000E+03	2.036961E-16	1.763220E-17
4.390000E+03	2.066093E-16	1.770806E-17
4.400000E+03	2.097079E-16	1.778607E-17
4.410000E+03	2.130016E-16	1.786632E-17
4.420000E+03	2.165022E-16	1.794894E-17
4.430000E+03	2.202413E-16	1.803557E-17
4.440000E+03	2.242187E-16	1.812528E-17
4.450000E+03	2.284529E-16	1.821899E-17
4.460000E+03	2.329640E-16	1.831810E-17
4.470000E+03	2.377911E-16	1.842588E-17
4.480000E+03	2.429187E-16	1.854175E-17
4.490000E+03	2.484013E-16	1.867076E-17
4.500000E+03	2.542339E-16	1.881342E-17
4.510000E+03	2.604401E-16	1.897218E-17
4.520000E+03	2.669742E-16	1.914415E-17
4.530000E+03	2.738529E-16	1.933095E-17
4.540000E+03	2.810175E-16	1.952902E-17
4.550000E+03	2.884111E-16	1.973570E-17
4.560000E+03	2.959603E-16	1.994829E-17
4.570000E+03	3.035782E-16	2.016454E-17
4.580000E+03	3.111912E-16	2.038461E-17
4.590000E+03	3.186565E-16	2.060555E-17
4.600000E+03	3.259233E-16	2.083178E-17
4.610000E+03	3.328836E-16	2.106479E-17
4.620000E+03	3.394670E-16	2.130871E-17
4.630000E+03	3.456230E-16	2.156834E-17
4.640000E+03	3.513230E-16	2.184850E-17
4.650000E+03	3.565601E-16	2.215348E-17
4.660000E+03	3.613707E-16	2.248815E-17
4.670000E+03	3.657330E-16	2.285166E-17
4.680000E+03	3.697360E-16	2.324831E-17
4.690000E+03	3.734039E-16	2.367716E-17
4.700000E+03	3.767671E-16	2.413668E-17
4.710000E+03	3.799355E-16	2.462957E-17
4.720000E+03	3.829457E-16	2.515282E-17
4.730000E+03	3.858591E-16	2.570370E-17
4.740000E+03	3.887342E-16	2.627796E-17
4.750000E+03	3.915994E-16	2.686801E-17
4.760000E+03	3.945526E-16	2.746979E-17
4.770000E+03	3.976071E-16	2.807232E-17
4.780000E+03	4.007915E-16	2.866456E-17
4.790000E+03	4.041233E-16	2.923390E-17
4.800000E+03	4.076079E-16	2.976662E-17
4.810000E+03	4.112376E-16	3.024868E-17
4.820000E+03	4.149923E-16	3.066648E-17
4.830000E+03	4.188403E-16	3.100762E-17
4.840000E+03	4.227412E-16	3.126171E-17
4.850000E+03	4.266477E-16	3.142095E-17
4.860000E+03	4.304821E-16	3.147887E-17
4.870000E+03	4.342442E-16	3.143852E-17
4.880000E+03	4.378557E-16	3.130123E-17
4.890000E+03	4.412409E-16	3.107264E-17
4.900000E+03	4.444107E-16	3.076821E-17
4.910000E+03	4.472765E-16	3.039966E-17
4.920000E+03	4.498384E-16	2.998735E-17
4.930000E+03	4.520770E-16	2.955132E-17
4.940000E+03	4.539795E-16	2.911105E-17
4.950000E+03	4.555381E-16	2.868253E-17
4.960000E+03	4.567483E-16	2.827541E-17
4.970000E+03	4.576064E-16	2.789177E-17
4.980000E+03	4.580803E-16	2.752578E-17
4.990000E+03	4.581872E-16	2.717153E-17
5.000000E+03	4.579378E-16	2.682281E-17
5.010000E+03	4.572586E-16	2.647105E-17
5.020000E+03	4.561277E-16	2.611472E-17
5.030000E+03	4.545778E-16	2.575942E-17
5.040000E+03	4.525747E-16	2.540963E-17
5.050000E+03	4.501055E-16	2.507171E-17
5.060000E+03	4.472371E-16	2.475461E-17
5.070000E+03	4.440448E-16	2.446366E-17
5.080000E+03	4.406148E-16	2.419928E-17
5.090000E+03	4.371383E-16	2.396197E-17
5.100000E+03	4.337268E-16	2.374379E-17
5.110000E+03	4.305674E-16	2.353944E-17
5.120000E+03	4.277881E-16	2.334129E-17
5.130000E+03	4.255673E-16	2.314726E-17
5.140000E+03	4.239646E-16	2.295279E-17
5.150000E+03	4.230788E-16	2.275981E-17
5.160000E+03	4.229282E-16	2.256986E-17
5.170000E+03	4.235598E-16	2.238907E-17
5.180000E+03	4.248888E-16	2.221866E-17
5.190000E+03	4.268391E-16	2.206153E-17
5.200000E+03	4.293509E-16	2.192164E-17
5.210000E+03	4.322539E-16	2.179641E-17
5.220000E+03	4.354360E-16	2.168450E-17
5.230000E+03	4.387405E-16	2.157941E-17
5.240000E+03	4.420651E-16	2.147384E-17
5.250000E+03	4.452984E-16	2.135660E-17
5.260000E+03	4.483215E-16	2.121352E-17
5.270000E+03	4.510780E-16	2.103208E-17
5.280000E+03	4.535039E-16	2.079994E-17
5.290000E+03	4.555501E-16	2.050791E-17
5.300000E+03	4.571351E-16	2.014940E-17
5.310000E+03	4.583097E-16	1.972824E-17
5.320000E+03	4.590257E-16	1.924805E-17
5.330000E+03	4.593254E-16	1.871918E-17
5.340000E+03	4.592277E-16	1.815184E-17
5.350000E+03	4.588226E-16	1.755756E-17
5.360000E+03	4.582004E-16	1.694458E-17
5.370000E+03	4.574458E-16	1.631739E-17
5.380000E+03	4.566964E-16	1.567916E-17
5.390000E+03	4.560384E-16	1.502817E-17
5.400000E+03	4.555834E-16	1.436063E-17
5.410000E+03	4.553863E-16	1.366797E-17
5.420000E+03	4.554379E-16	1.293852E-17
5.430000E+03	4.557125E-16	1.216347E-17
5.440000E+03	4.561761E-16	1.134390E-17
5.450000E+03	4.567537E-16	1.049834E-17
5.460000E+03	4.573415E-16	9.673220E-18
5.470000E+03	4.578846E-16	8.954485E-18
5.480000E+03	4.582922E-16	8.466201E-18
5.490000E+03	4.585140E-16	8.337491E-18
5.500000E+03	4.584213E-16	8.616992E-18
5.510000E+03	4.578819E-16	9.228566E-18
5.520000E+03	4.567066E-16	1.003322E-17
5.530000E+03	4.547781E-16	1.090554E-17
5.540000E+03	4.519872E-16	1.175599E-17
5.550000E+03	4.483281E-16	1.253002E-17
5.560000E+03	4.438148E-16	1.319771E-17
5.570000E+03	4.385412E-16	1.374829E-17
5.580000E+03	4.326712E-16	1.418492E-17
5.590000E+03	4.263829E-16	1.451891E-17
5.600000E+03	4.198534E-16	1.476578E-17
5.610000E+03	4.132968E-16	1.494387E-17
5.620000E+03	4.068645E-16	1.506870E-17
5.630000E+03	4.006874E-16	1.515320E-17
5.640000E+03	3.948667E-16	1.520729E-17
5.650000E+03	3.894155E-16	1.523620E-17
5.660000E+03	3.843365E-16	1.524422E-17
5.670000E+03	3.795596E-16	1.523328E-17
5.680000E+03	3.750295E-16	1.520720E-17
5.690000E+03	3.706528E-16	1.516989E-17
5.700000E+03	3.663727E-16	1.512801E-17
5.710000E+03	3.621894E-16	1.509111E-17
5.720000E+03	3.581288E-16	1.506916E-17
5.730000E+03	3.543200E-16	1.507480E-17
5.740000E+03	3.509339E-16	1.511998E-17
5.750000E+03	3.482259E-16	1.521729E-17
5.760000E+03	3.465159E-16	1.537960E-17
5.770000E+03	3.461304E-16	1.561811E-17
5.780000E+03	3.473618E-16	1.594075E-17
5.790000E+03	3.505350E-16	1.635509E-17
5.800000E+03	3.558903E-16	1.686265E-17
5.810000E+03	3.635817E-16	1.745826E-17
5.820000E+03	3.737026E-16	1.813152E-17
5.830000E+03	3.862693E-16	1.886684E-17
5.840000E+03	4.012321E-16	1.964520E-17
5.850000E+03	4.184310E-16	2.044335E-17
5.860000E+03	4.375549E-16	2.123370E-17
5.870000E+03	4.582319E-16	2.199099E-17
5.880000E+03	4.799000E-16	2.268844E-17
5.890000E+03	5.018095E-16	2.330021E-17
5.900000E+03	5.230735E-16	2.380528E-17
5.910000E+03	5.426924E-16	2.418827E-17
5.920000E+03	5.596609E-16	2.444160E-17
5.930000E+03	5.730071E-16	2.456228E-17
5.940000E+03	5.820131E-16	2.455522E-17
5.950000E+03	5.862312E-16	2.442740E-17
5.960000E+03	5.856220E-16	2.418936E-17
5.970000E+03	5.805392E-16	2.385426E-17
5.980000E+03	5.715734E-16	2.343424E-17
5.990000E+03	5.595242E-16	2.294384E-17
6.000000E+03	5.452893E-16	2.240079E-17
6.010000E+03	5.297001E-16	2.182334E-17
6.020000E+03	5.135522E-16	2.123293E-17
6.030000E+03	4.974563E-16	2.064711E-17
6.040000E+03	4.819817E-16	2.008329E-17
6.050000E+03	4.675273E-16	1.955189E-17
6.060000E+03	4.543660E-16	1.905816E-17
6.070000E+03	4.427049E-16	1.860566E-17
6.080000E+03	4.326822E-16	1.819674E-17
6.090000E+03	4.243967E-16	1.783415E-17
6.100000E+03	4.178596E-16	1.751887E-17
6.110000E+03	4.130712E-16	1.725328E-17
6.120000E+03	4.099343E-16	1.703753E-17
6.130000E+03	4.083955E-16	1.687551E-17
6.140000E+03	4.082549E-16	1.676654E-17
6.150000E+03	4.093634E-16	1.671267E-17
6.160000E+03	4.114926E-16	1.671176E-17
6.170000E+03	4.144330E-16	1.675981E-17
6.180000E+03	4.179233E-16	1.684659E-17
6.190000E+03	4.218079E-16	1.696107E-17
6.200000E+03	4.258569E-16	1.708440E-17
6.210000E+03	4.299631E-16	1.720007E-17
6.220000E+03	4.339959E-16	1.729149E-17
6.230000E+03	4.378833E-16	1.734831E-17
6.240000E+03	4.415310E-16	1.736491E-17
6.250000E+03	4.448687E-16	1.734244E-17
6.260000E+03	4.478444E-16	1.728690E-17
6.270000E+03	4.503653E-16	1.720381E-17
6.280000E+03	4.523540E-16	1.709690E-17
6.290000E+03	4.537521E-16	1.696620E-17
6.300000E+03	4.544703E-16	1.680715E-17
6.310000E+03	4.544732E-16	1.661642E-17
6.320000E+03	4.536927E-16	1.639159E-17
6.330000E+03	4.521675E-16	1.613824E-17
6.340000E+03	4.499341E-16	1.586630E-17
6.350000E+03	4.470523E-16	1.558933E-17
6.360000E+03	4.436495E-16	1.532238E-17
6.370000E+03	4.399265E-16	1.507768E-17
6.380000E+03	4.361033E-16	1.485973E-17
6.390000E+03	4.324687E-16	1.466764E-17
6.400000E+03	4.293701E-16	1.449746E-17
6.410000E+03	4.271490E-16	1.434259E-17
6.420000E+03	4.261843E-16	1.419728E-17
6.430000E+03	4.268832E-16	1.405713E-17
6.440000E+03	4.296361E-16	1.391758E-17
6.450000E+03	4.347901E-16	1.377282E-17
6.460000E+03	4.427472E-16	1.361929E-17
6.470000E+03	4.538545E-16	1.345393E-17
6.480000E+03	4.684248E-16	1.328021E-17
6.490000E+03	4.867798E-16	1.311853E-17
6.500000E+03	5.092513E-16	1.301892E-17
6.510000E+03	5.361005E-16	1.307235E-17
6.520000E+03	5.675288E-16	1.341456E-17
6.530000E+03	6.035677E-16	1.419208E-17
6.540000E+03	6.438022E-16	1.548138E-17
6.550000E+03	6.873083E-16	1.724131E-17
6.560000E+03	7.325329E-16	1.934068E-17
6.570000E+03	7.774478E-16	2.160859E-17
6.580000E+03	8.195248E-16	2.386037E-17
6.590000E+03	8.560189E-16	2.591791E-17
6.600000E+03	8.842890E-16	2.762644E-17
6.610000E+03	9.020802E-16	2.886759E-17
6.620000E+03	9.080311E-16	2.957724E-17
6.630000E+03	9.017441E-16	2.974651E-17
6.640000E+03	8.839698E-16	2.942223E-17
6.650000E+03	8.563133E-16	2.868889E-17
6.660000E+03	8.210964E-16	2.765539E-17
6.670000E+03	7.808619E-16	2.643150E-17
6.680000E+03	7.381445E-16	2.511747E-17
6.690000E+03	6.951868E-16	2.379582E-17
6.700000E+03	6.537026E-16	2.252597E-17
6.710000E+03	6.148394E-16	2.134531E-17
6.720000E+03	5.792896E-16	2.027503E-17
6.730000E+03	5.473850E-16	1.932421E-17
6.740000E+03	5.191346E-16	1.849162E-17
6.750000E+03	4.944212E-16	1.777336E-17
6.760000E+03	4.730113E-16	1.716346E-17
6.770000E+03	4.545940E-16	1.665438E-17
6.780000E+03	4.389437E-16	1.624170E-17
6.790000E+03	4.257393E-16	1.591580E-17
6.800000E+03	4.147065E-16	1.566612E-17
6.810000E+03	4.056004E-16	1.548081E-17
6.820000E+03	3.981579E-16	1.534583E-17
6.830000E+03	3.921698E-16	1.524874E-17
6.840000E+03	3.874310E-16	1.517800E-17
6.850000E+03	3.837441E-16	1.512446E-17
6.860000E+03	3.809522E-16	1.508365E-17
6.870000E+03	3.789554E-16	1.505743E-17
6.880000E+03	3.775984E-16	1.504954E-17
6.890000E+03	3.768323E-16	1.507042E-17
6.900000E+03	3.766032E-16	1.512949E-17
6.910000E+03	3.768686E-16	1.523169E-17
6.920000E+03	3.776430E-16	1.537686E-17
6.930000E+03	3.789435E-16	1.555824E-17
6.940000E+03	3.807791E-16	1.576484E-17
6.950000E+03	3.831744E-16	1.598524E-17
6.960000E+03	3.861625E-16	1.620957E-17
6.970000E+03	3.897456E-16	1.642934E-17
6.980000E+03	3.938895E-16	1.663770E-17
6.990000E+03	3.985678E-16	1.683136E-17
7.000000E+03	4.037081E-16	1.700791E-17
7.010000E+03	4.091867E-16	1.716526E-17
7.020000E+03	4.148796E-16	1.730359E-17
7.030000E+03	4.205936E-16	1.742237E-17
7.040000E+03	4.261423E-16	1.752337E-17
7.050000E+03	4.312838E-16	1.760790E-17
7.060000E+03	4.358281E-16	1.768040E-17
7.070000E+03	4.395087E-16	1.774180E-17
7.080000E+03	4.422141E-16	1.779700E-17
7.090000E+03	4.438070E-16	1.784526E-17
7.100000E+03	4.442768E-16	1.788499E-17
7.110000E+03	4.437475E-16	1.791470E-17
7.120000E+03	4.423384E-16	1.792923E-17
7.130000E+03	4.403627E-16	1.793002E-17
7.140000E+03	4.380930E-16	1.791803E-17
7.150000E+03	4.358878E-16	1.790086E-17
7.160000E+03	4.340894E-16	1.788931E-17
7.170000E+03	4.330024E-16	1.789598E-17
7.180000E+03	4.329316E-16	1.793551E-17
7.190000E+03	4.340930E-16	1.801913E-17
7.200000E+03	4.366814E-16	1.815616E-17
7.210000E+03	4.408075E-16	1.835020E-17
7.220000E+03	4.465109E-16	1.859879E-17
7.230000E+03	4.537355E-16	1.889245E-17
7.240000E+03	4.623839E-16	1.921737E-17
7.250000E+03	4.722317E-16	1.955291E-17
7.260000E+03	4.830066E-16	1.987676E-17
7.270000E+03	4.943267E-16	2.016475E-17
7.280000E+03	5.057258E-16	2.039405E-17
7.290000E+03	5.166424E-16	2.054433E-17
7.300000E+03	5.265123E-16	2.060177E-17
7.310000E+03	5.347413E-16	2.055672E-17
7.320000E+03	5.407601E-16	2.040291E-17
7.330000E+03	5.441621E-16	2.013883E-17
7.340000E+03	5.446874E-16	1.976402E-17
7.350000E+03	5.422725E-16	1.928073E-17
7.360000E+03	5.370257E-16	1.869451E-17
7.370000E+03	5.292748E-16	1.801731E-17
7.380000E+03	5.194462E-16	1.726390E-17
7.390000E+03	5.080080E-16	1.644957E-17
7.400000E+03	4.955057E-16	1.559009E-17
7.410000E+03	4.823502E-16	1.469397E-17
7.420000E+03	4.689204E-16	1.376569E-17
7.430000E+03	4.555412E-16	1.280638E-17
7.440000E+03	4.423620E-16	1.181435E-17
7.450000E+03	4.295230E-16	1.079534E-17
7.460000E+03	4.170709E-16	9.765388E-18
7.470000E+03	4.050748E-16	8.758768E-18
7.480000E+03	3.935070E-16	7.831007E-18
7.490000E+03	3.823899E-16	7.067482E-18
7.500000E+03	3.717341E-16	6.574829E-18
7.510000E+03	3.615635E-16	6.435827E-18
7.520000E+03	3.519946E-16	6.639763E-18
7.530000E+03	3.431785E-16	7.084961E-18
7.540000E+03	3.352795E-16	7.658085E-18
7.550000E+03	3.284457E-16	8.280910E-18
7.560000E+03	3.227824E-16	8.909692E-18
7.570000E+03	3.183941E-16	9.522241E-18
7.580000E+03	3.153383E-16	1.010558E-17
7.590000E+03	3.136330E-16	1.065055E-17
7.600000E+03	3.133219E-16	1.115237E-17
7.610000E+03	3.143752E-16	1.160689E-17
7.620000E+03	3.167936E-16	1.201411E-17
7.630000E+03	3.205459E-16	1.237598E-17
7.640000E+03	3.255772E-16	1.269681E-17
7.650000E+03	3.317844E-16	1.298262E-17
7.660000E+03	3.390532E-16	1.324276E-17
7.670000E+03	3.472021E-16	1.348774E-17
7.680000E+03	3.559918E-16	1.372873E-17
7.690000E+03	3.651261E-16	1.397570E-17
7.700000E+03	3.742458E-16	1.423436E-17
7.710000E+03	3.830101E-16	1.450567E-17
7.720000E+03	3.910826E-16	1.478223E-17
7.730000E+03	3.981844E-16	1.504959E-17
7.740000E+03	4.041126E-16	1.529041E-17
7.750000E+03	4.087252E-16	1.548944E-17
7.760000E+03	4.120188E-16	1.564100E-17
