#wls	flux	fluxerr
1.591533E+03	4.318864E-17	3.173978E-18
1.631321E+03	4.336839E-17	3.167480E-18
1.671110E+03	4.352077E-17	3.158376E-18
1.710898E+03	4.367607E-17	3.148873E-18
1.750686E+03	4.383162E-17	3.138765E-18
1.790475E+03	4.397643E-17	3.127256E-18
1.830263E+03	4.409495E-17	3.113252E-18
1.870051E+03	4.416788E-17	3.095429E-18
1.909840E+03	4.418963E-17	3.073459E-18
1.949628E+03	4.412710E-17	3.045130E-18
1.989416E+03	4.401014E-17	3.012620E-18
2.029205E+03	4.384525E-17	2.976454E-18
2.068993E+03	4.375954E-17	2.945270E-18
2.108781E+03	4.389212E-17	2.928205E-18
2.148570E+03	4.443159E-17	2.937329E-18
2.188358E+03	4.543286E-17	2.975472E-18
2.228146E+03	4.687869E-17	3.040614E-18
2.267935E+03	4.867105E-17	3.125556E-18
2.307723E+03	5.068321E-17	3.221497E-18
2.347511E+03	5.281847E-17	3.321835E-18
2.387300E+03	5.503573E-17	3.423672E-18
2.427088E+03	5.729322E-17	3.524174E-18
2.466876E+03	5.961621E-17	3.624694E-18
2.506665E+03	6.200774E-17	3.725173E-18
2.546453E+03	6.447485E-17	3.825772E-18
2.586241E+03	6.704337E-17	3.927728E-18
2.626030E+03	6.975828E-17	4.033298E-18
2.665818E+03	7.263400E-17	4.142847E-18
2.705606E+03	7.570559E-17	4.257844E-18
2.745395E+03	7.901178E-17	4.379832E-18
2.785183E+03	8.261292E-17	4.511391E-18
2.824971E+03	8.655738E-17	4.654238E-18
2.864759E+03	9.089982E-17	4.810231E-18
2.904548E+03	9.573881E-17	4.983297E-18
2.944336E+03	1.011484E-16	5.175730E-18
2.984124E+03	1.072519E-16	5.391988E-18
2.994072E+03	1.089004E-16	5.450245E-18
3.004019E+03	1.106082E-16	5.510608E-18
3.013966E+03	1.123588E-16	5.572219E-18
3.023913E+03	1.141723E-16	5.636037E-18
3.033860E+03	1.160522E-16	5.702187E-18
3.043807E+03	1.180000E-16	5.770687E-18
3.053754E+03	1.200028E-16	5.840864E-18
3.063701E+03	1.220993E-16	5.914547E-18
3.073648E+03	1.242729E-16	5.990863E-18
3.083595E+03	1.265067E-16	6.068948E-18
3.093542E+03	1.288404E-16	6.150640E-18
3.103489E+03	1.312575E-16	6.235085E-18
3.113437E+03	1.337606E-16	6.322338E-18
3.123384E+03	1.363712E-16	6.413351E-18
3.133331E+03	1.390541E-16	6.506386E-18
3.143278E+03	1.418701E-16	6.604216E-18
3.153225E+03	1.447645E-16	6.704209E-18
3.163172E+03	1.477797E-16	6.808251E-18
3.173119E+03	1.509195E-16	6.916426E-18
3.183066E+03	1.541882E-16	7.028827E-18
3.193013E+03	1.575702E-16	7.144652E-18
3.202960E+03	1.610699E-16	7.264004E-18
3.212907E+03	1.647322E-16	7.388805E-18
3.222854E+03	1.685425E-16	7.518272E-18
3.232801E+03	1.724856E-16	7.651622E-18
3.242749E+03	1.766085E-16	7.790811E-18
3.252696E+03	1.808968E-16	7.935069E-18
3.262643E+03	1.853570E-16	8.084548E-18
3.272590E+03	1.899958E-16	8.239401E-18
3.282537E+03	1.948419E-16	8.400720E-18
3.292484E+03	1.998817E-16	8.567754E-18
3.302431E+03	2.051450E-16	8.741617E-18
3.312378E+03	2.106405E-16	8.922503E-18
3.322325E+03	2.163555E-16	9.109680E-18
3.332272E+03	2.222989E-16	9.303349E-18
3.342219E+03	2.285259E-16	9.505616E-18
3.352166E+03	2.350248E-16	9.715769E-18
3.362114E+03	2.418067E-16	9.934045E-18
3.372061E+03	2.488834E-16	1.016069E-17
3.382008E+03	2.562670E-16	1.039596E-17
3.391955E+03	2.639944E-16	1.064108E-17
3.401902E+03	2.720550E-16	1.089535E-17
3.411849E+03	2.804625E-16	1.115905E-17
3.421796E+03	2.892813E-16	1.143442E-17
3.431743E+03	2.984772E-16	1.171980E-17
3.441690E+03	3.080910E-16	1.201645E-17
3.451637E+03	3.181392E-16	1.232468E-17
3.461584E+03	3.286392E-16	1.264479E-17
3.471531E+03	3.396084E-16	1.297707E-17
3.481479E+03	3.510921E-16	1.332286E-17
3.491426E+03	3.630540E-16	1.368036E-17
3.501373E+03	3.755963E-16	1.405299E-17
3.511320E+03	3.886829E-16	1.443893E-17
3.521267E+03	4.023619E-16	1.483949E-17
3.531214E+03	4.166536E-16	1.525494E-17
3.541161E+03	4.315482E-16	1.568440E-17
3.551108E+03	4.471257E-16	1.613025E-17
3.561055E+03	4.633763E-16	1.659157E-17
3.571002E+03	4.803195E-16	1.706849E-17
3.580949E+03	4.980064E-16	1.756223E-17
3.590896E+03	5.164565E-16	1.807285E-17
3.600844E+03	5.356552E-16	1.859920E-17
3.610791E+03	5.556522E-16	1.914236E-17
3.620738E+03	5.764634E-16	1.970221E-17
3.630685E+03	5.981027E-16	2.027855E-17
3.640632E+03	6.205822E-16	2.087106E-17
3.650579E+03	6.439479E-16	2.148059E-17
3.660526E+03	6.682082E-16	2.210667E-17
3.670473E+03	6.933310E-16	2.274749E-17
3.680420E+03	7.193161E-16	2.340232E-17
3.690367E+03	7.462378E-16	2.407284E-17
3.700314E+03	7.740509E-16	2.475682E-17
3.710261E+03	8.027449E-16	2.545317E-17
3.720208E+03	8.323433E-16	2.616191E-17
3.730156E+03	8.627422E-16	2.687903E-17
3.740103E+03	8.940386E-16	2.760687E-17
3.750050E+03	9.261142E-16	2.834106E-17
3.759997E+03	9.589696E-16	2.908098E-17
3.769944E+03	9.925577E-16	2.982458E-17
3.779891E+03	1.026821E-15	3.056954E-17
3.789838E+03	1.061697E-15	3.131346E-17
3.799785E+03	1.097158E-15	3.205506E-17
3.809732E+03	1.133078E-15	3.279023E-17
3.819679E+03	1.169368E-15	3.351603E-17
3.829626E+03	1.205977E-15	3.423079E-17
3.839573E+03	1.242800E-15	3.493130E-17
3.849521E+03	1.279675E-15	3.561293E-17
3.859468E+03	1.316530E-15	3.627369E-17
3.869415E+03	1.353287E-15	3.691153E-17
3.879362E+03	1.389713E-15	3.752033E-17
3.889309E+03	1.425720E-15	3.809805E-17
3.899256E+03	1.461167E-15	3.864139E-17
3.909203E+03	1.495959E-15	3.914843E-17
3.919150E+03	1.529903E-15	3.961480E-17
3.929097E+03	1.562807E-15	4.003637E-17
3.939044E+03	1.594688E-15	4.041451E-17
3.948991E+03	1.625259E-15	4.074301E-17
3.958938E+03	1.654502E-15	4.102262E-17
3.968886E+03	1.682204E-15	4.124932E-17
3.978833E+03	1.708419E-15	4.142582E-17
3.988780E+03	1.732914E-15	4.154784E-17
3.998727E+03	1.755671E-15	4.161653E-17
4.008674E+03	1.776692E-15	4.163351E-17
4.018621E+03	1.795898E-15	4.159846E-17
4.028568E+03	1.813229E-15	4.151165E-17
4.038515E+03	1.828793E-15	4.137718E-17
4.048462E+03	1.842523E-15	4.119514E-17
4.058409E+03	1.854517E-15	4.096931E-17
4.068356E+03	1.864847E-15	4.070281E-17
4.078303E+03	1.873555E-15	4.039801E-17
4.088251E+03	1.880752E-15	4.005874E-17
4.098198E+03	1.886610E-15	3.968998E-17
4.108145E+03	1.891186E-15	3.929407E-17
4.118092E+03	1.894726E-15	3.887729E-17
4.128039E+03	1.897274E-15	3.844145E-17
4.137986E+03	1.899143E-15	3.799375E-17
4.147933E+03	1.900397E-15	3.753616E-17
4.157880E+03	1.901318E-15	3.707478E-17
4.167827E+03	1.902020E-15	3.661228E-17
4.177774E+03	1.902706E-15	3.615280E-17
4.187721E+03	1.903569E-15	3.570021E-17
4.197668E+03	1.904834E-15	3.525870E-17
4.207615E+03	1.906569E-15	3.482943E-17
4.217563E+03	1.909018E-15	3.441665E-17
4.227510E+03	1.912301E-15	3.402221E-17
4.237457E+03	1.916528E-15	3.364767E-17
4.247404E+03	1.921829E-15	3.329490E-17
4.257351E+03	1.928324E-15	3.296543E-17
4.267298E+03	1.936082E-15	3.265988E-17
4.277245E+03	1.945193E-15	3.237922E-17
4.287192E+03	1.955698E-15	3.212352E-17
4.297139E+03	1.967624E-15	3.189266E-17
4.307086E+03	1.981047E-15	3.168730E-17
4.317033E+03	1.995923E-15	3.150616E-17
4.326980E+03	2.012249E-15	3.134874E-17
4.336928E+03	2.029994E-15	3.121408E-17
4.346875E+03	2.049026E-15	3.109982E-17
4.356822E+03	2.069254E-15	3.100435E-17
4.366769E+03	2.090543E-15	3.092549E-17
4.376716E+03	2.112762E-15	3.086129E-17
4.386663E+03	2.135797E-15	3.081018E-17
4.396610E+03	2.159551E-15	3.077096E-17
4.406557E+03	2.183969E-15	3.074306E-17
4.416504E+03	2.208971E-15	3.072558E-17
4.426451E+03	2.234478E-15	3.071775E-17
4.436398E+03	2.260416E-15	3.071888E-17
4.446345E+03	2.286801E-15	3.072955E-17
4.456293E+03	2.313520E-15	3.074841E-17
4.466240E+03	2.340453E-15	3.077400E-17
4.476187E+03	2.367596E-15	3.080639E-17
4.486134E+03	2.394779E-15	3.084355E-17
4.496081E+03	2.421914E-15	3.088457E-17
4.506028E+03	2.448909E-15	3.092850E-17
4.515975E+03	2.475632E-15	3.097392E-17
4.525922E+03	2.501982E-15	3.101986E-17
4.535869E+03	2.527891E-15	3.106577E-17
4.545816E+03	2.553203E-15	3.111003E-17
4.555763E+03	2.577837E-15	3.115197E-17
4.565710E+03	2.601725E-15	3.119107E-17
4.575658E+03	2.624790E-15	3.122673E-17
4.585605E+03	2.647039E-15	3.125933E-17
4.595552E+03	2.668441E-15	3.128876E-17
4.605499E+03	2.688993E-15	3.131525E-17
4.615446E+03	2.708749E-15	3.133964E-17
4.625393E+03	2.727754E-15	3.136265E-17
4.635340E+03	2.746142E-15	3.138596E-17
4.645287E+03	2.763997E-15	3.141064E-17
4.655234E+03	2.781414E-15	3.143786E-17
4.665181E+03	2.798524E-15	3.146915E-17
4.675128E+03	2.815485E-15	3.150630E-17
4.685075E+03	2.832381E-15	3.155025E-17
4.695022E+03	2.849274E-15	3.160168E-17
4.704970E+03	2.866303E-15	3.166208E-17
4.714917E+03	2.883510E-15	3.173189E-17
4.724864E+03	2.900911E-15	3.181122E-17
4.734811E+03	2.918548E-15	3.190051E-17
4.744758E+03	2.936406E-15	3.199954E-17
4.754705E+03	2.954436E-15	3.210776E-17
4.764652E+03	2.972638E-15	3.222497E-17
4.774599E+03	2.990796E-15	3.234836E-17
4.784546E+03	3.008774E-15	3.247596E-17
4.794493E+03	3.026354E-15	3.260493E-17
4.804440E+03	3.043374E-15	3.273304E-17
4.814387E+03	3.059633E-15	3.285762E-17
4.824335E+03	3.074960E-15	3.297636E-17
4.834282E+03	3.089188E-15	3.308698E-17
4.844229E+03	3.102156E-15	3.318730E-17
4.854176E+03	3.113685E-15	3.327491E-17
4.864123E+03	3.123710E-15	3.334866E-17
4.874070E+03	3.132086E-15	3.340654E-17
4.884017E+03	3.138757E-15	3.344754E-17
4.893964E+03	3.143691E-15	3.347087E-17
4.903911E+03	3.146820E-15	3.347540E-17
4.913858E+03	3.148162E-15	3.346096E-17
4.923805E+03	3.147768E-15	3.342770E-17
4.933752E+03	3.145679E-15	3.337573E-17
4.943700E+03	3.141995E-15	3.330581E-17
4.953647E+03	3.136776E-15	3.321826E-17
4.963594E+03	3.130201E-15	3.311475E-17
4.973541E+03	3.122406E-15	3.299647E-17
4.983488E+03	3.113549E-15	3.286489E-17
4.993435E+03	3.103806E-15	3.272169E-17
5.003382E+03	3.093426E-15	3.256936E-17
5.013329E+03	3.082580E-15	3.240957E-17
5.023276E+03	3.071508E-15	3.224471E-17
5.033223E+03	3.060449E-15	3.207722E-17
5.043170E+03	3.049577E-15	3.190885E-17
5.053117E+03	3.039116E-15	3.174188E-17
5.063064E+03	3.029244E-15	3.157812E-17
5.073012E+03	3.020174E-15	3.141976E-17
5.082959E+03	3.011970E-15	3.126743E-17
5.092906E+03	3.004786E-15	3.112273E-17
5.102853E+03	2.998651E-15	3.098593E-17
5.112800E+03	2.993648E-15	3.085791E-17
5.122747E+03	2.989738E-15	3.073828E-17
5.132694E+03	2.986904E-15	3.062692E-17
5.142641E+03	2.985077E-15	3.052315E-17
5.152588E+03	2.984157E-15	3.042606E-17
5.162535E+03	2.984084E-15	3.033513E-17
5.172482E+03	2.984662E-15	3.024852E-17
5.182429E+03	2.985802E-15	3.016549E-17
5.192377E+03	2.987315E-15	3.008433E-17
5.202324E+03	2.989097E-15	3.000423E-17
5.212271E+03	2.990950E-15	2.992350E-17
5.222218E+03	2.992705E-15	2.984075E-17
5.232165E+03	2.994227E-15	2.975499E-17
5.242112E+03	2.995381E-15	2.966529E-17
5.252059E+03	2.995980E-15	2.957021E-17
5.262006E+03	2.995905E-15	2.946905E-17
5.271953E+03	2.994993E-15	2.936070E-17
5.281900E+03	2.993181E-15	2.924509E-17
5.291847E+03	2.990372E-15	2.912179E-17
5.301794E+03	2.986454E-15	2.899031E-17
5.311742E+03	2.981436E-15	2.885131E-17
5.321689E+03	2.975258E-15	2.870481E-17
5.331636E+03	2.967920E-15	2.855139E-17
5.341583E+03	2.959477E-15	2.839218E-17
5.351530E+03	2.949976E-15	2.822820E-17
5.361477E+03	2.939487E-15	2.806068E-17
5.371424E+03	2.928097E-15	2.789099E-17
5.381371E+03	2.915934E-15	2.772087E-17
5.391318E+03	2.903106E-15	2.755181E-17
5.401265E+03	2.889693E-15	2.738505E-17
5.411212E+03	2.875863E-15	2.722258E-17
5.421159E+03	2.861691E-15	2.706551E-17
5.431107E+03	2.847272E-15	2.691509E-17
5.441054E+03	2.832722E-15	2.677257E-17
5.451001E+03	2.818084E-15	2.663788E-17
5.460948E+03	2.803453E-15	2.651128E-17
5.470895E+03	2.788862E-15	2.639248E-17
5.480842E+03	2.774403E-15	2.628168E-17
5.490789E+03	2.760101E-15	2.617854E-17
5.500736E+03	2.746040E-15	2.608320E-17
5.510683E+03	2.732236E-15	2.599522E-17
5.520630E+03	2.718727E-15	2.591439E-17
5.530577E+03	2.705545E-15	2.584041E-17
5.540524E+03	2.692683E-15	2.577270E-17
5.550471E+03	2.680187E-15	2.571115E-17
5.560419E+03	2.668068E-15	2.565535E-17
5.570366E+03	2.656308E-15	2.560464E-17
5.580313E+03	2.644912E-15	2.555861E-17
5.590260E+03	2.633883E-15	2.551685E-17
5.600207E+03	2.623200E-15	2.547871E-17
5.610154E+03	2.612892E-15	2.544410E-17
5.620101E+03	2.602943E-15	2.541248E-17
5.630048E+03	2.593340E-15	2.538335E-17
5.639995E+03	2.584128E-15	2.535683E-17
5.649942E+03	2.575335E-15	2.533291E-17
5.659889E+03	2.566973E-15	2.531139E-17
5.669836E+03	2.559062E-15	2.529224E-17
5.679784E+03	2.551683E-15	2.527599E-17
5.689731E+03	2.544874E-15	2.526281E-17
5.699678E+03	2.538704E-15	2.525321E-17
5.709625E+03	2.533248E-15	2.524774E-17
5.719572E+03	2.528554E-15	2.524675E-17
5.729519E+03	2.524697E-15	2.525083E-17
5.739466E+03	2.521744E-15	2.526056E-17
5.749413E+03	2.519733E-15	2.527620E-17
5.759360E+03	2.518715E-15	2.529818E-17
5.769307E+03	2.518703E-15	2.532656E-17
5.779254E+03	2.519770E-15	2.536201E-17
5.789201E+03	2.521850E-15	2.540379E-17
5.799149E+03	2.524953E-15	2.545198E-17
5.809096E+03	2.529025E-15	2.550598E-17
5.819043E+03	2.534017E-15	2.556526E-17
5.828990E+03	2.539889E-15	2.562941E-17
5.838937E+03	2.546481E-15	2.569679E-17
5.848884E+03	2.553750E-15	2.576695E-17
5.858831E+03	2.561561E-15	2.583857E-17
5.868778E+03	2.569776E-15	2.591024E-17
5.878725E+03	2.578274E-15	2.598082E-17
5.888672E+03	2.586960E-15	2.604939E-17
5.898619E+03	2.595640E-15	2.611407E-17
5.908566E+03	2.604277E-15	2.617461E-17
5.918514E+03	2.612689E-15	2.622931E-17
5.928461E+03	2.620806E-15	2.627760E-17
5.938408E+03	2.628545E-15	2.631885E-17
5.948355E+03	2.635809E-15	2.635228E-17
5.958302E+03	2.642509E-15	2.637725E-17
5.968249E+03	2.648650E-15	2.639406E-17
5.978196E+03	2.654136E-15	2.640207E-17
5.988143E+03	2.658935E-15	2.640126E-17
5.998090E+03	2.663012E-15	2.639162E-17
6.008037E+03	2.666331E-15	2.637319E-17
6.017984E+03	2.668851E-15	2.634594E-17
6.027931E+03	2.670490E-15	2.630948E-17
6.037878E+03	2.671151E-15	2.626330E-17
6.047826E+03	2.670795E-15	2.620749E-17
6.057773E+03	2.669255E-15	2.614089E-17
6.067720E+03	2.666390E-15	2.606262E-17
6.077667E+03	2.662036E-15	2.597163E-17
6.087614E+03	2.656007E-15	2.586664E-17
6.097561E+03	2.648050E-15	2.574572E-17
6.107508E+03	2.638007E-15	2.560793E-17
6.117455E+03	2.625620E-15	2.545130E-17
6.127402E+03	2.610705E-15	2.527460E-17
6.137349E+03	2.593114E-15	2.507695E-17
6.147296E+03	2.572714E-15	2.485753E-17
6.157243E+03	2.549558E-15	2.461722E-17
6.167191E+03	2.523713E-15	2.435665E-17
6.177138E+03	2.495454E-15	2.407840E-17
6.187085E+03	2.465074E-15	2.378519E-17
6.197032E+03	2.432980E-15	2.348081E-17
6.206979E+03	2.399630E-15	2.316952E-17
6.216926E+03	2.365481E-15	2.285557E-17
6.226873E+03	2.331054E-15	2.254380E-17
6.236820E+03	2.296825E-15	2.223867E-17
6.246767E+03	2.263314E-15	2.194504E-17
6.256714E+03	2.231005E-15	2.166748E-17
6.266661E+03	2.200364E-15	2.141045E-17
6.276608E+03	2.171820E-15	2.117805E-17
6.286556E+03	2.145846E-15	2.097492E-17
6.296503E+03	2.122773E-15	2.080438E-17
6.306450E+03	2.103046E-15	2.067092E-17
6.316397E+03	2.086942E-15	2.057750E-17
6.326344E+03	2.074823E-15	2.052800E-17
6.336291E+03	2.066927E-15	2.052515E-17
6.346238E+03	2.063525E-15	2.057215E-17
6.356185E+03	2.064808E-15	2.067149E-17
6.366132E+03	2.070949E-15	2.082559E-17
6.376079E+03	2.082061E-15	2.103635E-17
6.386026E+03	2.098232E-15	2.130556E-17
6.395973E+03	2.119478E-15	2.163434E-17
6.405921E+03	2.145808E-15	2.202385E-17
6.415868E+03	2.177096E-15	2.247378E-17
6.425815E+03	2.213190E-15	2.298328E-17
6.435762E+03	2.253838E-15	2.355048E-17
6.445709E+03	2.298733E-15	2.417289E-17
6.455656E+03	2.347429E-15	2.484649E-17
6.465603E+03	2.399398E-15	2.556627E-17
6.475550E+03	2.454016E-15	2.632605E-17
6.485497E+03	2.510467E-15	2.711741E-17
6.495444E+03	2.567733E-15	2.792943E-17
6.505391E+03	2.624529E-15	2.874797E-17
6.515338E+03	2.679421E-15	2.955680E-17
6.525285E+03	2.730813E-15	3.033742E-17
6.535233E+03	2.777091E-15	3.107057E-17
6.545180E+03	2.816719E-15	3.173734E-17
6.555127E+03	2.848472E-15	3.232182E-17
6.565074E+03	2.871323E-15	3.280996E-17
6.575021E+03	2.884587E-15	3.319130E-17
6.584968E+03	2.888055E-15	3.346067E-17
6.594915E+03	2.881737E-15	3.361544E-17
6.604862E+03	2.866114E-15	3.365852E-17
6.614809E+03	2.841805E-15	3.359467E-17
6.624756E+03	2.809749E-15	3.343271E-17
6.634703E+03	2.771035E-15	3.318360E-17
6.644650E+03	2.726733E-15	3.285849E-17
6.654598E+03	2.678007E-15	3.247003E-17
6.664545E+03	2.626062E-15	3.203182E-17
6.674492E+03	2.571904E-15	3.155542E-17
6.684439E+03	2.516545E-15	3.105280E-17
6.694386E+03	2.460824E-15	3.053411E-17
6.704333E+03	2.405524E-15	3.000908E-17
6.714280E+03	2.351275E-15	2.948577E-17
6.724227E+03	2.298532E-15	2.897019E-17
6.734174E+03	2.247765E-15	2.846871E-17
6.744121E+03	2.199285E-15	2.798577E-17
6.754068E+03	2.153264E-15	2.752412E-17
6.764015E+03	2.109889E-15	2.708671E-17
6.773963E+03	2.069259E-15	2.667540E-17
6.783910E+03	2.031421E-15	2.629139E-17
6.793857E+03	1.996384E-15	2.593537E-17
6.803804E+03	1.964125E-15	2.560758E-17
6.813751E+03	1.934543E-15	2.530725E-17
6.823698E+03	1.907652E-15	2.503502E-17
6.833645E+03	1.883317E-15	2.478957E-17
6.843592E+03	1.861444E-15	2.457009E-17
6.853539E+03	1.841933E-15	2.437562E-17
6.863486E+03	1.824674E-15	2.420504E-17
6.873433E+03	1.809551E-15	2.405711E-17
6.883380E+03	1.796445E-15	2.393053E-17
6.893327E+03	1.785232E-15	2.382384E-17
6.903275E+03	1.775785E-15	2.373558E-17
6.913222E+03	1.767929E-15	2.366352E-17
6.923169E+03	1.761605E-15	2.360707E-17
6.933116E+03	1.756636E-15	2.356392E-17
6.943063E+03	1.752892E-15	2.353243E-17
6.953010E+03	1.750244E-15	2.351096E-17
6.962957E+03	1.748567E-15	2.349787E-17
6.972904E+03	1.747742E-15	2.349161E-17
6.982851E+03	1.747650E-15	2.349061E-17
6.992798E+03	1.748185E-15	2.349347E-17
7.002745E+03	1.749218E-15	2.349849E-17
7.012692E+03	1.750679E-15	2.350475E-17
7.022640E+03	1.752485E-15	2.351114E-17
7.032587E+03	1.754534E-15	2.351634E-17
7.042534E+03	1.756761E-15	2.351952E-17
7.052481E+03	1.759108E-15	2.351992E-17
7.062428E+03	1.761557E-15	2.351736E-17
7.072375E+03	1.764047E-15	2.351106E-17
7.082322E+03	1.766551E-15	2.350074E-17
7.092269E+03	1.769025E-15	2.348589E-17
7.102216E+03	1.771512E-15	2.346714E-17
7.112163E+03	1.773958E-15	2.344388E-17
7.122110E+03	1.776394E-15	2.341660E-17
7.132057E+03	1.778828E-15	2.338552E-17
7.142005E+03	1.781246E-15	2.335057E-17
7.151952E+03	1.783692E-15	2.331243E-17
7.161899E+03	1.786156E-15	2.327109E-17
7.171846E+03	1.788683E-15	2.322728E-17
7.181793E+03	1.791265E-15	2.318102E-17
7.191740E+03	1.793945E-15	2.313303E-17
7.201687E+03	1.796685E-15	2.308294E-17
7.211634E+03	1.799578E-15	2.303212E-17
7.221581E+03	1.802553E-15	2.297981E-17
7.231528E+03	1.805670E-15	2.292696E-17
7.241475E+03	1.808906E-15	2.287344E-17
7.251422E+03	1.812285E-15	2.281976E-17
7.261370E+03	1.815749E-15	2.276537E-17
7.271317E+03	1.819342E-15	2.271106E-17
7.281264E+03	1.823024E-15	2.265654E-17
7.291211E+03	1.826807E-15	2.260219E-17
7.301158E+03	1.830643E-15	2.254767E-17
7.311105E+03	1.834507E-15	2.249296E-17
7.321052E+03	1.838402E-15	2.243836E-17
7.330999E+03	1.842269E-15	2.238346E-17
7.340946E+03	1.846075E-15	2.232817E-17
7.350893E+03	1.849814E-15	2.227275E-17
7.360840E+03	1.853420E-15	2.221677E-17
7.370787E+03	1.856879E-15	2.216043E-17
7.380734E+03	1.860151E-15	2.210363E-17
7.390682E+03	1.863160E-15	2.204587E-17
7.400629E+03	1.865888E-15	2.198737E-17
7.410576E+03	1.868261E-15	2.192766E-17
7.420523E+03	1.870255E-15	2.186692E-17
7.430470E+03	1.871854E-15	2.180541E-17
7.440417E+03	1.872945E-15	2.174227E-17
7.450364E+03	1.873548E-15	2.167815E-17
7.460311E+03	1.873565E-15	2.161219E-17
7.470258E+03	1.873042E-15	2.154497E-17
7.480205E+03	1.871915E-15	2.147588E-17
7.490152E+03	1.870268E-15	2.140593E-17
7.500099E+03	1.868074E-15	2.133491E-17
7.510047E+03	1.865441E-15	2.126408E-17
7.519994E+03	1.862354E-15	2.119337E-17
7.529941E+03	1.858896E-15	2.112375E-17
7.539888E+03	1.855115E-15	2.105584E-17
7.549835E+03	1.851028E-15	2.098988E-17
7.559782E+03	1.846739E-15	2.092709E-17
7.569729E+03	1.842233E-15	2.086735E-17
7.579676E+03	1.837576E-15	2.081148E-17
7.589623E+03	1.832806E-15	2.075997E-17
7.599570E+03	1.827952E-15	2.071320E-17
7.609517E+03	1.823011E-15	2.067122E-17
7.619464E+03	1.818035E-15	2.063469E-17
7.629412E+03	1.813040E-15	2.060388E-17
7.639359E+03	1.808038E-15	2.057902E-17
7.649306E+03	1.803034E-15	2.056026E-17
7.659253E+03	1.798026E-15	2.054770E-17
7.669200E+03	1.793010E-15	2.054138E-17
7.679147E+03	1.787944E-15	2.054096E-17
7.689094E+03	1.782874E-15	2.054706E-17
7.699041E+03	1.777751E-15	2.055927E-17
7.708988E+03	1.772554E-15	2.057744E-17
7.718935E+03	1.767289E-15	2.060177E-17
