#wls	flux	fluxerr
1.591533E+03	7.061440E-17	4.795612E-19
1.631321E+03	7.055800E-17	4.791781E-19
1.671110E+03	7.049119E-17	4.787242E-19
1.710898E+03	7.041349E-17	4.781965E-19
1.750686E+03	7.034219E-17	4.777122E-19
1.790475E+03	7.024034E-17	4.770205E-19
1.830263E+03	7.008488E-17	4.759646E-19
1.870051E+03	6.988817E-17	4.746286E-19
1.909840E+03	6.959846E-17	4.726611E-19
1.949628E+03	6.921108E-17	4.700302E-19
1.989416E+03	6.872710E-17	4.667433E-19
2.029205E+03	6.820660E-17	4.632084E-19
2.068993E+03	6.782047E-17	4.605860E-19
2.108781E+03	6.782455E-17	4.606136E-19
2.148570E+03	6.842310E-17	4.646785E-19
2.188358E+03	6.977825E-17	4.738815E-19
2.228146E+03	7.185522E-17	4.879867E-19
2.267935E+03	7.445910E-17	5.056702E-19
2.307723E+03	7.741318E-17	5.257320E-19
2.347511E+03	8.056906E-17	5.471644E-19
2.387300E+03	8.385986E-17	5.695129E-19
2.427088E+03	8.724584E-17	5.925079E-19
2.466876E+03	9.075727E-17	6.163548E-19
2.506665E+03	9.439681E-17	6.410717E-19
2.546453E+03	9.819289E-17	6.668517E-19
2.586241E+03	1.021752E-16	6.938966E-19
2.626030E+03	1.063958E-16	7.225591E-19
2.665818E+03	1.108886E-16	7.530712E-19
2.705606E+03	1.156923E-16	7.856939E-19
2.745395E+03	1.208473E-16	8.207025E-19
2.785183E+03	1.264634E-16	8.588428E-19
2.824971E+03	1.325663E-16	9.002893E-19
2.864759E+03	1.392546E-16	9.457109E-19
2.904548E+03	1.466136E-16	9.956871E-19
2.944336E+03	1.547629E-16	1.051031E-18
2.984124E+03	1.638149E-16	1.112505E-18
2.994072E+03	1.662229E-16	1.128858E-18
3.004019E+03	1.687167E-16	1.145795E-18
3.013966E+03	1.712982E-16	1.163326E-18
3.023913E+03	1.739468E-16	1.181313E-18
3.033860E+03	1.766669E-16	1.199786E-18
3.043807E+03	1.794596E-16	1.218752E-18
3.053754E+03	1.823554E-16	1.238418E-18
3.063701E+03	1.853559E-16	1.258795E-18
3.073648E+03	1.884627E-16	1.279894E-18
3.083595E+03	1.916548E-16	1.301572E-18
3.093542E+03	1.949572E-16	1.323999E-18
3.103489E+03	1.983721E-16	1.347191E-18
3.113437E+03	2.018791E-16	1.371008E-18
3.123384E+03	2.055271E-16	1.395782E-18
3.133331E+03	2.092961E-16	1.421378E-18
3.143278E+03	2.131893E-16	1.447818E-18
3.153225E+03	2.172103E-16	1.475125E-18
3.163172E+03	2.213628E-16	1.503326E-18
3.173119E+03	2.256744E-16	1.532606E-18
3.183066E+03	2.301261E-16	1.562839E-18
3.193013E+03	2.347225E-16	1.594055E-18
3.202960E+03	2.395163E-16	1.626610E-18
3.212907E+03	2.444415E-16	1.660058E-18
3.222854E+03	2.495755E-16	1.694924E-18
3.232801E+03	2.548765E-16	1.730925E-18
3.242749E+03	2.603752E-16	1.768268E-18
3.252696E+03	2.660787E-16	1.807001E-18
3.262643E+03	2.719944E-16	1.847176E-18
3.272590E+03	2.781303E-16	1.888846E-18
3.282537E+03	2.845197E-16	1.932238E-18
3.292484E+03	2.911470E-16	1.977246E-18
3.302431E+03	2.980217E-16	2.023933E-18
3.312378E+03	3.051539E-16	2.072369E-18
3.322325E+03	3.125795E-16	2.122798E-18
3.332272E+03	3.203103E-16	2.175300E-18
3.342219E+03	3.283330E-16	2.229784E-18
3.352166E+03	3.367120E-16	2.286688E-18
3.362114E+03	3.454094E-16	2.345753E-18
3.372061E+03	3.544655E-16	2.407256E-18
3.382008E+03	3.638957E-16	2.471298E-18
3.391955E+03	3.737431E-16	2.538174E-18
3.401902E+03	3.839709E-16	2.607633E-18
3.411849E+03	3.946788E-16	2.680353E-18
3.421796E+03	4.058036E-16	2.755904E-18
3.431743E+03	4.174204E-16	2.834796E-18
3.441690E+03	4.295504E-16	2.917174E-18
3.451637E+03	4.421873E-16	3.002994E-18
3.461584E+03	4.554114E-16	3.092801E-18
3.471531E+03	4.691890E-16	3.186368E-18
3.481479E+03	4.835736E-16	3.284057E-18
3.491426E+03	4.985910E-16	3.386044E-18
3.501373E+03	5.142983E-16	3.492715E-18
3.511320E+03	5.306929E-16	3.604054E-18
3.521267E+03	5.478029E-16	3.720252E-18
3.531214E+03	5.656569E-16	3.841502E-18
3.541161E+03	5.843480E-16	3.968438E-18
3.551108E+03	6.038107E-16	4.100613E-18
3.561055E+03	6.241721E-16	4.238892E-18
3.571002E+03	6.453975E-16	4.383039E-18
3.580949E+03	6.675502E-16	4.533483E-18
3.590896E+03	6.906951E-16	4.690664E-18
3.600844E+03	7.147927E-16	4.854317E-18
3.610791E+03	7.399054E-16	5.024862E-18
3.620738E+03	7.660952E-16	5.202723E-18
3.630685E+03	7.933882E-16	5.388076E-18
3.640632E+03	8.217326E-16	5.580568E-18
3.650579E+03	8.512604E-16	5.781099E-18
3.660526E+03	8.819137E-16	5.989272E-18
3.670473E+03	9.137037E-16	6.205164E-18
3.680420E+03	9.467180E-16	6.429371E-18
3.690367E+03	9.808818E-16	6.661386E-18
3.700314E+03	1.016274E-15	6.901741E-18
3.710261E+03	1.052847E-15	7.150120E-18
3.720208E+03	1.090545E-15	7.406131E-18
3.730156E+03	1.129471E-15	7.670489E-18
3.740103E+03	1.169468E-15	7.942117E-18
3.750050E+03	1.210583E-15	8.221333E-18
3.759997E+03	1.252720E-15	8.507499E-18
3.769944E+03	1.295866E-15	8.800514E-18
3.779891E+03	1.339902E-15	9.099572E-18
3.789838E+03	1.384791E-15	9.404423E-18
3.799785E+03	1.430387E-15	9.714075E-18
3.809732E+03	1.476677E-15	1.002844E-17
3.819679E+03	1.523438E-15	1.034600E-17
3.829626E+03	1.570529E-15	1.066581E-17
3.839573E+03	1.617846E-15	1.098715E-17
3.849521E+03	1.665222E-15	1.130889E-17
3.859468E+03	1.712473E-15	1.162978E-17
3.869415E+03	1.759404E-15	1.194849E-17
3.879362E+03	1.805753E-15	1.226326E-17
3.880379E+03	7.678464E-16	5.214613E-18
3.882082E+03	8.163768E-16	5.544193E-18
3.883784E+03	8.677843E-16	5.893313E-18
3.885487E+03	9.222443E-16	6.263163E-18
3.887190E+03	9.815324E-16	6.665801E-18
3.888892E+03	1.042276E-15	7.078327E-18
3.890595E+03	1.100722E-15	7.475241E-18
3.892297E+03	1.156648E-15	7.855050E-18
3.894000E+03	1.211830E-15	8.229805E-18
3.895702E+03	1.267793E-15	8.609862E-18
3.897405E+03	1.323993E-15	8.991526E-18
3.899108E+03	1.380973E-15	9.378493E-18
3.900810E+03	1.437647E-15	9.763372E-18
3.902513E+03	1.492049E-15	1.013283E-17
3.904215E+03	1.543745E-15	1.048391E-17
3.905918E+03	1.595240E-15	1.083363E-17
3.907620E+03	1.645227E-15	1.117309E-17
3.909322E+03	1.694138E-15	1.150526E-17
3.911025E+03	1.742632E-15	1.183459E-17
3.912727E+03	1.791469E-15	1.216626E-17
3.914430E+03	1.838904E-15	1.248840E-17
3.916132E+03	1.885047E-15	1.280176E-17
3.917835E+03	1.931641E-15	1.311820E-17
3.919538E+03	1.979454E-15	1.344290E-17
3.921240E+03	2.026628E-15	1.376327E-17
3.922943E+03	2.073710E-15	1.408302E-17
3.924645E+03	2.120263E-15	1.439917E-17
3.926348E+03	2.164757E-15	1.470133E-17
3.928051E+03	2.207518E-15	1.499174E-17
3.929753E+03	2.249312E-15	1.527557E-17
3.931456E+03	2.289808E-15	1.555059E-17
3.933158E+03	2.329228E-15	1.581829E-17
3.934861E+03	2.364944E-15	1.606085E-17
3.936563E+03	2.399251E-15	1.629384E-17
3.938265E+03	2.434885E-15	1.653583E-17
3.939968E+03	2.469328E-15	1.676974E-17
3.941670E+03	2.502253E-15	1.699334E-17
3.943373E+03	2.536066E-15	1.722298E-17
3.945075E+03	2.567265E-15	1.743486E-17
3.946778E+03	2.593222E-15	1.761114E-17
3.948481E+03	2.613934E-15	1.775179E-17
3.950183E+03	2.626769E-15	1.783896E-17
3.951886E+03	2.636324E-15	1.790385E-17
3.953588E+03	2.645555E-15	1.796654E-17
3.955291E+03	2.653805E-15	1.802257E-17
3.956993E+03	2.665676E-15	1.810319E-17
3.958696E+03	2.684897E-15	1.823372E-17
3.960399E+03	2.705441E-15	1.837324E-17
3.962101E+03	2.724678E-15	1.850388E-17
3.963804E+03	2.741291E-15	1.861670E-17
3.965506E+03	2.750453E-15	1.867893E-17
3.967208E+03	2.751392E-15	1.868530E-17
3.968911E+03	2.746846E-15	1.865443E-17
3.970613E+03	2.737581E-15	1.859151E-17
3.972316E+03	2.724582E-15	1.850323E-17
3.974018E+03	2.708286E-15	1.839256E-17
3.975721E+03	2.688471E-15	1.825799E-17
3.977423E+03	2.663817E-15	1.809056E-17
3.979126E+03	2.635752E-15	1.789996E-17
3.980829E+03	2.605260E-15	1.769289E-17
3.982531E+03	2.573109E-15	1.747454E-17
3.984234E+03	2.541168E-15	1.725762E-17
3.985936E+03	2.510205E-15	1.704735E-17
3.987639E+03	2.477363E-15	1.682431E-17
3.989341E+03	2.442200E-15	1.658551E-17
3.991044E+03	2.406586E-15	1.634365E-17
3.992747E+03	2.371290E-15	1.610394E-17
3.994449E+03	2.336971E-15	1.587088E-17
3.996151E+03	2.304842E-15	1.565268E-17
3.997853E+03	2.276445E-15	1.545983E-17
3.999556E+03	2.251231E-15	1.528860E-17
4.001259E+03	2.228541E-15	1.513451E-17
4.002961E+03	2.207275E-15	1.499009E-17
4.004664E+03	2.187876E-15	1.485834E-17
4.006366E+03	2.170674E-15	1.474152E-17
4.008069E+03	2.154128E-15	1.462915E-17
4.009772E+03	2.140001E-15	1.453321E-17
4.011474E+03	2.130501E-15	1.446870E-17
4.013177E+03	2.125188E-15	1.443262E-17
4.014879E+03	2.121640E-15	1.440852E-17
4.016582E+03	2.121511E-15	1.440764E-17
4.018284E+03	2.123370E-15	1.442026E-17
4.019987E+03	2.124789E-15	1.442990E-17
4.021690E+03	2.129521E-15	1.446204E-17
4.023392E+03	2.137459E-15	1.451595E-17
4.025094E+03	2.148382E-15	1.459013E-17
4.026796E+03	2.162404E-15	1.468535E-17
4.028499E+03	2.181073E-15	1.481214E-17
4.030201E+03	2.201518E-15	1.495099E-17
4.031904E+03	2.222747E-15	1.509515E-17
4.033607E+03	2.243323E-15	1.523489E-17
4.035309E+03	2.263798E-15	1.537394E-17
4.037012E+03	2.283287E-15	1.550630E-17
4.038714E+03	2.299469E-15	1.561619E-17
4.040417E+03	2.314994E-15	1.572162E-17
4.042120E+03	2.330527E-15	1.582712E-17
4.043822E+03	2.343301E-15	1.591387E-17
4.045525E+03	2.355972E-15	1.599991E-17
4.047227E+03	2.371638E-15	1.610631E-17
4.048930E+03	2.387313E-15	1.621276E-17
4.050633E+03	2.403218E-15	1.632077E-17
4.052335E+03	2.421014E-15	1.644163E-17
4.054038E+03	2.438598E-15	1.656105E-17
4.055739E+03	2.455416E-15	1.667526E-17
4.057442E+03	2.473904E-15	1.680082E-17
4.059144E+03	2.493401E-15	1.693323E-17
4.060847E+03	2.512797E-15	1.706495E-17
4.062549E+03	2.533423E-15	1.720503E-17
4.064252E+03	2.555614E-15	1.735573E-17
4.065955E+03	2.579369E-15	1.751705E-17
4.067657E+03	2.605690E-15	1.769580E-17
4.069360E+03	2.632358E-15	1.787691E-17
4.071062E+03	2.655817E-15	1.803623E-17
4.072765E+03	2.677179E-15	1.818130E-17
4.074468E+03	2.697219E-15	1.831740E-17
4.076170E+03	2.716269E-15	1.844677E-17
4.077873E+03	2.738442E-15	1.859735E-17
4.079575E+03	2.765519E-15	1.878124E-17
4.081278E+03	2.793277E-15	1.896975E-17
4.082981E+03	2.818714E-15	1.914250E-17
4.084682E+03	2.841716E-15	1.929871E-17
4.086385E+03	2.859168E-15	1.941723E-17
4.088087E+03	2.869170E-15	1.948515E-17
4.089790E+03	2.874614E-15	1.952212E-17
4.091492E+03	2.879172E-15	1.955308E-17
4.093195E+03	2.882175E-15	1.957347E-17
4.094898E+03	2.883064E-15	1.957951E-17
4.096600E+03	2.883176E-15	1.958027E-17
4.098303E+03	2.881172E-15	1.956666E-17
4.100005E+03	2.874821E-15	1.952353E-17
4.101708E+03	2.866239E-15	1.946525E-17
4.103410E+03	2.854977E-15	1.938877E-17
4.105113E+03	2.841369E-15	1.929635E-17
4.106816E+03	2.828428E-15	1.920846E-17
4.108518E+03	2.814253E-15	1.911220E-17
4.110221E+03	2.797283E-15	1.899695E-17
4.111923E+03	2.779748E-15	1.887787E-17
4.113626E+03	2.761202E-15	1.875192E-17
4.115328E+03	2.740191E-15	1.860923E-17
4.117030E+03	2.718277E-15	1.846041E-17
4.118733E+03	2.695573E-15	1.830622E-17
4.120435E+03	2.672077E-15	1.814665E-17
4.122138E+03	2.647453E-15	1.797942E-17
4.123840E+03	2.623043E-15	1.781365E-17
4.125543E+03	2.599294E-15	1.765236E-17
4.127246E+03	2.574640E-15	1.748494E-17
4.128948E+03	2.549416E-15	1.731363E-17
4.130651E+03	2.523286E-15	1.713618E-17
4.132353E+03	2.494009E-15	1.693735E-17
4.134056E+03	2.462926E-15	1.672626E-17
4.135759E+03	2.430149E-15	1.650367E-17
4.137461E+03	2.395677E-15	1.626956E-17
4.139164E+03	2.362646E-15	1.604524E-17
4.140866E+03	2.331282E-15	1.583224E-17
4.142569E+03	2.299793E-15	1.561839E-17
4.144271E+03	2.270308E-15	1.541815E-17
4.145973E+03	2.242606E-15	1.523002E-17
4.147676E+03	2.219046E-15	1.507002E-17
4.149378E+03	2.204795E-15	1.497324E-17
4.151081E+03	2.195930E-15	1.491304E-17
4.152783E+03	2.189646E-15	1.487036E-17
4.154486E+03	2.189542E-15	1.486965E-17
4.156189E+03	2.189438E-15	1.486895E-17
4.157891E+03	2.181129E-15	1.481252E-17
4.159594E+03	2.171356E-15	1.474615E-17
4.161296E+03	2.162929E-15	1.468892E-17
4.162999E+03	2.149436E-15	1.459728E-17
4.164701E+03	2.134024E-15	1.449261E-17
4.166404E+03	2.120520E-15	1.440091E-17
4.168107E+03	2.105321E-15	1.429769E-17
4.169809E+03	2.089440E-15	1.418983E-17
4.171512E+03	2.076593E-15	1.410259E-17
4.173214E+03	2.064757E-15	1.402221E-17
4.174916E+03	2.052916E-15	1.394179E-17
4.176618E+03	2.042198E-15	1.386901E-17
4.178321E+03	2.030574E-15	1.379006E-17
4.180024E+03	2.017365E-15	1.370036E-17
4.181726E+03	2.003812E-15	1.360832E-17
4.183429E+03	1.990254E-15	1.351624E-17
4.185131E+03	1.974882E-15	1.341185E-17
4.186834E+03	1.956455E-15	1.328671E-17
4.188537E+03	1.937116E-15	1.315537E-17
4.190239E+03	1.917428E-15	1.302166E-17
4.191942E+03	1.895809E-15	1.287484E-17
4.193644E+03	1.872030E-15	1.271336E-17
4.195347E+03	1.848581E-15	1.255411E-17
4.197049E+03	1.823648E-15	1.238478E-17
4.198752E+03	1.795534E-15	1.219386E-17
4.200455E+03	1.765934E-15	1.199283E-17
4.202157E+03	1.736998E-15	1.179632E-17
4.203859E+03	1.709293E-15	1.160817E-17
4.205561E+03	1.681573E-15	1.141992E-17
4.207264E+03	1.656559E-15	1.125005E-17
4.208967E+03	1.633913E-15	1.109625E-17
4.210669E+03	1.612956E-15	1.095393E-17
4.212372E+03	1.593237E-15	1.082002E-17
4.214074E+03	1.576458E-15	1.070606E-17
4.215777E+03	1.559443E-15	1.059051E-17
4.217480E+03	1.540717E-15	1.046334E-17
4.219182E+03	1.522663E-15	1.034073E-17
4.220885E+03	1.504372E-15	1.021652E-17
4.222587E+03	1.486640E-15	1.009609E-17
4.224290E+03	1.471854E-15	9.995680E-18
4.225992E+03	1.461609E-15	9.926102E-18
4.227695E+03	1.453748E-15	9.872717E-18
4.229398E+03	1.447591E-15	9.830903E-18
4.231100E+03	1.441545E-15	9.789841E-18
4.232802E+03	1.435155E-15	9.746444E-18
4.234504E+03	1.428648E-15	9.702258E-18
4.236207E+03	1.422140E-15	9.658058E-18
4.237910E+03	1.418364E-15	9.632411E-18
4.239612E+03	1.418690E-15	9.634629E-18
4.241315E+03	1.421185E-15	9.651569E-18
4.243017E+03	1.426533E-15	9.687894E-18
4.244720E+03	1.434283E-15	9.740522E-18
4.246422E+03	1.441811E-15	9.791645E-18
4.248125E+03	1.449345E-15	9.842814E-18
4.249827E+03	1.457685E-15	9.899451E-18
4.251530E+03	1.467403E-15	9.965446E-18
4.253233E+03	1.479185E-15	1.004546E-17
4.254935E+03	1.493376E-15	1.014184E-17
4.256638E+03	1.506665E-15	1.023208E-17
4.258340E+03	1.518704E-15	1.031385E-17
4.260043E+03	1.529724E-15	1.038868E-17
4.261746E+03	1.539608E-15	1.045581E-17
4.263447E+03	1.548698E-15	1.051754E-17
4.265150E+03	1.559400E-15	1.059022E-17
4.266852E+03	1.572860E-15	1.068163E-17
4.268555E+03	1.590687E-15	1.080269E-17
4.270257E+03	1.611621E-15	1.094486E-17
4.271960E+03	1.633490E-15	1.109338E-17
4.273663E+03	1.655489E-15	1.124278E-17
4.275365E+03	1.676128E-15	1.138294E-17
4.277068E+03	1.694832E-15	1.150996E-17
4.278770E+03	1.710563E-15	1.161680E-17
4.280473E+03	1.724125E-15	1.170890E-17
4.282176E+03	1.735859E-15	1.178859E-17
4.283878E+03	1.746224E-15	1.185898E-17
4.285581E+03	1.756023E-15	1.192553E-17
4.287283E+03	1.769627E-15	1.201791E-17
4.288986E+03	1.787500E-15	1.213929E-17
4.290689E+03	1.806194E-15	1.226625E-17
4.292390E+03	1.825709E-15	1.239878E-17
4.294093E+03	1.846391E-15	1.253924E-17
4.295795E+03	1.864901E-15	1.266494E-17
4.297498E+03	1.881582E-15	1.277823E-17
4.299200E+03	1.901621E-15	1.291431E-17
4.300903E+03	1.925022E-15	1.307323E-17
4.302606E+03	1.951558E-15	1.325345E-17
4.304308E+03	1.979500E-15	1.344321E-17
4.306011E+03	2.005964E-15	1.362293E-17
4.307713E+03	2.030485E-15	1.378946E-17
4.309416E+03	2.053409E-15	1.394514E-17
4.311118E+03	2.071496E-15	1.406797E-17
4.312821E+03	2.086939E-15	1.417285E-17
4.314524E+03	2.101586E-15	1.427232E-17
4.316226E+03	2.113817E-15	1.435538E-17
4.317929E+03	2.123858E-15	1.442357E-17
4.319631E+03	2.132404E-15	1.448161E-17
4.321334E+03	2.140265E-15	1.453500E-17
4.323035E+03	2.147206E-15	1.458214E-17
4.324738E+03	2.152880E-15	1.462067E-17
4.326441E+03	2.159606E-15	1.466635E-17
4.328143E+03	2.165759E-15	1.470813E-17
4.329846E+03	2.170062E-15	1.473736E-17
4.331548E+03	2.173675E-15	1.476189E-17
4.333251E+03	2.177176E-15	1.478567E-17
4.334954E+03	2.180452E-15	1.480792E-17
4.336656E+03	2.185593E-15	1.484283E-17
4.338359E+03	2.192369E-15	1.488884E-17
4.340061E+03	2.201364E-15	1.494993E-17
4.341764E+03	2.210602E-15	1.501267E-17
4.343467E+03	2.217055E-15	1.505649E-17
4.345169E+03	2.220138E-15	1.507743E-17
4.346872E+03	2.220896E-15	1.508258E-17
4.348574E+03	2.218860E-15	1.506875E-17
4.350277E+03	2.215660E-15	1.504702E-17
4.351978E+03	2.213742E-15	1.503400E-17
4.353681E+03	2.212644E-15	1.502654E-17
4.355384E+03	2.213884E-15	1.503496E-17
4.357086E+03	2.218982E-15	1.506958E-17
4.358789E+03	2.227477E-15	1.512727E-17
4.360491E+03	2.236681E-15	1.518978E-17
4.362194E+03	2.246950E-15	1.525952E-17
4.363897E+03	2.257697E-15	1.533250E-17
4.365599E+03	2.268220E-15	1.540397E-17
4.367302E+03	2.279575E-15	1.548108E-17
4.369004E+03	2.290471E-15	1.555507E-17
4.370707E+03	2.302080E-15	1.563392E-17
4.372409E+03	2.316632E-15	1.573274E-17
4.374112E+03	2.333778E-15	1.584918E-17
4.375815E+03	2.351408E-15	1.596891E-17
4.377517E+03	2.371048E-15	1.610229E-17
4.379220E+03	2.390118E-15	1.623180E-17
4.380921E+03	2.404856E-15	1.633189E-17
4.382624E+03	2.415729E-15	1.640573E-17
4.384326E+03	2.423199E-15	1.645646E-17
4.386029E+03	2.428912E-15	1.649526E-17
4.387732E+03	2.434511E-15	1.653328E-17
4.389434E+03	2.440112E-15	1.657132E-17
4.391137E+03	2.444775E-15	1.660299E-17
4.392839E+03	2.450500E-15	1.664187E-17
4.394542E+03	2.453989E-15	1.666556E-17
4.396245E+03	2.453706E-15	1.666364E-17
4.397947E+03	2.451649E-15	1.664967E-17
4.399650E+03	2.446875E-15	1.661725E-17
4.401352E+03	2.438434E-15	1.655993E-17
4.403055E+03	2.429867E-15	1.650174E-17
4.404757E+03	2.424244E-15	1.646355E-17
4.406460E+03	2.419796E-15	1.643335E-17
4.408163E+03	2.414279E-15	1.639588E-17
4.409865E+03	2.406389E-15	1.634230E-17
4.411567E+03	2.394348E-15	1.626052E-17
4.413269E+03	2.377084E-15	1.614328E-17
4.414972E+03	2.357317E-15	1.600904E-17
4.416675E+03	2.340257E-15	1.589318E-17
4.418377E+03	2.324604E-15	1.578688E-17
4.420080E+03	2.310597E-15	1.569176E-17
4.421782E+03	2.298831E-15	1.561185E-17
4.423485E+03	2.285391E-15	1.552058E-17
4.425187E+03	2.267071E-15	1.539616E-17
4.426890E+03	2.248377E-15	1.526920E-17
4.428593E+03	2.231687E-15	1.515586E-17
4.430295E+03	2.215812E-15	1.504805E-17
4.431998E+03	2.199924E-15	1.494015E-17
4.433700E+03	2.184378E-15	1.483458E-17
4.435403E+03	2.168223E-15	1.472486E-17
4.437106E+03	2.148837E-15	1.459321E-17
4.438808E+03	2.127052E-15	1.444526E-17
4.440510E+03	2.107036E-15	1.430933E-17
4.442212E+03	2.087597E-15	1.417732E-17
4.443915E+03	2.068857E-15	1.405005E-17
4.445617E+03	2.050220E-15	1.392348E-17
4.447320E+03	2.031686E-15	1.379761E-17
4.449023E+03	2.012299E-15	1.366595E-17
4.450725E+03	1.993254E-15	1.353661E-17
4.452428E+03	1.974551E-15	1.340959E-17
4.454130E+03	1.955711E-15	1.328165E-17
4.455833E+03	1.936377E-15	1.315035E-17
4.457535E+03	1.917384E-15	1.302136E-17
4.459238E+03	1.900531E-15	1.290691E-17
4.460941E+03	1.884859E-15	1.280048E-17
4.462643E+03	1.870251E-15	1.270127E-17
4.464346E+03	1.857907E-15	1.261744E-17
4.466048E+03	1.844952E-15	1.252946E-17
4.467751E+03	1.827909E-15	1.241372E-17
4.469454E+03	1.809172E-15	1.228647E-17
4.471155E+03	1.794858E-15	1.218926E-17
4.472858E+03	1.785814E-15	1.212784E-17
4.474560E+03	1.782526E-15	1.210551E-17
4.476263E+03	1.786081E-15	1.212966E-17
4.477965E+03	1.794444E-15	1.218645E-17
4.479668E+03	1.804256E-15	1.225308E-17
4.481371E+03	1.815997E-15	1.233282E-17
4.483073E+03	1.831113E-15	1.243548E-17
4.484776E+03	1.849128E-15	1.255782E-17
4.486478E+03	1.870285E-15	1.270150E-17
4.488181E+03	1.890733E-15	1.284037E-17
4.489884E+03	1.909266E-15	1.296623E-17
4.491586E+03	1.929498E-15	1.310363E-17
4.493289E+03	1.951674E-15	1.325423E-17
4.494991E+03	1.977119E-15	1.342704E-17
4.496694E+03	2.010909E-15	1.365651E-17
4.498397E+03	2.050878E-15	1.392795E-17
4.500098E+03	2.091719E-15	1.420531E-17
4.501801E+03	2.131984E-15	1.447875E-17
4.503503E+03	2.173483E-15	1.476058E-17
4.505206E+03	2.215495E-15	1.504589E-17
4.506908E+03	2.258865E-15	1.534043E-17
4.508611E+03	2.301901E-15	1.563269E-17
4.510314E+03	2.347507E-15	1.594241E-17
4.512016E+03	2.393748E-15	1.625645E-17
4.513719E+03	2.438445E-15	1.656000E-17
4.515421E+03	2.482929E-15	1.686210E-17
4.517124E+03	2.529018E-15	1.717509E-17
4.518826E+03	2.576227E-15	1.749570E-17
4.520529E+03	2.622620E-15	1.781076E-17
4.522232E+03	2.670132E-15	1.813343E-17
4.523934E+03	2.717069E-15	1.845219E-17
4.525637E+03	2.760516E-15	1.874725E-17
4.527339E+03	2.802410E-15	1.903176E-17
4.529041E+03	2.844695E-15	1.931893E-17
4.530743E+03	2.885791E-15	1.959801E-17
4.532446E+03	2.926425E-15	1.987397E-17
4.534149E+03	2.971707E-15	2.018149E-17
4.535851E+03	3.018111E-15	2.049663E-17
