#wls	flux	fluxerr
1.591533E+03	1.061130E-17	3.920870E-19
1.631321E+03	1.087152E-17	4.005638E-19
1.671110E+03	1.113434E-17	4.090520E-19
1.710898E+03	1.139562E-17	4.173968E-19
1.750686E+03	1.165064E-17	4.254236E-19
1.790475E+03	1.190336E-17	4.332756E-19
1.830263E+03	1.214544E-17	4.406489E-19
1.870051E+03	1.237092E-17	4.473284E-19
1.909840E+03	1.257304E-17	4.530745E-19
1.949628E+03	1.274967E-17	4.578169E-19
1.989416E+03	1.289599E-17	4.613904E-19
2.029205E+03	1.302243E-17	4.641770E-19
2.068993E+03	1.315828E-17	4.672221E-19
2.108781E+03	1.335548E-17	4.723579E-19
2.148570E+03	1.366613E-17	4.813907E-19
2.188358E+03	1.411718E-17	4.952137E-19
2.228146E+03	1.470360E-17	5.135841E-19
2.267935E+03	1.539794E-17	5.354805E-19
2.307723E+03	1.616320E-17	5.595645E-19
2.347511E+03	1.697083E-17	5.848098E-19
2.387300E+03	1.779997E-17	6.104721E-19
2.427088E+03	1.865266E-17	6.366005E-19
2.466876E+03	1.951940E-17	6.628510E-19
2.506665E+03	2.040731E-17	6.894466E-19
2.546453E+03	2.132054E-17	7.165052E-19
2.586241E+03	2.226882E-17	7.443276E-19
2.626030E+03	2.325198E-17	7.728778E-19
2.665818E+03	2.427451E-17	8.022730E-19
2.705606E+03	2.534616E-17	8.327988E-19
2.745395E+03	2.646570E-17	8.643739E-19
2.785183E+03	2.764269E-17	8.972667E-19
2.824971E+03	2.887517E-17	9.313652E-19
2.864759E+03	3.017254E-17	9.669219E-19
2.904548E+03	3.154459E-17	1.004192E-18
2.944336E+03	3.298235E-17	1.042829E-18
2.984124E+03	3.449501E-17	1.083062E-18
2.994072E+03	3.488707E-17	1.093430E-18
3.004019E+03	3.528281E-17	1.103861E-18
3.013966E+03	3.568225E-17	1.114355E-18
3.023913E+03	3.609219E-17	1.125122E-18
3.033860E+03	3.650655E-17	1.135972E-18
3.043807E+03	3.692516E-17	1.146898E-18
3.053754E+03	3.734916E-17	1.157935E-18
3.063701E+03	3.777837E-17	1.169075E-18
3.073648E+03	3.821263E-17	1.180312E-18
3.083595E+03	3.865875E-17	1.191856E-18
3.093542E+03	3.910970E-17	1.203488E-18
3.103489E+03	3.956534E-17	1.215201E-18
3.113437E+03	4.003265E-17	1.227209E-18
3.123384E+03	4.049732E-17	1.239073E-18
3.133331E+03	4.097352E-17	1.251224E-18
3.143278E+03	4.145403E-17	1.263439E-18
3.153225E+03	4.194604E-17	1.275938E-18
3.163172E+03	4.243491E-17	1.288273E-18
3.173119E+03	4.293519E-17	1.300885E-18
3.183066E+03	4.343951E-17	1.313548E-18
3.193013E+03	4.394776E-17	1.326259E-18
3.202960E+03	4.446744E-17	1.339243E-18
3.212907E+03	4.499101E-17	1.352269E-18
3.222854E+03	4.551840E-17	1.365336E-18
3.232801E+03	4.604954E-17	1.378439E-18
3.242749E+03	4.658437E-17	1.391576E-18
3.252696E+03	4.713061E-17	1.404977E-18
3.262643E+03	4.768052E-17	1.418408E-18
3.272590E+03	4.823401E-17	1.431867E-18
3.282537E+03	4.879899E-17	1.445585E-18
3.292484E+03	4.936754E-17	1.459326E-18
3.302431E+03	4.993959E-17	1.473089E-18
3.312378E+03	5.051509E-17	1.486868E-18
3.322325E+03	5.109398E-17	1.500664E-18
3.332272E+03	5.168438E-17	1.514711E-18
3.342219E+03	5.227813E-17	1.528769E-18
3.352166E+03	5.287516E-17	1.542835E-18
3.362114E+03	5.348375E-17	1.557150E-18
3.372061E+03	5.409559E-17	1.571468E-18
3.382008E+03	5.471058E-17	1.585786E-18
3.391955E+03	5.532866E-17	1.600102E-18
3.401902E+03	5.595827E-17	1.614659E-18
3.411849E+03	5.659088E-17	1.629207E-18
3.421796E+03	5.722641E-17	1.643743E-18
3.431743E+03	5.786474E-17	1.658265E-18
3.441690E+03	5.851450E-17	1.673016E-18
3.451637E+03	5.916694E-17	1.687746E-18
3.461584E+03	5.982192E-17	1.702449E-18
3.471531E+03	6.048822E-17	1.717373E-18
3.481479E+03	6.115691E-17	1.732264E-18
3.491426E+03	6.182785E-17	1.747116E-18
3.501373E+03	6.250090E-17	1.761925E-18
3.511320E+03	6.318499E-17	1.776941E-18
3.521267E+03	6.387096E-17	1.791904E-18
3.531214E+03	6.455866E-17	1.806811E-18
3.541161E+03	6.525714E-17	1.821912E-18
3.551108E+03	6.595711E-17	1.836946E-18
3.561055E+03	6.665837E-17	1.851908E-18
3.571002E+03	6.736077E-17	1.866793E-18
3.580949E+03	6.807352E-17	1.881854E-18
3.590896E+03	6.878713E-17	1.896828E-18
3.600844E+03	6.950142E-17	1.911709E-18
3.610791E+03	7.022575E-17	1.926754E-18
3.620738E+03	7.095051E-17	1.941697E-18
3.630685E+03	7.167550E-17	1.956532E-18
3.640632E+03	7.241024E-17	1.971519E-18
3.650579E+03	7.314499E-17	1.986390E-18
3.660526E+03	7.387957E-17	2.001141E-18
3.670473E+03	7.461384E-17	2.015767E-18
3.680420E+03	7.535751E-17	2.030531E-18
3.690367E+03	7.610069E-17	2.045163E-18
3.700314E+03	7.684322E-17	2.059660E-18
3.710261E+03	7.759508E-17	2.074288E-18
3.720208E+03	7.834608E-17	2.088774E-18
3.730156E+03	7.909641E-17	2.103123E-18
3.740103E+03	7.984576E-17	2.117326E-18
3.750050E+03	8.060431E-17	2.131653E-18
3.759997E+03	8.136203E-17	2.145837E-18
3.769944E+03	8.212913E-17	2.160147E-18
3.779891E+03	8.289537E-17	2.174312E-18
3.789838E+03	8.366090E-17	2.188336E-18
3.799785E+03	8.442576E-17	2.202220E-18
3.809732E+03	8.520033E-17	2.216235E-18
3.819679E+03	8.597457E-17	2.230118E-18
3.829626E+03	8.674858E-17	2.243870E-18
3.839573E+03	8.752252E-17	2.257498E-18
3.849521E+03	8.830710E-17	2.271275E-18
3.859468E+03	8.909211E-17	2.284938E-18
3.869415E+03	8.988842E-17	2.298766E-18
3.879362E+03	9.068588E-17	2.312496E-18
3.889309E+03	9.148483E-17	2.326136E-18
3.899256E+03	9.228567E-17	2.339698E-18
3.909203E+03	9.309948E-17	2.353461E-18
3.919150E+03	9.391613E-17	2.367166E-18
3.929097E+03	9.473618E-17	2.380828E-18
3.939044E+03	9.557087E-17	2.394727E-18
3.948991E+03	9.639943E-17	2.408342E-18
3.958938E+03	9.725469E-17	2.422491E-18
3.968886E+03	9.810524E-17	2.436389E-18
3.978833E+03	9.897327E-17	2.450587E-18
3.988780E+03	9.984879E-17	2.464834E-18
3.998727E+03	1.007327E-16	2.479151E-18
4.008674E+03	1.016368E-16	2.493827E-18
4.018621E+03	1.025510E-16	2.508610E-18
4.028568E+03	1.034762E-16	2.523521E-18
4.038515E+03	1.044135E-16	2.538584E-18
4.048462E+03	1.053747E-16	2.554083E-18
4.058409E+03	1.063500E-16	2.569774E-18
4.068356E+03	1.073513E-16	2.585945E-18
4.078303E+03	1.083574E-16	2.602077E-18
4.088251E+03	1.093914E-16	2.618728E-18
4.098198E+03	1.104434E-16	2.635649E-18
4.108145E+03	1.115255E-16	2.653131E-18
4.118092E+03	1.126160E-16	2.670651E-18
4.128039E+03	1.137387E-16	2.688769E-18
4.137986E+03	1.148832E-16	2.707235E-18
4.147933E+03	1.160618E-16	2.726334E-18
4.157880E+03	1.172643E-16	2.745817E-18
4.167827E+03	1.184912E-16	2.765696E-18
4.177774E+03	1.197434E-16	2.785984E-18
4.187721E+03	1.210215E-16	2.806692E-18
4.197668E+03	1.223383E-16	2.828108E-18
4.207615E+03	1.236822E-16	2.849961E-18
4.217563E+03	1.250539E-16	2.872260E-18
4.227510E+03	1.264659E-16	2.895286E-18
4.237457E+03	1.279065E-16	2.918763E-18
4.247404E+03	1.293761E-16	2.942698E-18
4.257351E+03	1.308748E-16	2.967086E-18
4.267298E+03	1.324029E-16	2.991928E-18
4.277245E+03	1.339727E-16	3.017497E-18
4.287192E+03	1.355720E-16	3.043513E-18
4.297139E+03	1.372010E-16	3.069972E-18
4.307086E+03	1.388595E-16	3.096868E-18
4.317033E+03	1.405601E-16	3.124473E-18
4.326980E+03	1.422776E-16	3.152222E-18
4.336928E+03	1.440373E-16	3.180672E-18
4.346875E+03	1.458265E-16	3.209537E-18
4.356822E+03	1.476582E-16	3.239097E-18
4.366769E+03	1.495068E-16	3.268786E-18
4.376716E+03	1.514008E-16	3.299219E-18
4.386663E+03	1.533312E-16	3.330199E-18
4.396610E+03	1.553027E-16	3.361818E-18
4.406557E+03	1.573204E-16	3.394182E-18
4.416504E+03	1.593894E-16	3.427391E-18
4.426451E+03	1.615290E-16	3.461852E-18
4.436398E+03	1.637312E-16	3.497381E-18
4.446345E+03	1.660016E-16	3.534086E-18
4.456293E+03	1.683457E-16	3.572072E-18
4.466240E+03	1.707686E-16	3.611433E-18
4.476187E+03	1.732748E-16	3.652254E-18
4.486134E+03	1.758825E-16	3.694901E-18
4.496081E+03	1.785657E-16	3.738813E-18
4.506028E+03	1.813550E-16	3.784613E-18
4.515975E+03	1.842358E-16	3.831978E-18
4.525922E+03	1.872062E-16	3.880853E-18
4.535869E+03	1.902627E-16	3.931146E-18
4.545816E+03	1.933995E-16	3.982721E-18
4.555763E+03	1.966089E-16	4.035407E-18
4.565710E+03	1.998972E-16	4.089315E-18
4.575658E+03	2.032218E-16	4.143567E-18
4.585605E+03	2.066025E-16	4.198557E-18
4.595552E+03	2.100108E-16	4.253696E-18
4.605499E+03	2.134177E-16	4.308397E-18
4.615446E+03	2.168444E-16	4.363084E-18
4.625393E+03	2.202642E-16	4.417222E-18
4.635340E+03	2.236685E-16	4.470641E-18
4.645287E+03	2.270508E-16	4.523216E-18
4.655234E+03	2.304072E-16	4.574872E-18
4.665181E+03	2.337353E-16	4.625570E-18
4.675128E+03	2.370353E-16	4.675317E-18
4.685075E+03	2.403087E-16	4.724153E-18
4.695022E+03	2.435762E-16	4.772488E-18
4.704970E+03	2.468049E-16	4.819679E-18
4.714917E+03	2.500129E-16	4.866089E-18
4.724864E+03	2.532006E-16	4.911729E-18
4.734811E+03	2.563859E-16	4.956949E-18
4.744758E+03	2.595303E-16	5.001010E-18
4.754705E+03	2.626489E-16	5.044208E-18
4.764652E+03	2.657365E-16	5.086448E-18
4.774599E+03	2.688043E-16	5.127953E-18
4.784546E+03	2.718040E-16	5.167807E-18
4.794493E+03	2.747413E-16	5.206128E-18
4.804440E+03	2.776003E-16	5.242635E-18
4.814387E+03	2.803627E-16	5.276992E-18
4.824335E+03	2.830083E-16	5.308839E-18
4.834282E+03	2.855152E-16	5.337790E-18
4.844229E+03	2.878609E-16	5.363450E-18
4.854176E+03	2.900226E-16	5.385426E-18
4.864123E+03	2.919790E-16	5.403356E-18
4.874070E+03	2.937107E-16	5.416921E-18
4.884017E+03	2.951818E-16	5.425504E-18
4.893964E+03	2.964209E-16	5.429675E-18
4.903911E+03	2.973822E-16	5.428638E-18
4.913858E+03	2.981049E-16	5.423162E-18
4.923805E+03	2.985543E-16	5.412661E-18
4.933752E+03	2.987597E-16	5.397712E-18
4.943700E+03	2.987343E-16	5.378596E-18
4.953647E+03	2.984935E-16	5.355634E-18
4.963594E+03	2.980548E-16	5.329179E-18
4.973541E+03	2.974366E-16	5.299592E-18
4.983488E+03	2.966382E-16	5.266895E-18
4.993435E+03	2.957166E-16	5.232127E-18
5.003382E+03	2.946510E-16	5.194945E-18
5.013329E+03	2.934773E-16	5.156005E-18
5.023276E+03	2.922114E-16	5.115606E-18
5.033223E+03	2.908508E-16	5.073717E-18
5.043170E+03	2.894479E-16	5.031270E-18
5.053117E+03	2.879821E-16	4.987912E-18
5.063064E+03	2.864882E-16	4.944257E-18
5.073012E+03	2.849830E-16	4.900598E-18
5.082959E+03	2.834840E-16	4.857235E-18
5.092906E+03	2.820080E-16	4.814455E-18
5.102853E+03	2.805543E-16	4.772243E-18
5.112800E+03	2.791561E-16	4.731153E-18
5.122747E+03	2.778273E-16	4.691413E-18
5.132694E+03	2.765802E-16	4.653213E-18
5.142641E+03	2.754082E-16	4.616430E-18
5.152588E+03	2.743367E-16	4.581474E-18
5.162535E+03	2.733720E-16	4.548433E-18
5.172482E+03	2.725190E-16	4.517364E-18
5.182429E+03	2.717807E-16	4.488299E-18
5.192377E+03	2.711426E-16	4.460979E-18
5.202324E+03	2.706218E-16	4.435663E-18
5.212271E+03	2.702020E-16	4.412066E-18
5.222218E+03	2.699146E-16	4.390681E-18
5.232165E+03	2.697271E-16	4.370955E-18
5.242112E+03	2.696545E-16	4.353114E-18
5.252059E+03	2.696806E-16	4.336875E-18
5.262006E+03	2.698205E-16	4.322466E-18
5.271953E+03	2.700736E-16	4.309854E-18
5.281900E+03	2.704395E-16	4.299014E-18
5.291847E+03	2.709021E-16	4.289672E-18
5.301794E+03	2.714767E-16	4.282050E-18
5.311742E+03	2.721633E-16	4.276129E-18
5.321689E+03	2.729460E-16	4.271644E-18
5.331636E+03	2.738408E-16	4.268826E-18
5.341583E+03	2.748477E-16	4.267655E-18
5.351530E+03	2.759510E-16	4.267870E-18
5.361477E+03	2.771657E-16	4.269686E-18
5.371424E+03	2.784904E-16	4.273064E-18
5.381371E+03	2.799068E-16	4.277705E-18
5.391318E+03	2.814263E-16	4.283769E-18
5.401265E+03	2.830273E-16	4.290911E-18
5.411212E+03	2.847335E-16	4.299474E-18
5.421159E+03	2.864873E-16	4.308580E-18
5.431107E+03	2.883242E-16	4.318752E-18
5.441054E+03	2.901987E-16	4.329299E-18
5.451001E+03	2.920954E-16	4.339990E-18
5.460948E+03	2.940296E-16	4.351049E-18
5.470895E+03	2.959317E-16	4.361447E-18
5.480842E+03	2.978171E-16	4.371419E-18
5.490789E+03	2.996181E-16	4.379983E-18
5.500736E+03	3.012988E-16	4.386634E-18
5.510683E+03	3.028570E-16	4.391362E-18
5.520630E+03	3.042105E-16	4.393003E-18
5.530577E+03	3.053786E-16	4.391870E-18
5.540524E+03	3.063039E-16	4.387172E-18
5.550471E+03	3.069684E-16	4.378695E-18
5.560419E+03	3.073786E-16	4.366578E-18
5.570366E+03	3.075345E-16	4.350862E-18
5.580313E+03	3.074298E-16	4.331504E-18
5.590260E+03	3.071018E-16	4.309071E-18
5.600207E+03	3.065647E-16	4.283799E-18
5.610154E+03	3.058734E-16	4.256488E-18
5.620101E+03	3.050725E-16	4.227783E-18
5.630048E+03	3.041940E-16	4.198142E-18
5.639995E+03	3.032872E-16	4.168255E-18
5.649942E+03	3.024158E-16	4.139000E-18
5.659889E+03	3.016246E-16	4.110982E-18
5.669836E+03	3.009390E-16	4.084527E-18
5.679784E+03	3.003947E-16	4.060104E-18
5.689731E+03	3.000539E-16	4.038523E-18
5.699678E+03	2.998958E-16	4.019474E-18
5.709625E+03	2.999731E-16	4.003626E-18
5.719572E+03	3.003031E-16	3.991172E-18
5.729519E+03	3.008834E-16	3.982040E-18
5.739466E+03	3.017383E-16	3.976506E-18
5.749413E+03	3.028555E-16	3.974367E-18
5.759360E+03	3.042483E-16	3.975752E-18
5.769307E+03	3.058921E-16	3.980298E-18
5.779254E+03	3.077867E-16	3.987965E-18
5.789201E+03	3.098933E-16	3.998208E-18
5.799149E+03	3.121971E-16	4.010811E-18
5.809096E+03	3.146452E-16	4.025063E-18
5.819043E+03	3.172097E-16	4.040589E-18
5.828990E+03	3.198246E-16	4.056540E-18
5.838937E+03	3.224516E-16	4.072424E-18
5.848884E+03	3.250155E-16	4.087298E-18
5.858831E+03	3.274705E-16	4.100605E-18
5.868778E+03	3.297374E-16	4.111378E-18
5.878725E+03	3.317712E-16	4.119094E-18
5.888672E+03	3.334989E-16	4.122889E-18
5.898619E+03	3.348893E-16	4.122437E-18
5.908566E+03	3.358922E-16	4.117177E-18
5.918514E+03	3.364921E-16	4.106986E-18
5.928461E+03	3.367286E-16	4.092413E-18
5.938408E+03	3.365811E-16	4.073270E-18
5.948355E+03	3.361347E-16	4.050645E-18
5.958302E+03	3.354617E-16	4.025454E-18
5.968249E+03	3.346340E-16	3.998597E-18
5.978196E+03	3.337525E-16	3.971301E-18
5.988143E+03	3.329420E-16	3.945055E-18
5.998090E+03	3.322966E-16	3.920964E-18
6.008037E+03	3.319415E-16	3.900480E-18
6.017984E+03	3.319633E-16	3.884575E-18
6.027931E+03	3.324704E-16	3.874465E-18
6.037878E+03	3.335245E-16	3.870801E-18
6.047826E+03	3.352012E-16	3.874385E-18
6.057773E+03	3.375210E-16	3.885371E-18
6.067720E+03	3.405112E-16	3.903993E-18
6.077667E+03	3.441361E-16	3.929760E-18
6.087614E+03	3.483611E-16	3.962201E-18
6.097561E+03	3.530833E-16	4.000082E-18
6.107508E+03	3.581807E-16	4.041974E-18
6.117455E+03	3.635135E-16	4.086271E-18
6.127402E+03	3.688925E-16	4.130839E-18
6.137349E+03	3.740808E-16	4.173045E-18
6.147296E+03	3.788350E-16	4.210226E-18
6.157243E+03	3.829146E-16	4.239788E-18
6.167191E+03	3.861670E-16	4.260149E-18
6.177138E+03	3.886956E-16	4.272557E-18
6.187085E+03	3.905932E-16	4.278129E-18
6.197032E+03	3.919958E-16	4.278435E-18
6.206979E+03	3.930047E-16	4.274643E-18
6.216926E+03	3.937585E-16	4.268309E-18
6.226873E+03	3.943557E-16	4.260536E-18
6.236820E+03	3.949296E-16	4.252783E-18
6.246767E+03	3.955715E-16	4.246042E-18
6.256714E+03	3.963895E-16	4.241470E-18
6.266661E+03	3.975092E-16	4.240385E-18
6.276608E+03	3.990387E-16	4.243897E-18
6.286556E+03	4.010712E-16	4.252943E-18
6.296503E+03	4.037260E-16	4.268726E-18
6.306450E+03	4.071507E-16	4.292737E-18
6.316397E+03	4.114852E-16	4.326368E-18
6.326344E+03	4.168402E-16	4.370692E-18
6.336291E+03	4.234352E-16	4.427912E-18
6.346238E+03	4.313976E-16	4.499244E-18
6.356185E+03	4.408982E-16	4.586351E-18
6.366132E+03	4.521293E-16	4.691096E-18
6.376079E+03	4.652354E-16	4.814835E-18
6.386026E+03	4.803925E-16	4.959235E-18
6.395973E+03	4.977120E-16	5.125283E-18
6.405921E+03	5.173203E-16	5.314109E-18
6.415868E+03	5.392779E-16	5.526156E-18
6.425815E+03	5.635316E-16	5.760704E-18
6.435762E+03	5.900817E-16	6.017579E-18
6.445709E+03	6.186990E-16	6.294273E-18
6.455656E+03	6.490897E-16	6.587644E-18
6.465603E+03	6.808592E-16	6.893555E-18
6.475550E+03	7.134030E-16	7.205787E-18
6.485497E+03	7.460271E-16	7.517269E-18
6.495444E+03	7.778155E-16	7.818765E-18
6.505391E+03	8.077852E-16	8.100455E-18
6.515338E+03	8.348137E-16	8.351210E-18
6.525285E+03	8.576834E-16	8.559064E-18
6.535233E+03	8.752360E-16	8.712758E-18
6.545180E+03	8.864741E-16	8.802748E-18
6.555127E+03	8.905837E-16	8.821408E-18
6.565074E+03	8.870410E-16	8.764069E-18
6.575021E+03	8.757801E-16	8.630638E-18
6.584968E+03	8.572193E-16	8.425800E-18
6.594915E+03	8.321312E-16	8.157682E-18
6.604862E+03	8.015510E-16	7.836915E-18
6.614809E+03	7.667729E-16	7.476563E-18
6.624756E+03	7.290749E-16	7.089405E-18
6.634703E+03	6.897644E-16	6.688380E-18
6.644650E+03	6.499879E-16	6.284736E-18
6.654598E+03	6.106895E-16	5.887648E-18
6.664545E+03	5.726497E-16	5.504619E-18
6.674492E+03	5.364754E-16	5.141397E-18
6.684439E+03	5.025584E-16	4.801605E-18
6.694386E+03	4.711104E-16	4.487099E-18
6.704333E+03	4.422631E-16	4.198949E-18
6.714280E+03	4.160045E-16	3.936841E-18
6.724227E+03	3.922931E-16	3.700179E-18
6.734174E+03	3.710157E-16	3.487694E-18
6.744121E+03	3.520111E-16	3.297672E-18
6.754068E+03	3.351355E-16	3.128579E-18
6.764015E+03	3.202032E-16	2.978501E-18
6.773963E+03	3.070601E-16	2.845840E-18
6.783910E+03	2.955261E-16	2.728772E-18
6.793857E+03	2.854591E-16	2.625840E-18
6.803804E+03	2.767126E-16	2.535565E-18
6.813751E+03	2.691396E-16	2.456479E-18
6.823698E+03	2.626330E-16	2.387495E-18
6.833645E+03	2.570730E-16	2.327424E-18
6.843592E+03	2.523789E-16	2.275441E-18
6.853539E+03	2.484695E-16	2.230731E-18
6.863486E+03	2.452643E-16	2.192493E-18
6.873433E+03	2.427178E-16	2.160248E-18
6.883380E+03	2.407822E-16	2.133502E-18
6.893327E+03	2.394063E-16	2.111737E-18
6.903275E+03	2.385695E-16	2.094712E-18
6.913222E+03	2.382332E-16	2.082029E-18
6.923169E+03	2.383861E-16	2.073535E-18
6.933116E+03	2.390084E-16	2.069002E-18
6.943063E+03	2.400817E-16	2.068219E-18
6.953010E+03	2.415768E-16	2.070885E-18
6.962957E+03	2.434756E-16	2.076797E-18
6.972904E+03	2.457832E-16	2.085954E-18
6.982851E+03	2.484431E-16	2.097832E-18
6.992798E+03	2.514689E-16	2.112507E-18
7.002745E+03	2.548112E-16	2.129528E-18
7.012692E+03	2.584549E-16	2.148737E-18
7.022640E+03	2.623707E-16	2.169863E-18
7.032587E+03	2.665153E-16	2.192526E-18
7.042534E+03	2.708704E-16	2.216559E-18
7.052481E+03	2.754065E-16	2.241710E-18
7.062428E+03	2.800824E-16	2.267637E-18
7.072375E+03	2.848878E-16	2.294260E-18
7.082322E+03	2.898039E-16	2.321430E-18
7.092269E+03	2.948029E-16	2.348935E-18
7.102216E+03	2.998919E-16	2.376845E-18
7.112163E+03	3.050689E-16	2.405161E-18
7.122110E+03	3.103210E-16	2.433800E-18
7.132057E+03	3.156688E-16	2.462947E-18
7.142005E+03	3.211188E-16	2.492675E-18
7.151952E+03	3.266764E-16	2.523052E-18
7.161899E+03	3.323263E-16	2.553990E-18
7.171846E+03	3.380804E-16	2.585614E-18
7.181793E+03	3.439260E-16	2.617863E-18
7.191740E+03	3.498218E-16	2.650465E-18
7.201687E+03	3.557477E-16	2.683321E-18
7.211634E+03	3.616516E-16	2.716093E-18
7.221581E+03	3.674644E-16	2.748327E-18
7.231528E+03	3.730799E-16	2.779307E-18
7.241475E+03	3.784118E-16	2.808475E-18
7.251422E+03	3.833401E-16	2.835038E-18
7.261370E+03	3.877127E-16	2.857976E-18
7.271317E+03	3.914112E-16	2.876527E-18
7.281264E+03	3.942996E-16	2.889807E-18
7.291211E+03	3.962536E-16	2.897021E-18
7.301158E+03	3.971497E-16	2.897377E-18
7.311105E+03	3.969353E-16	2.890596E-18
7.321052E+03	3.955749E-16	2.876506E-18
7.330999E+03	3.930739E-16	2.855219E-18
7.340946E+03	3.894583E-16	2.826975E-18
7.350893E+03	3.848515E-16	2.792701E-18
7.360840E+03	3.793266E-16	2.752934E-18
7.370787E+03	3.730170E-16	2.708632E-18
7.380734E+03	3.661042E-16	2.661085E-18
7.390682E+03	3.586930E-16	2.611009E-18
7.400629E+03	3.509374E-16	2.559475E-18
7.410576E+03	3.429598E-16	2.507313E-18
7.420523E+03	3.348490E-16	2.455109E-18
7.430470E+03	3.267310E-16	2.403720E-18
7.440417E+03	3.186473E-16	2.353387E-18
7.450364E+03	3.106799E-16	2.304644E-18
7.460311E+03	3.028688E-16	2.257699E-18
7.470258E+03	2.952972E-16	2.213085E-18
7.480205E+03	2.879802E-16	2.170839E-18
7.490152E+03	2.809779E-16	2.131350E-18
7.500099E+03	2.743355E-16	2.094910E-18
7.510047E+03	2.681000E-16	2.061845E-18
7.519994E+03	2.623056E-16	2.032399E-18
7.529941E+03	2.570145E-16	2.007053E-18
7.539888E+03	2.522724E-16	1.986184E-18
7.549835E+03	2.481217E-16	1.970167E-18
7.559782E+03	2.445987E-16	1.959350E-18
7.569729E+03	2.417194E-16	1.953941E-18
7.579676E+03	2.395168E-16	1.954302E-18
7.589623E+03	2.380001E-16	1.960622E-18
7.599570E+03	2.371663E-16	1.973002E-18
7.609517E+03	2.369999E-16	1.991450E-18
7.619464E+03	2.374581E-16	2.015748E-18
7.629412E+03	2.385233E-16	2.045886E-18
7.639359E+03	2.401122E-16	2.081289E-18
7.649306E+03	2.421679E-16	2.121590E-18
7.659253E+03	2.446103E-16	2.166202E-18
7.669200E+03	2.473383E-16	2.214324E-18
7.679147E+03	2.502877E-16	2.265451E-18
7.689094E+03	2.533402E-16	2.318564E-18
7.699041E+03	2.564219E-16	2.373005E-18
7.708988E+03	2.594513E-16	2.428017E-18
7.718935E+03	2.623554E-16	2.482887E-18
