#wls	flux	fluxerr
1.591533E+03	7.755921E-18	3.605986E-19
1.631321E+03	7.942314E-18	3.677931E-19
1.671110E+03	8.126585E-18	3.747880E-19
1.710898E+03	8.311535E-18	3.817107E-19
1.750686E+03	8.493182E-18	3.883762E-19
1.790475E+03	8.669102E-18	3.946736E-19
1.830263E+03	8.839267E-18	4.006026E-19
1.870051E+03	8.996022E-18	4.058191E-19
1.909840E+03	9.134489E-18	4.101103E-19
1.949628E+03	9.253926E-18	4.134529E-19
1.989416E+03	9.353664E-18	4.158280E-19
2.029205E+03	9.437865E-18	4.174314E-19
2.068993E+03	9.527764E-18	4.192068E-19
2.108781E+03	9.661793E-18	4.228311E-19
2.148570E+03	9.873998E-18	4.297532E-19
2.188358E+03	1.018981E-17	4.410150E-19
2.228146E+03	1.060178E-17	4.562163E-19
2.267935E+03	1.109079E-17	4.744631E-19
2.307723E+03	1.162609E-17	4.943830E-19
2.347511E+03	1.219086E-17	5.152238E-19
2.387300E+03	1.277342E-17	5.364649E-19
2.427088E+03	1.336018E-17	5.575192E-19
2.466876E+03	1.396404E-17	5.789116E-19
2.506665E+03	1.457813E-17	6.003391E-19
2.546453E+03	1.520534E-17	6.219052E-19
2.586241E+03	1.585412E-17	6.439361E-19
2.626030E+03	1.652837E-17	6.665652E-19
2.665818E+03	1.722655E-17	6.897033E-19
2.705606E+03	1.795767E-17	7.136824E-19
2.745395E+03	1.871983E-17	7.383933E-19
2.785183E+03	1.952244E-17	7.641718E-19
2.824971E+03	2.036338E-17	7.908950E-19
2.864759E+03	2.125269E-17	8.189105E-19
2.904548E+03	2.219484E-17	8.483413E-19
2.944336E+03	2.318775E-17	8.790568E-19
2.984124E+03	2.424290E-17	9.114394E-19
2.994072E+03	2.451417E-17	9.197038E-19
3.004019E+03	2.479643E-17	9.283343E-19
3.013966E+03	2.507548E-17	9.367975E-19
3.023913E+03	2.536587E-17	9.456362E-19
3.033860E+03	2.565353E-17	9.543244E-19
3.043807E+03	2.595306E-17	9.634050E-19
3.053754E+03	2.625056E-17	9.723603E-19
3.063701E+03	2.656094E-17	9.817413E-19
3.073648E+03	2.686908E-17	9.909881E-19
3.083595E+03	2.719017E-17	1.000660E-18
3.093542E+03	2.751662E-17	1.010475E-18
3.103489E+03	2.784062E-17	1.020146E-18
3.113437E+03	2.817778E-17	1.030243E-18
3.123384E+03	2.852034E-17	1.040482E-18
3.133331E+03	2.886834E-17	1.050863E-18
3.143278E+03	2.922183E-17	1.061385E-18
3.153225E+03	2.958086E-17	1.072048E-18
3.163172E+03	2.994547E-17	1.082855E-18
3.173119E+03	3.031573E-17	1.093806E-18
3.183066E+03	3.069173E-17	1.104902E-18
3.193013E+03	3.107353E-17	1.116144E-18
3.202960E+03	3.146124E-17	1.127536E-18
3.212907E+03	3.185494E-17	1.139079E-18
3.222854E+03	3.225473E-17	1.150775E-18
3.232801E+03	3.266073E-17	1.162627E-18
3.242749E+03	3.308203E-17	1.174956E-18
3.252696E+03	3.350089E-17	1.187130E-18
3.262643E+03	3.392633E-17	1.199470E-18
3.272590E+03	3.436772E-17	1.212303E-18
3.282537E+03	3.480682E-17	1.224985E-18
3.292484E+03	3.526234E-17	1.238173E-18
3.302431E+03	3.571569E-17	1.251213E-18
3.312378E+03	3.618597E-17	1.264772E-18
3.322325E+03	3.665421E-17	1.278184E-18
3.332272E+03	3.713991E-17	1.292130E-18
3.342219E+03	3.763365E-17	1.306279E-18
3.352166E+03	3.812556E-17	1.320286E-18
3.362114E+03	3.863578E-17	1.334849E-18
3.372061E+03	3.915458E-17	1.349627E-18
3.382008E+03	3.968216E-17	1.364627E-18
3.391955E+03	4.020825E-17	1.379493E-18
3.401902E+03	4.075384E-17	1.394946E-18
3.411849E+03	4.130878E-17	1.410634E-18
3.421796E+03	4.187327E-17	1.426562E-18
3.431743E+03	4.244749E-17	1.442734E-18
3.441690E+03	4.303163E-17	1.459155E-18
3.451637E+03	4.362585E-17	1.475828E-18
3.461584E+03	4.423031E-17	1.492757E-18
3.471531E+03	4.484516E-17	1.509945E-18
3.481479E+03	4.548206E-17	1.527781E-18
3.491426E+03	4.611820E-17	1.545496E-18
3.501373E+03	4.676507E-17	1.563476E-18
3.511320E+03	4.742276E-17	1.581721E-18
3.521267E+03	4.810341E-17	1.600633E-18
3.531214E+03	4.878312E-17	1.619414E-18
3.541161E+03	4.947384E-17	1.638460E-18
3.551108E+03	5.018809E-17	1.658181E-18
3.561055E+03	5.090110E-17	1.677757E-18
3.571002E+03	5.163796E-17	1.698011E-18
3.580949E+03	5.237333E-17	1.718108E-18
3.590896E+03	5.313286E-17	1.738887E-18
3.600844E+03	5.389058E-17	1.759495E-18
3.610791E+03	5.467273E-17	1.780786E-18
3.620738E+03	5.545272E-17	1.801890E-18
3.630685E+03	5.625736E-17	1.823678E-18
3.640632E+03	5.707326E-17	1.845710E-18
3.650579E+03	5.790034E-17	1.867980E-18
3.660526E+03	5.872438E-17	1.890029E-18
3.670473E+03	5.957341E-17	1.912758E-18
3.680420E+03	6.043336E-17	1.935708E-18
3.690367E+03	6.130409E-17	1.958873E-18
3.700314E+03	6.218547E-17	1.982247E-18
3.710261E+03	6.307737E-17	2.005822E-18
3.720208E+03	6.397960E-17	2.029590E-18
3.730156E+03	6.489201E-17	2.053543E-18
3.740103E+03	6.581438E-17	2.077672E-18
3.750050E+03	6.674650E-17	2.101967E-18
3.759997E+03	6.768815E-17	2.126420E-18
3.769944E+03	6.863909E-17	2.151019E-18
3.779891E+03	6.959904E-17	2.175754E-18
3.789838E+03	7.056772E-17	2.200613E-18
3.799785E+03	7.156139E-17	2.226101E-18
3.809732E+03	7.254680E-17	2.251178E-18
3.819679E+03	7.353998E-17	2.276343E-18
3.829626E+03	7.455767E-17	2.302111E-18
3.839573E+03	7.556549E-17	2.327416E-18
3.849521E+03	7.657996E-17	2.352768E-18
3.859468E+03	7.761831E-17	2.378692E-18
3.869415E+03	7.864502E-17	2.404097E-18
3.879362E+03	7.967704E-17	2.429503E-18
3.889309E+03	8.073218E-17	2.455448E-18
3.899256E+03	8.177369E-17	2.480812E-18
3.909203E+03	8.283773E-17	2.506692E-18
3.919150E+03	8.388681E-17	2.531951E-18
3.929097E+03	8.495768E-17	2.557697E-18
3.939044E+03	8.603139E-17	2.583357E-18
3.948991E+03	8.708801E-17	2.608332E-18
3.958938E+03	8.816545E-17	2.633758E-18
3.968886E+03	8.922451E-17	2.658461E-18
3.978833E+03	9.030394E-17	2.683597E-18
3.988780E+03	9.138362E-17	2.708564E-18
3.998727E+03	9.246330E-17	2.733354E-18
4.008674E+03	9.352220E-17	2.757354E-18
4.018621E+03	9.460068E-17	2.781754E-18
4.028568E+03	9.567828E-17	2.805950E-18
4.038515E+03	9.675505E-17	2.829942E-18
4.048462E+03	9.783090E-17	2.853728E-18
4.058409E+03	9.888488E-17	2.876697E-18
4.068356E+03	9.995955E-17	2.900089E-18
4.078303E+03	1.010344E-16	2.923305E-18
4.088251E+03	1.021102E-16	2.946365E-18
4.098198E+03	1.031878E-16	2.969295E-18
4.108145E+03	1.042683E-16	2.992123E-18
4.118092E+03	1.053530E-16	3.014890E-18
4.128039E+03	1.064436E-16	3.037637E-18
4.137986E+03	1.075418E-16	3.060413E-18
4.147933E+03	1.086495E-16	3.083266E-18
4.157880E+03	1.097687E-16	3.106256E-18
4.167827E+03	1.109017E-16	3.129440E-18
4.177774E+03	1.120507E-16	3.152876E-18
4.187721E+03	1.132178E-16	3.176622E-18
4.197668E+03	1.144054E-16	3.200734E-18
4.207615E+03	1.156154E-16	3.225267E-18
4.217563E+03	1.168499E-16	3.250267E-18
4.227510E+03	1.181105E-16	3.275776E-18
4.237457E+03	1.193987E-16	3.301825E-18
4.247404E+03	1.207404E-16	3.329123E-18
4.257351E+03	1.220872E-16	3.356325E-18
4.267298E+03	1.234640E-16	3.384112E-18
4.277245E+03	1.248709E-16	3.412480E-18
4.287192E+03	1.263074E-16	3.441406E-18
4.297139E+03	1.277730E-16	3.470868E-18
4.307086E+03	1.292925E-16	3.501527E-18
4.317033E+03	1.308126E-16	3.531936E-18
4.326980E+03	1.323574E-16	3.562741E-18
4.336928E+03	1.339252E-16	3.593887E-18
4.346875E+03	1.355142E-16	3.625324E-18
4.356822E+03	1.371505E-16	3.657735E-18
4.366769E+03	1.387791E-16	3.689653E-18
4.376716E+03	1.404270E-16	3.721793E-18
4.386663E+03	1.420954E-16	3.754178E-18
4.396610E+03	1.437860E-16	3.786849E-18
4.406557E+03	1.455296E-16	3.820610E-18
4.416504E+03	1.472723E-16	3.854033E-18
4.426451E+03	1.490448E-16	3.887924E-18
4.436398E+03	1.508501E-16	3.922347E-18
4.446345E+03	1.527199E-16	3.958120E-18
4.456293E+03	1.545978E-16	3.993766E-18
4.466240E+03	1.565146E-16	4.030076E-18
4.476187E+03	1.584716E-16	4.067075E-18
4.486134E+03	1.604693E-16	4.104761E-18
4.496081E+03	1.625388E-16	4.143916E-18
4.506028E+03	1.646172E-16	4.182924E-18
4.515975E+03	1.667338E-16	4.222520E-18
4.525922E+03	1.688860E-16	4.262630E-18
4.535869E+03	1.710708E-16	4.303160E-18
4.545816E+03	1.733168E-16	4.344823E-18
4.555763E+03	1.755543E-16	4.385855E-18
4.565710E+03	1.778104E-16	4.426931E-18
4.575658E+03	1.800790E-16	4.467897E-18
4.585605E+03	1.823541E-16	4.508593E-18
4.595552E+03	1.846292E-16	4.548857E-18
4.605499E+03	1.868975E-16	4.588517E-18
4.615446E+03	1.891522E-16	4.627410E-18
4.625393E+03	1.914225E-16	4.666246E-18
4.635340E+03	1.936314E-16	4.703147E-18
4.645287E+03	1.958082E-16	4.738836E-18
4.655234E+03	1.979472E-16	4.773183E-18
4.665181E+03	2.000437E-16	4.806081E-18
4.675128E+03	2.020930E-16	4.837425E-18
4.685075E+03	2.040911E-16	4.867133E-18
4.695022E+03	2.060345E-16	4.895128E-18
4.704970E+03	2.079199E-16	4.921344E-18
4.714917E+03	2.097441E-16	4.945723E-18
4.724864E+03	2.115044E-16	4.968213E-18
4.734811E+03	2.131981E-16	4.988766E-18
4.744758E+03	2.147843E-16	5.006443E-18
4.754705E+03	2.163377E-16	5.023006E-18
4.764652E+03	2.178175E-16	5.037520E-18
4.774599E+03	2.192218E-16	5.049956E-18
4.784546E+03	2.205484E-16	5.060282E-18
4.794493E+03	2.217952E-16	5.068473E-18
4.804440E+03	2.229208E-16	5.073603E-18
4.814387E+03	2.240020E-16	5.077450E-18
4.824335E+03	2.249979E-16	5.079095E-18
4.834282E+03	2.258668E-16	5.077626E-18
4.844229E+03	2.266869E-16	5.074828E-18
4.854176E+03	2.274173E-16	5.069803E-18
4.864123E+03	2.280175E-16	5.061673E-18
4.874070E+03	2.285670E-16	5.052232E-18
4.884017E+03	2.289862E-16	5.039742E-18
4.893964E+03	2.293557E-16	5.026007E-18
4.903911E+03	2.295970E-16	5.009327E-18
4.913858E+03	2.297921E-16	4.991519E-18
4.923805E+03	2.298638E-16	4.970928E-18
4.933752E+03	2.298553E-16	4.948518E-18
4.943700E+03	2.298102E-16	4.925247E-18
4.953647E+03	2.296537E-16	4.899533E-18
4.963594E+03	2.294307E-16	4.872357E-18
4.973541E+03	2.291858E-16	4.844687E-18
4.983488E+03	2.288468E-16	4.815009E-18
4.993435E+03	2.284595E-16	4.784309E-18
5.003382E+03	2.280309E-16	4.752748E-18
5.013329E+03	2.275681E-16	4.720491E-18
5.023276E+03	2.270789E-16	4.687705E-18
5.033223E+03	2.265712E-16	4.654564E-18
5.043170E+03	2.260530E-16	4.621237E-18
5.053117E+03	2.255326E-16	4.587899E-18
5.063064E+03	2.250184E-16	4.554722E-18
5.073012E+03	2.245188E-16	4.521872E-18
5.082959E+03	2.240045E-16	4.488763E-18
5.092906E+03	2.235586E-16	4.457054E-18
5.102853E+03	2.231510E-16	4.426131E-18
5.112800E+03	2.227514E-16	4.395384E-18
5.122747E+03	2.224395E-16	4.366379E-18
5.132694E+03	2.221825E-16	4.338449E-18
5.142641E+03	2.219464E-16	4.310917E-18
5.152588E+03	2.218056E-16	4.285217E-18
5.162535E+03	2.216860E-16	4.259898E-18
5.172482E+03	2.216224E-16	4.235621E-18
5.182429E+03	2.216485E-16	4.213007E-18
5.192377E+03	2.216877E-16	4.190586E-18
5.202324E+03	2.217729E-16	4.168972E-18
5.212271E+03	2.219001E-16	4.148079E-18
5.222218E+03	2.220653E-16	4.127818E-18
5.232165E+03	2.222644E-16	4.108109E-18
5.242112E+03	2.224939E-16	4.088875E-18
5.252059E+03	2.227500E-16	4.070041E-18
5.262006E+03	2.230295E-16	4.051543E-18
5.271953E+03	2.233294E-16	4.033320E-18
5.281900E+03	2.236469E-16	4.015319E-18
5.291847E+03	2.239796E-16	3.997496E-18
5.301794E+03	2.242895E-16	3.979170E-18
5.311742E+03	2.246469E-16	3.961596E-18
5.321689E+03	2.249784E-16	3.943473E-18
5.331636E+03	2.253550E-16	3.926049E-18
5.341583E+03	2.257035E-16	3.908045E-18
5.351530E+03	2.260954E-16	3.890706E-18
5.361477E+03	2.264579E-16	3.872773E-18
5.371424E+03	2.268264E-16	3.854864E-18
5.381371E+03	2.272000E-16	3.836964E-18
5.391318E+03	2.275778E-16	3.819061E-18
5.401265E+03	2.279585E-16	3.801134E-18
5.411212E+03	2.283398E-16	3.783151E-18
5.421159E+03	2.287190E-16	3.765068E-18
5.431107E+03	2.290920E-16	3.746824E-18
5.441054E+03	2.294532E-16	3.728337E-18
5.451001E+03	2.297955E-16	3.709498E-18
5.460948E+03	2.300739E-16	3.689597E-18
5.470895E+03	2.303492E-16	3.669628E-18
5.480842E+03	2.305727E-16	3.648825E-18
5.490789E+03	2.306940E-16	3.626419E-18
5.500736E+03	2.307344E-16	3.602779E-18
5.510683E+03	2.307151E-16	3.578260E-18
5.520630E+03	2.305507E-16	3.551562E-18
5.530577E+03	2.302653E-16	3.523101E-18
5.540524E+03	2.298498E-16	3.492773E-18
5.550471E+03	2.292983E-16	3.460527E-18
5.560419E+03	2.286084E-16	3.426370E-18
5.570366E+03	2.277817E-16	3.390367E-18
5.580313E+03	2.268240E-16	3.352643E-18
5.590260E+03	2.257448E-16	3.313379E-18
5.600207E+03	2.245229E-16	3.272300E-18
5.610154E+03	2.232438E-16	3.230687E-18
5.620101E+03	2.218917E-16	3.188331E-18
5.630048E+03	2.204536E-16	3.145068E-18
5.639995E+03	2.189860E-16	3.101722E-18
5.649942E+03	2.175445E-16	3.059084E-18
5.659889E+03	2.160850E-16	3.016531E-18
5.669836E+03	2.146631E-16	2.974838E-18
5.679784E+03	2.132994E-16	2.934278E-18
5.689731E+03	2.120137E-16	2.895102E-18
5.699678E+03	2.108238E-16	2.857531E-18
5.709625E+03	2.097460E-16	2.821753E-18
5.719572E+03	2.087944E-16	2.787924E-18
5.729519E+03	2.079499E-16	2.755756E-18
5.739466E+03	2.072862E-16	2.726187E-18
5.749413E+03	2.067491E-16	2.698456E-18
5.759360E+03	2.064081E-16	2.673430E-18
5.769307E+03	2.062061E-16	2.650318E-18
5.779254E+03	2.062095E-16	2.629928E-18
5.789201E+03	2.063584E-16	2.611446E-18
5.799149E+03	2.066855E-16	2.595244E-18
5.809096E+03	2.071910E-16	2.581277E-18
5.819043E+03	2.078747E-16	2.569494E-18
5.828990E+03	2.087357E-16	2.559839E-18
5.838937E+03	2.097726E-16	2.552250E-18
5.848884E+03	2.109529E-16	2.546290E-18
5.858831E+03	2.123383E-16	2.542667E-18
5.868778E+03	2.138968E-16	2.540949E-18
5.878725E+03	2.155969E-16	2.540726E-18
5.888672E+03	2.174713E-16	2.542352E-18
5.898619E+03	2.195553E-16	2.546199E-18
5.908566E+03	2.217881E-16	2.551520E-18
5.918514E+03	2.242075E-16	2.558721E-18
5.928461E+03	2.268206E-16	2.567847E-18
5.938408E+03	2.296362E-16	2.578961E-18
5.948355E+03	2.326642E-16	2.592136E-18
5.958302E+03	2.359156E-16	2.607458E-18
5.968249E+03	2.394018E-16	2.625014E-18
5.978196E+03	2.430984E-16	2.644504E-18
5.988143E+03	2.470871E-16	2.666778E-18
5.998090E+03	2.513043E-16	2.691109E-18
6.008037E+03	2.558289E-16	2.718313E-18
6.017984E+03	2.605876E-16	2.747571E-18
6.027931E+03	2.656126E-16	2.779200E-18
6.037878E+03	2.708917E-16	2.813051E-18
6.047826E+03	2.764038E-16	2.848889E-18
6.057773E+03	2.821176E-16	2.886385E-18
6.067720E+03	2.879902E-16	2.925108E-18
6.077667E+03	2.939666E-16	2.964521E-18
6.087614E+03	2.999362E-16	3.003550E-18
6.097561E+03	3.059081E-16	3.042347E-18
6.107508E+03	3.117079E-16	3.079247E-18
6.117455E+03	3.173356E-16	3.114348E-18
6.127402E+03	3.226106E-16	3.145985E-18
6.137349E+03	3.274983E-16	3.173954E-18
6.147296E+03	3.319840E-16	3.198246E-18
6.157243E+03	3.359333E-16	3.217703E-18
6.167191E+03	3.393857E-16	3.232854E-18
6.177138E+03	3.423664E-16	3.244070E-18
6.187085E+03	3.448809E-16	3.251531E-18
6.197032E+03	3.471119E-16	3.257066E-18
6.206979E+03	3.491114E-16	3.261252E-18
6.216926E+03	3.509441E-16	3.264765E-18
6.226873E+03	3.528336E-16	3.269742E-18
6.236820E+03	3.548022E-16	3.276431E-18
6.246767E+03	3.570235E-16	3.286469E-18
6.256714E+03	3.596163E-16	3.300972E-18
6.266661E+03	3.626947E-16	3.321008E-18
6.276608E+03	3.663674E-16	3.347594E-18
6.286556E+03	3.707378E-16	3.381696E-18
6.296503E+03	3.759048E-16	3.424217E-18
6.306450E+03	3.819631E-16	3.476006E-18
6.316397E+03	3.890041E-16	3.537893E-18
6.326344E+03	3.970580E-16	3.610164E-18
6.336291E+03	4.063218E-16	3.694634E-18
6.346238E+03	4.167571E-16	3.790996E-18
6.356185E+03	4.284904E-16	3.900457E-18
6.366132E+03	4.415803E-16	4.023626E-18
6.376079E+03	4.561354E-16	4.161584E-18
6.386026E+03	4.720494E-16	4.313468E-18
6.395973E+03	4.893819E-16	4.479942E-18
6.405921E+03	5.080220E-16	4.660123E-18
6.415868E+03	5.280343E-16	4.854741E-18
6.425815E+03	5.492195E-16	5.062108E-18
6.435762E+03	5.713094E-16	5.279886E-18
6.445709E+03	5.942150E-16	5.507376E-18
6.455656E+03	6.174488E-16	5.740161E-18
6.465603E+03	6.407946E-16	5.976294E-18
6.475550E+03	6.636114E-16	6.209824E-18
6.485497E+03	6.854665E-16	6.436661E-18
6.495444E+03	7.057892E-16	6.651345E-18
6.505391E+03	7.239793E-16	6.848041E-18
6.515338E+03	7.394320E-16	7.020772E-18
6.525285E+03	7.515684E-16	7.163695E-18
6.535233E+03	7.597595E-16	7.270387E-18
6.545180E+03	7.637968E-16	7.338348E-18
6.555127E+03	7.632708E-16	7.363089E-18
6.565074E+03	7.579217E-16	7.341493E-18
6.575021E+03	7.478758E-16	7.274144E-18
6.584968E+03	7.334244E-16	7.163250E-18
6.594915E+03	7.146973E-16	7.009478E-18
6.604862E+03	6.922799E-16	6.818001E-18
6.614809E+03	6.667522E-16	6.594039E-18
6.624756E+03	6.387584E-16	6.343549E-18
6.634703E+03	6.089688E-16	6.072864E-18
6.644650E+03	5.779609E-16	5.787505E-18
6.654598E+03	5.465268E-16	5.495255E-18
6.664545E+03	5.151384E-16	5.200807E-18
6.674492E+03	4.842094E-16	4.908347E-18
6.684439E+03	4.542827E-16	4.623452E-18
6.694386E+03	4.255373E-16	4.348076E-18
6.704333E+03	3.982759E-16	4.085473E-18
6.714280E+03	3.726573E-16	3.837471E-18
6.724227E+03	3.487763E-16	3.605258E-18
6.734174E+03	3.266738E-16	3.389481E-18
6.744121E+03	3.063471E-16	3.190340E-18
6.754068E+03	2.877602E-16	3.007682E-18
6.764015E+03	2.708524E-16	2.841088E-18
6.773963E+03	2.555455E-16	2.689946E-18
6.783910E+03	2.417163E-16	2.553150E-18
6.793857E+03	2.293418E-16	2.430637E-18
6.803804E+03	2.182578E-16	2.320835E-18
6.813751E+03	2.084041E-16	2.223253E-18
6.823698E+03	1.997177E-16	2.137363E-18
6.833645E+03	1.920536E-16	2.061740E-18
6.843592E+03	1.853609E-16	1.995952E-18
6.853539E+03	1.795653E-16	1.939304E-18
6.863486E+03	1.745989E-16	1.891158E-18
6.873433E+03	1.704004E-16	1.850936E-18
6.883380E+03	1.668906E-16	1.817854E-18
6.893327E+03	1.640686E-16	1.791974E-18
6.903275E+03	1.618662E-16	1.772615E-18
6.913222E+03	1.602211E-16	1.759155E-18
6.923169E+03	1.591456E-16	1.751781E-18
6.933116E+03	1.585630E-16	1.749700E-18
6.943063E+03	1.584694E-16	1.752911E-18
6.953010E+03	1.588639E-16	1.761448E-18
6.962957E+03	1.596794E-16	1.774607E-18
6.972904E+03	1.609197E-16	1.792467E-18
6.982851E+03	1.625675E-16	1.814868E-18
6.992798E+03	1.646072E-16	1.841670E-18
7.002745E+03	1.669997E-16	1.872467E-18
7.012692E+03	1.697792E-16	1.907671E-18
7.022640E+03	1.729083E-16	1.946892E-18
7.032587E+03	1.763481E-16	1.989720E-18
7.042534E+03	1.801358E-16	2.036602E-18
7.052481E+03	1.842054E-16	2.086821E-18
7.062428E+03	1.885953E-16	2.140837E-18
7.072375E+03	1.932356E-16	2.197884E-18
7.082322E+03	1.981359E-16	2.258099E-18
7.092269E+03	2.033071E-16	2.321632E-18
7.102216E+03	2.086702E-16	2.387611E-18
7.112163E+03	2.142309E-16	2.456125E-18
7.122110E+03	2.199631E-16	2.526904E-18
7.132057E+03	2.258045E-16	2.599261E-18
7.142005E+03	2.317871E-16	2.673587E-18
7.151952E+03	2.378410E-16	2.749107E-18
7.161899E+03	2.439236E-16	2.825355E-18
7.171846E+03	2.499505E-16	2.901376E-18
7.181793E+03	2.559404E-16	2.977411E-18
7.191740E+03	2.617602E-16	3.051935E-18
7.201687E+03	2.673822E-16	3.124637E-18
7.211634E+03	2.727775E-16	3.195197E-18
7.221581E+03	2.777938E-16	3.261841E-18
7.231528E+03	2.823953E-16	3.324148E-18
7.241475E+03	2.865066E-16	3.381225E-18
7.251422E+03	2.900537E-16	3.432188E-18
7.261370E+03	2.929678E-16	3.476200E-18
7.271317E+03	2.951869E-16	3.512497E-18
7.281264E+03	2.966599E-16	3.540427E-18
7.291211E+03	2.973483E-16	3.559483E-18
7.301158E+03	2.971853E-16	3.568800E-18
7.311105E+03	2.962531E-16	3.569298E-18
7.321052E+03	2.944765E-16	3.559993E-18
7.330999E+03	2.919732E-16	3.542226E-18
7.340946E+03	2.887040E-16	3.515434E-18
7.350893E+03	2.848175E-16	3.481338E-18
7.360840E+03	2.803043E-16	3.439735E-18
7.370787E+03	2.752922E-16	3.392107E-18
7.380734E+03	2.698728E-16	3.339499E-18
7.390682E+03	2.641403E-16	3.283007E-18
7.400629E+03	2.581891E-16	3.223737E-18
7.410576E+03	2.521106E-16	3.162780E-18
7.420523E+03	2.459914E-16	3.101178E-18
7.430470E+03	2.399113E-16	3.039909E-18
7.440417E+03	2.339422E-16	2.979869E-18
7.450364E+03	2.281478E-16	2.921863E-18
7.460311E+03	2.225485E-16	2.866158E-18
7.470258E+03	2.172562E-16	2.814198E-18
7.480205E+03	2.122404E-16	2.765600E-18
7.490152E+03	2.075917E-16	2.721572E-18
7.500099E+03	2.032668E-16	2.681581E-18
7.510047E+03	1.993410E-16	2.646668E-18
7.519994E+03	1.957629E-16	2.616207E-18
7.529941E+03	1.925686E-16	2.590741E-18
7.539888E+03	1.897608E-16	2.570374E-18
7.549835E+03	1.873675E-16	2.555569E-18
7.559782E+03	1.853290E-16	2.545596E-18
7.569729E+03	1.836687E-16	2.540856E-18
7.579676E+03	1.823787E-16	2.541331E-18
7.589623E+03	1.814483E-16	2.546966E-18
7.599570E+03	1.808368E-16	2.557279E-18
7.609517E+03	1.805831E-16	2.572912E-18
7.619464E+03	1.806405E-16	2.593298E-18
7.629412E+03	1.809877E-16	2.618219E-18
7.639359E+03	1.815724E-16	2.647002E-18
7.649306E+03	1.824232E-16	2.680139E-18
7.659253E+03	1.834555E-16	2.716466E-18
7.669200E+03	1.846947E-16	2.756417E-18
7.679147E+03	1.860527E-16	2.798737E-18
7.689094E+03	1.875536E-16	2.843831E-18
7.699041E+03	1.891076E-16	2.890375E-18
7.708988E+03	1.907111E-16	2.938329E-18
7.718935E+03	1.923331E-16	2.987231E-18
