#wls	flux	fluxerr
1.591533E+03	6.128509E-18	4.279969E-19
1.631321E+03	6.294663E-18	4.375891E-19
1.671110E+03	6.460566E-18	4.470088E-19
1.710898E+03	6.628695E-18	4.564222E-19
1.750686E+03	6.792821E-18	4.653955E-19
1.790475E+03	6.956740E-18	4.741868E-19
1.830263E+03	7.117816E-18	4.826128E-19
1.870051E+03	7.266629E-18	4.900364E-19
1.909840E+03	7.405143E-18	4.965982E-19
1.949628E+03	7.526841E-18	5.018707E-19
1.989416E+03	7.634075E-18	5.060254E-19
2.029205E+03	7.729883E-18	5.092756E-19
2.068993E+03	7.831622E-18	5.127680E-19
2.108781E+03	7.968182E-18	5.183711E-19
2.148570E+03	8.174235E-18	5.282773E-19
2.188358E+03	8.465572E-18	5.434043E-19
2.228146E+03	8.839876E-18	5.634837E-19
2.267935E+03	9.278923E-18	5.872395E-19
2.307723E+03	9.764448E-18	6.134222E-19
2.347511E+03	1.027595E-17	6.406741E-19
2.387300E+03	1.080767E-17	6.685854E-19
2.427088E+03	1.135191E-17	6.966389E-19
2.466876E+03	1.190850E-17	7.247882E-19
2.506665E+03	1.247931E-17	7.531097E-19
2.546453E+03	1.307198E-17	7.820212E-19
2.586241E+03	1.368539E-17	8.114022E-19
2.626030E+03	1.432298E-17	8.414036E-19
2.665818E+03	1.499365E-17	8.724828E-19
2.705606E+03	1.569603E-17	9.044855E-19
2.745395E+03	1.643380E-17	9.375456E-19
2.785183E+03	1.721675E-17	9.721327E-19
2.824971E+03	1.804334E-17	1.008056E-18
2.864759E+03	1.891779E-17	1.045448E-18
2.904548E+03	1.985135E-17	1.084808E-18
2.944336E+03	2.084270E-17	1.125930E-18
2.984124E+03	2.189710E-17	1.168957E-18
2.994072E+03	2.217676E-17	1.180324E-18
3.004019E+03	2.245346E-17	1.191431E-18
3.013966E+03	2.274216E-17	1.203068E-18
3.023913E+03	2.302799E-17	1.214447E-18
3.033860E+03	2.331887E-17	1.225984E-18
3.043807E+03	2.362254E-17	1.238083E-18
3.053754E+03	2.392438E-17	1.249971E-18
3.063701E+03	2.424002E-17	1.262464E-18
3.073648E+03	2.456169E-17	1.275152E-18
3.083595E+03	2.488126E-17	1.287609E-18
3.093542E+03	2.521494E-17	1.300672E-18
3.103489E+03	2.554640E-17	1.313495E-18
3.113437E+03	2.589223E-17	1.326928E-18
3.123384E+03	2.624423E-17	1.340545E-18
3.133331E+03	2.659390E-17	1.353908E-18
3.143278E+03	2.695839E-17	1.367889E-18
3.153225E+03	2.732928E-17	1.382055E-18
3.163172E+03	2.769775E-17	1.395956E-18
3.173119E+03	2.808161E-17	1.410487E-18
3.183066E+03	2.847213E-17	1.425205E-18
3.193013E+03	2.886944E-17	1.440110E-18
3.202960E+03	2.926435E-17	1.454741E-18
3.212907E+03	2.967548E-17	1.470024E-18
3.222854E+03	3.009378E-17	1.485500E-18
3.232801E+03	3.051935E-17	1.501171E-18
3.242749E+03	3.095237E-17	1.517041E-18
3.252696E+03	3.139297E-17	1.533112E-18
3.262643E+03	3.184130E-17	1.549388E-18
3.272590E+03	3.229754E-17	1.565871E-18
3.282537E+03	3.275159E-17	1.582069E-18
3.292484E+03	3.322401E-17	1.598973E-18
3.302431E+03	3.370484E-17	1.616094E-18
3.312378E+03	3.419427E-17	1.633436E-18
3.322325E+03	3.469249E-17	1.651004E-18
3.332272E+03	3.521058E-17	1.669317E-18
3.342219E+03	3.572710E-17	1.687350E-18
3.352166E+03	3.625299E-17	1.705621E-18
3.362114E+03	3.678847E-17	1.724132E-18
3.372061E+03	3.733376E-17	1.742888E-18
3.382008E+03	3.788905E-17	1.761893E-18
3.391955E+03	3.845456E-17	1.781151E-18
3.401902E+03	3.903052E-17	1.800665E-18
3.411849E+03	3.962917E-17	1.820993E-18
3.421796E+03	4.022681E-17	1.841036E-18
3.431743E+03	4.083554E-17	1.861346E-18
3.441690E+03	4.145557E-17	1.881925E-18
3.451637E+03	4.208710E-17	1.902777E-18
3.461584E+03	4.274317E-17	1.924481E-18
3.471531E+03	4.339843E-17	1.945887E-18
3.481479E+03	4.406573E-17	1.967568E-18
3.491426E+03	4.475860E-17	1.990119E-18
3.501373E+03	4.545063E-17	2.012356E-18
3.511320E+03	4.615515E-17	2.034865E-18
3.521267E+03	4.688620E-17	2.058257E-18
3.531214E+03	4.761626E-17	2.081313E-18
3.541161E+03	4.837345E-17	2.105257E-18
3.551108E+03	4.912948E-17	2.128848E-18
3.561055E+03	4.989857E-17	2.152699E-18
3.571002E+03	5.069565E-17	2.177444E-18
3.580949E+03	5.149124E-17	2.201806E-18
3.590896E+03	5.231539E-17	2.227064E-18
3.600844E+03	5.313776E-17	2.251918E-18
3.610791E+03	5.398920E-17	2.277668E-18
3.620738E+03	5.483853E-17	2.302989E-18
3.630685E+03	5.571741E-17	2.329205E-18
3.640632E+03	5.659377E-17	2.354965E-18
3.650579E+03	5.750014E-17	2.381618E-18
3.660526E+03	5.842035E-17	2.408480E-18
3.670473E+03	5.933733E-17	2.434843E-18
3.680420E+03	6.028491E-17	2.462089E-18
3.690367E+03	6.122871E-17	2.488805E-18
3.700314E+03	6.220344E-17	2.516396E-18
3.710261E+03	6.319175E-17	2.544148E-18
3.720208E+03	6.417530E-17	2.571316E-18
3.730156E+03	6.519020E-17	2.599346E-18
3.740103E+03	6.621832E-17	2.627499E-18
3.750050E+03	6.724054E-17	2.655014E-18
3.759997E+03	6.829439E-17	2.683369E-18
3.769944E+03	6.936097E-17	2.711807E-18
3.779891E+03	7.044005E-17	2.740314E-18
3.789838E+03	7.151142E-17	2.768101E-18
3.799785E+03	7.261457E-17	2.796694E-18
3.809732E+03	7.372951E-17	2.825310E-18
3.819679E+03	7.485594E-17	2.853931E-18
3.829626E+03	7.599357E-17	2.882542E-18
3.839573E+03	7.712071E-17	2.910319E-18
3.849521E+03	7.827945E-17	2.938850E-18
3.859468E+03	7.944835E-17	2.967317E-18
3.869415E+03	8.062704E-17	2.995703E-18
3.879362E+03	8.181501E-17	3.023985E-18
3.889309E+03	8.301197E-17	3.052149E-18
3.899256E+03	8.419442E-17	3.079332E-18
3.909203E+03	8.540767E-17	3.107195E-18
3.919150E+03	8.662839E-17	3.134876E-18
3.929097E+03	8.785620E-17	3.162362E-18
3.939044E+03	8.909057E-17	3.189631E-18
3.948991E+03	9.033095E-17	3.216663E-18
3.958938E+03	9.157687E-17	3.243441E-18
3.968886E+03	9.282769E-17	3.269944E-18
3.978833E+03	9.408296E-17	3.296155E-18
3.988780E+03	9.534218E-17	3.322058E-18
3.998727E+03	9.660472E-17	3.347633E-18
4.008674E+03	9.787018E-17	3.372868E-18
4.018621E+03	9.913815E-17	3.397752E-18
4.028568E+03	1.003814E-16	3.421357E-18
4.038515E+03	1.016528E-16	3.445499E-18
4.048462E+03	1.029254E-16	3.469257E-18
4.058409E+03	1.041992E-16	3.492629E-18
4.068356E+03	1.054739E-16	3.515616E-18
4.078303E+03	1.067496E-16	3.538220E-18
4.088251E+03	1.080260E-16	3.560444E-18
4.098198E+03	1.093034E-16	3.582298E-18
4.108145E+03	1.105820E-16	3.603794E-18
4.118092E+03	1.118619E-16	3.624942E-18
4.128039E+03	1.131732E-16	3.646717E-18
4.137986E+03	1.144576E-16	3.667238E-18
4.147933E+03	1.157449E-16	3.687481E-18
4.157880E+03	1.170359E-16	3.707471E-18
4.167827E+03	1.183314E-16	3.727240E-18
4.177774E+03	1.196322E-16	3.746819E-18
4.187721E+03	1.209392E-16	3.766242E-18
4.197668E+03	1.222534E-16	3.785541E-18
4.207615E+03	1.235758E-16	3.804755E-18
4.217563E+03	1.249074E-16	3.823916E-18
4.227510E+03	1.262491E-16	3.843054E-18
4.237457E+03	1.276017E-16	3.862200E-18
4.247404E+03	1.289660E-16	3.881378E-18
4.257351E+03	1.303426E-16	3.900612E-18
4.267298E+03	1.317319E-16	3.919918E-18
4.277245E+03	1.331344E-16	3.939311E-18
4.287192E+03	1.345501E-16	3.958798E-18
4.297139E+03	1.359791E-16	3.978382E-18
4.307086E+03	1.374212E-16	3.998063E-18
4.317033E+03	1.388758E-16	4.017831E-18
4.326980E+03	1.403427E-16	4.037681E-18
4.336928E+03	1.418210E-16	4.057595E-18
4.346875E+03	1.433102E-16	4.077566E-18
4.356822E+03	1.448453E-16	4.098589E-18
4.366769E+03	1.463540E-16	4.118626E-18
4.376716E+03	1.478717E-16	4.138683E-18
4.386663E+03	1.493977E-16	4.158758E-18
4.396610E+03	1.509317E-16	4.178850E-18
4.406557E+03	1.524738E-16	4.198968E-18
4.416504E+03	1.540236E-16	4.219117E-18
4.426451E+03	1.555811E-16	4.239301E-18
4.436398E+03	1.571461E-16	4.259531E-18
4.446345E+03	1.587186E-16	4.279812E-18
4.456293E+03	1.602982E-16	4.300151E-18
4.466240E+03	1.618848E-16	4.320554E-18
4.476187E+03	1.634781E-16	4.341018E-18
4.486134E+03	1.650777E-16	4.361535E-18
4.496081E+03	1.666832E-16	4.382092E-18
4.506028E+03	1.682942E-16	4.402676E-18
4.515975E+03	1.698690E-16	4.422204E-18
4.525922E+03	1.714886E-16	4.442789E-18
4.535869E+03	1.731115E-16	4.463341E-18
4.545816E+03	1.747370E-16	4.483844E-18
4.555763E+03	1.763641E-16	4.504268E-18
4.565710E+03	1.779918E-16	4.524591E-18
4.575658E+03	1.796190E-16	4.544781E-18
4.585605E+03	1.812446E-16	4.564811E-18
4.595552E+03	1.828672E-16	4.584645E-18
4.605499E+03	1.844857E-16	4.604252E-18
4.615446E+03	1.860546E-16	4.622507E-18
4.625393E+03	1.876602E-16	4.641551E-18
4.635340E+03	1.892572E-16	4.660259E-18
4.645287E+03	1.908440E-16	4.678592E-18
4.655234E+03	1.924190E-16	4.696508E-18
4.665181E+03	1.939803E-16	4.713963E-18
4.675128E+03	1.954804E-16	4.729808E-18
4.685075E+03	1.970082E-16	4.746200E-18
4.695022E+03	1.985163E-16	4.761987E-18
4.704970E+03	2.000023E-16	4.777119E-18
4.714917E+03	2.014173E-16	4.790430E-18
4.724864E+03	2.028519E-16	4.804083E-18
4.734811E+03	2.042570E-16	4.816913E-18
4.744758E+03	2.055828E-16	4.827749E-18
4.754705E+03	2.069211E-16	4.838760E-18
4.764652E+03	2.082219E-16	4.848772E-18
4.774599E+03	2.094347E-16	4.856616E-18
4.784546E+03	2.106524E-16	4.864462E-18
4.794493E+03	2.117763E-16	4.870028E-18
4.804440E+03	2.129004E-16	4.875492E-18
4.814387E+03	2.139739E-16	4.879686E-18
4.824335E+03	2.149457E-16	4.881461E-18
4.834282E+03	2.159112E-16	4.882997E-18
4.844229E+03	2.167706E-16	4.882041E-18
4.854176E+03	2.176207E-16	4.880787E-18
4.864123E+03	2.183616E-16	4.877005E-18
4.874070E+03	2.190419E-16	4.871796E-18
4.884017E+03	2.197108E-16	4.866262E-18
4.893964E+03	2.202694E-16	4.858219E-18
4.903911E+03	2.208173E-16	4.849882E-18
4.913858E+03	2.212565E-16	4.839104E-18
4.923805E+03	2.216380E-16	4.827019E-18
4.933752E+03	2.220132E-16	4.814754E-18
4.943700E+03	2.222851E-16	4.800212E-18
4.953647E+03	2.225058E-16	4.784535E-18
4.963594E+03	2.226779E-16	4.767790E-18
4.973541E+03	2.228537E-16	4.751102E-18
4.983488E+03	2.229370E-16	4.732422E-18
4.993435E+03	2.229806E-16	4.712887E-18
5.003382E+03	2.229872E-16	4.692566E-18
5.013329E+03	2.229600E-16	4.671529E-18
5.023276E+03	2.229020E-16	4.649845E-18
5.033223E+03	2.228160E-16	4.627581E-18
5.043170E+03	2.227052E-16	4.604808E-18
5.053117E+03	2.225724E-16	4.581585E-18
5.063064E+03	2.224204E-16	4.557978E-18
5.073012E+03	2.222520E-16	4.534047E-18
5.082959E+03	2.220699E-16	4.509848E-18
5.092906E+03	2.218763E-16	4.485432E-18
5.102853E+03	2.216737E-16	4.460850E-18
5.112800E+03	2.214641E-16	4.436144E-18
5.122747E+03	2.212492E-16	4.411350E-18
5.132694E+03	2.209827E-16	4.385552E-18
5.142641E+03	2.207616E-16	4.360682E-18
5.152588E+03	2.205390E-16	4.335802E-18
5.162535E+03	2.203153E-16	4.310927E-18
5.172482E+03	2.200436E-16	4.285142E-18
5.182429E+03	2.198189E-16	4.260304E-18
5.192377E+03	2.195935E-16	4.235482E-18
5.202324E+03	2.193199E-16	4.209768E-18
5.212271E+03	2.190917E-16	4.184962E-18
5.222218E+03	2.188138E-16	4.159252E-18
5.232165E+03	2.185789E-16	4.134406E-18
5.242112E+03	2.182921E-16	4.108629E-18
5.252059E+03	2.180453E-16	4.083659E-18
5.262006E+03	2.177434E-16	4.057720E-18
5.271953E+03	2.174314E-16	4.031662E-18
5.281900E+03	2.171530E-16	4.006302E-18
5.291847E+03	2.168141E-16	3.979906E-18
5.301794E+03	2.164586E-16	3.953296E-18
5.311742E+03	2.160843E-16	3.926445E-18
5.321689E+03	2.157345E-16	3.900144E-18
5.331636E+03	2.153160E-16	3.872716E-18
5.341583E+03	2.148721E-16	3.844961E-18
5.351530E+03	2.144012E-16	3.816862E-18
5.361477E+03	2.139010E-16	3.788392E-18
5.371424E+03	2.133699E-16	3.759536E-18
5.381371E+03	2.128060E-16	3.730277E-18
5.391318E+03	2.122077E-16	3.700602E-18
5.401265E+03	2.115734E-16	3.670497E-18
5.411212E+03	2.109017E-16	3.639954E-18
5.421159E+03	2.101474E-16	3.608217E-18
5.431107E+03	2.093972E-16	3.576789E-18
5.441054E+03	2.086060E-16	3.544912E-18
5.451001E+03	2.077728E-16	3.512586E-18
5.460948E+03	2.068539E-16	3.479094E-18
5.470895E+03	2.059345E-16	3.445888E-18
5.480842E+03	2.049284E-16	3.411537E-18
5.490789E+03	2.039202E-16	3.377460E-18
5.500736E+03	2.028254E-16	3.342256E-18
5.510683E+03	2.017287E-16	3.307316E-18
5.520630E+03	2.005479E-16	3.271292E-18
5.530577E+03	1.993677E-16	3.235563E-18
5.540524E+03	1.981084E-16	3.198834E-18
5.550471E+03	1.968147E-16	3.161827E-18
5.560419E+03	1.955305E-16	3.125242E-18
5.570366E+03	1.941796E-16	3.087854E-18
5.580313E+03	1.928073E-16	3.050386E-18
5.590260E+03	1.914189E-16	3.012915E-18
5.600207E+03	1.900198E-16	2.975520E-18
5.610154E+03	1.886158E-16	2.938287E-18
5.620101E+03	1.872131E-16	2.901302E-18
5.630048E+03	1.858177E-16	2.864650E-18
5.639995E+03	1.844359E-16	2.828418E-18
5.649942E+03	1.830740E-16	2.792693E-18
5.659889E+03	1.817383E-16	2.757558E-18
5.669836E+03	1.804349E-16	2.723095E-18
5.679784E+03	1.791338E-16	2.688838E-18
5.689731E+03	1.779137E-16	2.655957E-18
5.699678E+03	1.767437E-16	2.623969E-18
5.709625E+03	1.755939E-16	2.592417E-18
5.719572E+03	1.745407E-16	2.562414E-18
5.729519E+03	1.735184E-16	2.532975E-18
5.739466E+03	1.726019E-16	2.505176E-18
5.749413E+03	1.717259E-16	2.478046E-18
5.759360E+03	1.709638E-16	2.452627E-18
5.769307E+03	1.702507E-16	2.427963E-18
5.779254E+03	1.696247E-16	2.404581E-18
5.789201E+03	1.691232E-16	2.382987E-18
5.799149E+03	1.686814E-16	2.362242E-18
5.809096E+03	1.683367E-16	2.342849E-18
5.819043E+03	1.680918E-16	2.324824E-18
5.828990E+03	1.679498E-16	2.308184E-18
5.838937E+03	1.679136E-16	2.292944E-18
5.848884E+03	1.679860E-16	2.279118E-18
5.858831E+03	1.681704E-16	2.266724E-18
5.868778E+03	1.684699E-16	2.255778E-18
5.878725E+03	1.688881E-16	2.246302E-18
5.888672E+03	1.694290E-16	2.238322E-18
5.898619E+03	1.700633E-16	2.231425E-18
5.908566E+03	1.708634E-16	2.226538E-18
5.918514E+03	1.718013E-16	2.223258E-18
5.928461E+03	1.728488E-16	2.221196E-18
5.938408E+03	1.740811E-16	2.221289E-18
5.948355E+03	1.754369E-16	2.222721E-18
5.958302E+03	1.769930E-16	2.226435E-18
5.968249E+03	1.786879E-16	2.231622E-18
5.978196E+03	1.805647E-16	2.238792E-18
5.988143E+03	1.826678E-16	2.248461E-18
5.998090E+03	1.849341E-16	2.259811E-18
6.008037E+03	1.874076E-16	2.273352E-18
6.017984E+03	1.900961E-16	2.289145E-18
6.027931E+03	1.930073E-16	2.307250E-18
6.037878E+03	1.961865E-16	2.328171E-18
6.047826E+03	1.995634E-16	2.351040E-18
6.057773E+03	2.031408E-16	2.375874E-18
6.067720E+03	2.070017E-16	2.403620E-18
6.077667E+03	2.111092E-16	2.433823E-18
6.087614E+03	2.154637E-16	2.466470E-18
6.097561E+03	2.200639E-16	2.501538E-18
6.107508E+03	2.249067E-16	2.538984E-18
6.117455E+03	2.299420E-16	2.578252E-18
6.127402E+03	2.352528E-16	2.620288E-18
6.137349E+03	2.407414E-16	2.664020E-18
6.147296E+03	2.464965E-16	2.710460E-18
6.157243E+03	2.524219E-16	2.758590E-18
6.167191E+03	2.586217E-16	2.809591E-18
6.177138E+03	2.650096E-16	2.862579E-18
6.187085E+03	2.716563E-16	2.918383E-18
6.197032E+03	2.786433E-16	2.977940E-18
6.206979E+03	2.858947E-16	3.040508E-18
6.216926E+03	2.934980E-16	3.107101E-18
6.226873E+03	3.014902E-16	3.178197E-18
6.236820E+03	3.099103E-16	3.254302E-18
6.246767E+03	3.187986E-16	3.335945E-18
6.256714E+03	3.281970E-16	3.423681E-18
6.266661E+03	3.381479E-16	3.518086E-18
6.276608E+03	3.486945E-16	3.619756E-18
6.286556E+03	3.598797E-16	3.729303E-18
6.296503E+03	3.716737E-16	3.846606E-18
6.306450E+03	3.842594E-16	3.973766E-18
6.316397E+03	3.976049E-16	4.110685E-18
6.326344E+03	4.116647E-16	4.257101E-18
6.336291E+03	4.266239E-16	4.415093E-18
6.346238E+03	4.423386E-16	4.583341E-18
6.356185E+03	4.589862E-16	4.763861E-18
6.366132E+03	4.763864E-16	4.954973E-18
6.376079E+03	4.946984E-16	5.158526E-18
6.386026E+03	5.136905E-16	5.372300E-18
6.395973E+03	5.333856E-16	5.596723E-18
6.405921E+03	5.536846E-16	5.830939E-18
6.415868E+03	5.744541E-16	6.073710E-18
6.425815E+03	5.955231E-16	6.323370E-18
6.435762E+03	6.168000E-16	6.579056E-18
6.445709E+03	6.377980E-16	6.835639E-18
6.455656E+03	6.582109E-16	7.089820E-18
6.465603E+03	6.779591E-16	7.340661E-18
6.475550E+03	6.965535E-16	7.582726E-18
6.485497E+03	7.136055E-16	7.811537E-18
6.495444E+03	7.287109E-16	8.022321E-18
6.505391E+03	7.413215E-16	8.208586E-18
6.515338E+03	7.513356E-16	8.368637E-18
6.525285E+03	7.582599E-16	8.496342E-18
6.535233E+03	7.616529E-16	8.585995E-18
6.545180E+03	7.615908E-16	8.637623E-18
6.555127E+03	7.576559E-16	8.645620E-18
6.565074E+03	7.499829E-16	8.610599E-18
6.575021E+03	7.388131E-16	8.534433E-18
6.584968E+03	7.240704E-16	8.415377E-18
6.594915E+03	7.062100E-16	8.257883E-18
6.604862E+03	6.856250E-16	8.065813E-18
6.614809E+03	6.628940E-16	7.845349E-18
6.624756E+03	6.382372E-16	7.598585E-18
6.634703E+03	6.122763E-16	7.332509E-18
6.644650E+03	5.854833E-16	7.052491E-18
6.654598E+03	5.582971E-16	6.763655E-18
6.664545E+03	5.310075E-16	6.469445E-18
6.674492E+03	5.041647E-16	6.176587E-18
6.684439E+03	4.779435E-16	5.887346E-18
6.694386E+03	4.525713E-16	5.604690E-18
6.704333E+03	4.282229E-16	5.331005E-18
6.714280E+03	4.049480E-16	5.067154E-18
6.724227E+03	3.829936E-16	4.816501E-18
6.734174E+03	3.622579E-16	4.578062E-18
6.744121E+03	3.429069E-16	4.354222E-18
6.754068E+03	3.248018E-16	4.143522E-18
6.764015E+03	3.080518E-16	3.947635E-18
6.773963E+03	2.924999E-16	3.764835E-18
6.783910E+03	2.781644E-16	3.595611E-18
6.793857E+03	2.649936E-16	3.439548E-18
6.803804E+03	2.529806E-16	3.296795E-18
6.813751E+03	2.419671E-16	3.165506E-18
6.823698E+03	2.319455E-16	3.045781E-18
6.833645E+03	2.228576E-16	2.937041E-18
6.843592E+03	2.146463E-16	2.838703E-18
6.853539E+03	2.072567E-16	2.750197E-18
6.863486E+03	2.006363E-16	2.670967E-18
6.873433E+03	1.947352E-16	2.600479E-18
6.883380E+03	1.895067E-16	2.538223E-18
6.893327E+03	1.848708E-16	2.483234E-18
6.903275E+03	1.808596E-16	2.436034E-18
6.913222E+03	1.773983E-16	2.395707E-18
6.923169E+03	1.744188E-16	2.361406E-18
6.933116E+03	1.719573E-16	2.333691E-18
6.943063E+03	1.699174E-16	2.311318E-18
6.953010E+03	1.683390E-16	2.294883E-18
6.962957E+03	1.671317E-16	2.283209E-18
6.972904E+03	1.663383E-16	2.276925E-18
6.982851E+03	1.658732E-16	2.274902E-18
6.992798E+03	1.657493E-16	2.277353E-18
7.002745E+03	1.659803E-16	2.284505E-18
7.012692E+03	1.664843E-16	2.295262E-18
7.022640E+03	1.672765E-16	2.309863E-18
7.032587E+03	1.683402E-16	2.328105E-18
7.042534E+03	1.696589E-16	2.349789E-18
7.052481E+03	1.712163E-16	2.374713E-18
7.062428E+03	1.729956E-16	2.402671E-18
7.072375E+03	1.749801E-16	2.433452E-18
7.082322E+03	1.771522E-16	2.466840E-18
7.092269E+03	1.794940E-16	2.502607E-18
7.102216E+03	1.819867E-16	2.540516E-18
7.112163E+03	1.846105E-16	2.580317E-18
7.122110E+03	1.873083E-16	2.621234E-18
7.132057E+03	1.901308E-16	2.664006E-18
7.142005E+03	1.930190E-16	2.707833E-18
7.151952E+03	1.959101E-16	2.751863E-18
7.161899E+03	1.988549E-16	2.796838E-18
7.171846E+03	2.017488E-16	2.841318E-18
7.181793E+03	2.046424E-16	2.886046E-18
7.191740E+03	2.074266E-16	2.929515E-18
7.201687E+03	2.101519E-16	2.972470E-18
7.211634E+03	2.127052E-16	3.013342E-18
7.221581E+03	2.150954E-16	3.052290E-18
7.231528E+03	2.172908E-16	3.088890E-18
7.241475E+03	2.193033E-16	3.123340E-18
7.251422E+03	2.210167E-16	3.154011E-18
7.261370E+03	2.224451E-16	3.181124E-18
7.271317E+03	2.235631E-16	3.204334E-18
7.281264E+03	2.243492E-16	3.223341E-18
7.291211E+03	2.247865E-16	3.237913E-18
7.301158E+03	2.248645E-16	3.247898E-18
7.311105E+03	2.245793E-16	3.253234E-18
7.321052E+03	2.239346E-16	3.253963E-18
7.330999E+03	2.229415E-16	3.250232E-18
7.340946E+03	2.215748E-16	3.241647E-18
7.350893E+03	2.199476E-16	3.229833E-18
7.360840E+03	2.180465E-16	3.214574E-18
7.370787E+03	2.159066E-16	3.196351E-18
7.380734E+03	2.135241E-16	3.175075E-18
7.390682E+03	2.110242E-16	3.152575E-18
7.400629E+03	2.083639E-16	3.128183E-18
7.410576E+03	2.056675E-16	3.103735E-18
7.420523E+03	2.028927E-16	3.078576E-18
7.430470E+03	2.001589E-16	3.054502E-18
7.440417E+03	1.974221E-16	3.030835E-18
7.450364E+03	1.947940E-16	3.009286E-18
7.460311E+03	1.922251E-16	2.989082E-18
7.470258E+03	1.897789E-16	2.971182E-18
7.480205E+03	1.874740E-16	2.955869E-18
7.490152E+03	1.853612E-16	2.943949E-18
7.500099E+03	1.833750E-16	2.934395E-18
7.510047E+03	1.815588E-16	2.927908E-18
7.519994E+03	1.799155E-16	2.924558E-18
7.529941E+03	1.784462E-16	2.924389E-18
7.539888E+03	1.771502E-16	2.927426E-18
7.549835E+03	1.760258E-16	2.933674E-18
7.559782E+03	1.750694E-16	2.943117E-18
7.569729E+03	1.742771E-16	2.955730E-18
7.579676E+03	1.736436E-16	2.971470E-18
7.589623E+03	1.731629E-16	2.990280E-18
7.599570E+03	1.728280E-16	3.012087E-18
7.609517E+03	1.725965E-16	3.036192E-18
7.619464E+03	1.725293E-16	3.063708E-18
7.629412E+03	1.725823E-16	3.093906E-18
7.639359E+03	1.727454E-16	3.126650E-18
7.649306E+03	1.729725E-16	3.161137E-18
7.659253E+03	1.733222E-16	3.198466E-18
7.669200E+03	1.737123E-16	3.237157E-18
7.679147E+03	1.742009E-16	3.278311E-18
7.689094E+03	1.747405E-16	3.321067E-18
7.699041E+03	1.752832E-16	3.364524E-18
7.708988E+03	1.758881E-16	3.409814E-18
7.718935E+03	1.764722E-16	3.455338E-18
