#wls	flux	fluxerr
1.591533E+03	6.572507E-18	1.174053E-19
1.631321E+03	6.741691E-18	1.202407E-19
1.671110E+03	6.910433E-18	1.230539E-19
1.710898E+03	7.081703E-18	1.258973E-19
1.750686E+03	7.248298E-18	1.286424E-19
1.790475E+03	7.414901E-18	1.313720E-19
1.830263E+03	7.575286E-18	1.339756E-19
1.870051E+03	7.725745E-18	1.363878E-19
1.909840E+03	7.862075E-18	1.385350E-19
1.949628E+03	7.980615E-18	1.403538E-19
1.989416E+03	8.080674E-18	1.418334E-19
2.029205E+03	8.172485E-18	1.431546E-19
2.068993E+03	8.270816E-18	1.445761E-19
2.108781E+03	8.406148E-18	1.466285E-19
2.148570E+03	8.611548E-18	1.498826E-19
2.188358E+03	8.906681E-18	1.546713E-19
2.228146E+03	9.288840E-18	1.609362E-19
2.267935E+03	9.742919E-18	1.684045E-19
2.307723E+03	1.023741E-17	1.765225E-19
2.347511E+03	1.076310E-17	1.851253E-19
2.387300E+03	1.130548E-17	1.939583E-19
2.427088E+03	1.186054E-17	2.029485E-19
2.466876E+03	1.242819E-17	2.120912E-19
2.506665E+03	1.301598E-17	2.215110E-19
2.546453E+03	1.361627E-17	2.310734E-19
2.586241E+03	1.424379E-17	2.410238E-19
2.626030E+03	1.489675E-17	2.513259E-19
2.665818E+03	1.557896E-17	2.620373E-19
2.705606E+03	1.629422E-17	2.732150E-19
2.745395E+03	1.704642E-17	2.849163E-19
2.785183E+03	1.784680E-17	2.973195E-19
2.824971E+03	1.868533E-17	3.102476E-19
2.864759E+03	1.958117E-17	3.240078E-19
2.904548E+03	2.053172E-17	3.385442E-19
2.944336E+03	2.154191E-17	3.539249E-19
2.984124E+03	2.261702E-17	3.702217E-19
2.994072E+03	2.289884E-17	3.744846E-19
3.004019E+03	2.317612E-17	3.786629E-19
3.013966E+03	2.346702E-17	3.830534E-19
3.023913E+03	2.376272E-17	3.875113E-19
3.033860E+03	2.406365E-17	3.920434E-19
3.043807E+03	2.436978E-17	3.966491E-19
3.053754E+03	2.468199E-17	4.013420E-19
3.063701E+03	2.499053E-17	4.059636E-19
3.073648E+03	2.531471E-17	4.108274E-19
3.083595E+03	2.564493E-17	4.157769E-19
3.093542E+03	2.598120E-17	4.208117E-19
3.103489E+03	2.632354E-17	4.259320E-19
3.113437E+03	2.667196E-17	4.311377E-19
3.123384E+03	2.702652E-17	4.364290E-19
3.133331E+03	2.738726E-17	4.418064E-19
3.143278E+03	2.775421E-17	4.472701E-19
3.153225E+03	2.812745E-17	4.528207E-19
3.163172E+03	2.849613E-17	4.582834E-19
3.173119E+03	2.888200E-17	4.640080E-19
3.183066E+03	2.927437E-17	4.698217E-19
3.193013E+03	2.967332E-17	4.757254E-19
3.202960E+03	3.007892E-17	4.817201E-19
3.212907E+03	3.049129E-17	4.878069E-19
3.222854E+03	3.091052E-17	4.939870E-19
3.232801E+03	3.133669E-17	5.002614E-19
3.242749E+03	3.176995E-17	5.066315E-19
3.252696E+03	3.221038E-17	5.130987E-19
3.262643E+03	3.265812E-17	5.196643E-19
3.272590E+03	3.311326E-17	5.263295E-19
3.282537E+03	3.357594E-17	5.330960E-19
3.292484E+03	3.404628E-17	5.399652E-19
3.302431E+03	3.452441E-17	5.469385E-19
3.312378E+03	3.501046E-17	5.540177E-19
3.322325E+03	3.550457E-17	5.612043E-19
3.332272E+03	3.600686E-17	5.684996E-19
3.342219E+03	3.653108E-17	5.761200E-19
3.352166E+03	3.705033E-17	5.836404E-19
3.362114E+03	3.757819E-17	5.912746E-19
3.372061E+03	3.811477E-17	5.990239E-19
3.382008E+03	3.866024E-17	6.068902E-19
3.391955E+03	3.921471E-17	6.148748E-19
3.401902E+03	3.977835E-17	6.229794E-19
3.411849E+03	4.035126E-17	6.312054E-19
3.421796E+03	4.093360E-17	6.395543E-19
3.431743E+03	4.152550E-17	6.480275E-19
3.441690E+03	4.212708E-17	6.566263E-19
3.451637E+03	4.275414E-17	6.655961E-19
3.461584E+03	4.337568E-17	6.744530E-19
3.471531E+03	4.400729E-17	6.834396E-19
3.481479E+03	4.464909E-17	6.925568E-19
3.491426E+03	4.530119E-17	7.018057E-19
3.501373E+03	4.596369E-17	7.111873E-19
3.511320E+03	4.663670E-17	7.207022E-19
3.521267E+03	4.733749E-17	7.306165E-19
3.531214E+03	4.803206E-17	7.404041E-19
3.541161E+03	4.873743E-17	7.503274E-19
3.551108E+03	4.945369E-17	7.603868E-19
3.561055E+03	5.018091E-17	7.705829E-19
3.571002E+03	5.093748E-17	7.811967E-19
3.580949E+03	5.168707E-17	7.916700E-19
3.590896E+03	5.244782E-17	8.022803E-19
3.600844E+03	5.321977E-17	8.130276E-19
3.610791E+03	5.400297E-17	8.239118E-19
3.620738E+03	5.481701E-17	8.352306E-19
3.630685E+03	5.562305E-17	8.463908E-19
3.640632E+03	5.644041E-17	8.576864E-19
3.650579E+03	5.726910E-17	8.691168E-19
3.660526E+03	5.810912E-17	8.806810E-19
3.670473E+03	5.898135E-17	8.926942E-19
3.680420E+03	5.984426E-17	9.045266E-19
3.690367E+03	6.071844E-17	9.164893E-19
3.700314E+03	6.160385E-17	9.285809E-19
3.710261E+03	6.252246E-17	9.411313E-19
3.720208E+03	6.343046E-17	9.534796E-19
3.730156E+03	6.434952E-17	9.659516E-19
3.740103E+03	6.527956E-17	9.785451E-19
3.750050E+03	6.624367E-17	9.916052E-19
3.759997E+03	6.719568E-17	1.004439E-18
3.769944E+03	6.815835E-17	1.017388E-18
3.779891E+03	6.913160E-17	1.030448E-18
3.789838E+03	7.013968E-17	1.043981E-18
3.799785E+03	7.113395E-17	1.057261E-18
3.809732E+03	7.213836E-17	1.070644E-18
3.819679E+03	7.315274E-17	1.084127E-18
3.829626E+03	7.420260E-17	1.098086E-18
3.839573E+03	7.523674E-17	1.111763E-18
3.849521E+03	7.628032E-17	1.125530E-18
3.859468E+03	7.735979E-17	1.139774E-18
3.869415E+03	7.842199E-17	1.153713E-18
3.879362E+03	7.949300E-17	1.167730E-18
3.889309E+03	8.057262E-17	1.181821E-18
3.899256E+03	8.168860E-17	1.196392E-18
3.909203E+03	8.278509E-17	1.210624E-18
3.919150E+03	8.388948E-17	1.224918E-18
3.929097E+03	8.503052E-17	1.239691E-18
3.939044E+03	8.615035E-17	1.254100E-18
3.948991E+03	8.727731E-17	1.268558E-18
3.958938E+03	8.844114E-17	1.283495E-18
3.968886E+03	8.958192E-17	1.298041E-18
3.978833E+03	9.072914E-17	1.312623E-18
3.988780E+03	9.188244E-17	1.327237E-18
3.998727E+03	9.307293E-17	1.342329E-18
4.008674E+03	9.423796E-17	1.356996E-18
4.018621E+03	9.540827E-17	1.371680E-18
4.028568E+03	9.661600E-17	1.386843E-18
4.038515E+03	9.779644E-17	1.401555E-18
4.048462E+03	9.898128E-17	1.416270E-18
4.058409E+03	1.001702E-16	1.430985E-18
4.068356E+03	1.013971E-16	1.446180E-18
4.078303E+03	1.025939E-16	1.460886E-18
4.088251E+03	1.037942E-16	1.475581E-18
4.098198E+03	1.050324E-16	1.490752E-18
4.108145E+03	1.062388E-16	1.505411E-18
4.118092E+03	1.074477E-16	1.520045E-18
4.128039E+03	1.086947E-16	1.535156E-18
4.137986E+03	1.099080E-16	1.549728E-18
4.147933E+03	1.111228E-16	1.564259E-18
4.157880E+03	1.123390E-16	1.578747E-18
4.167827E+03	1.135934E-16	1.593710E-18
4.177774E+03	1.148113E-16	1.608099E-18
4.187721E+03	1.160295E-16	1.622429E-18
4.197668E+03	1.172476E-16	1.636695E-18
4.207615E+03	1.185039E-16	1.651431E-18
4.217563E+03	1.197209E-16	1.665556E-18
4.227510E+03	1.209365E-16	1.679600E-18
4.237457E+03	1.221901E-16	1.694109E-18
4.247404E+03	1.234020E-16	1.707977E-18
4.257351E+03	1.246111E-16	1.721743E-18
4.267298E+03	1.258169E-16	1.735403E-18
4.277245E+03	1.270602E-16	1.749516E-18
4.287192E+03	1.282582E-16	1.762944E-18
4.297139E+03	1.294512E-16	1.776241E-18
4.307086E+03	1.306386E-16	1.789402E-18
4.317033E+03	1.318626E-16	1.803001E-18
4.326980E+03	1.330375E-16	1.815868E-18
4.336928E+03	1.342050E-16	1.828575E-18
4.346875E+03	1.353648E-16	1.841117E-18
4.356822E+03	1.365163E-16	1.853486E-18
4.366769E+03	1.377030E-16	1.866275E-18
4.376716E+03	1.388369E-16	1.878289E-18
4.386663E+03	1.399615E-16	1.890119E-18
4.396610E+03	1.410765E-16	1.901764E-18
4.406557E+03	1.421817E-16	1.913220E-18
4.416504E+03	1.433229E-16	1.925103E-18
4.426451E+03	1.444088E-16	1.936187E-18
4.436398E+03	1.454849E-16	1.947085E-18
4.446345E+03	1.465511E-16	1.957799E-18
4.456293E+03	1.476075E-16	1.968327E-18
4.466240E+03	1.487011E-16	1.979297E-18
4.476187E+03	1.497382E-16	1.989460E-18
4.486134E+03	1.507653E-16	1.999441E-18
4.496081E+03	1.517826E-16	2.009238E-18
4.506028E+03	1.527902E-16	2.018855E-18
4.515975E+03	1.537878E-16	2.028290E-18
4.525922E+03	1.547755E-16	2.037543E-18
4.535869E+03	1.557531E-16	2.046613E-18
4.545816E+03	1.567697E-16	2.056144E-18
4.555763E+03	1.577272E-16	2.064850E-18
4.565710E+03	1.586744E-16	2.073371E-18
4.575658E+03	1.596109E-16	2.081704E-18
4.585605E+03	1.605368E-16	2.089849E-18
4.595552E+03	1.614518E-16	2.097805E-18
4.605499E+03	1.623556E-16	2.105569E-18
4.615446E+03	1.632480E-16	2.113137E-18
4.625393E+03	1.641289E-16	2.120509E-18
4.635340E+03	1.649979E-16	2.127681E-18
4.645287E+03	1.658547E-16	2.134651E-18
4.655234E+03	1.666991E-16	2.141416E-18
4.665181E+03	1.675308E-16	2.147972E-18
4.675128E+03	1.683495E-16	2.154318E-18
4.685075E+03	1.691546E-16	2.160448E-18
4.695022E+03	1.699462E-16	2.166361E-18
4.704970E+03	1.707238E-16	2.172054E-18
4.714917E+03	1.714869E-16	2.177522E-18
4.724864E+03	1.722354E-16	2.182762E-18
4.734811E+03	1.729690E-16	2.187774E-18
4.744758E+03	1.736872E-16	2.192551E-18
4.754705E+03	1.743899E-16	2.197093E-18
4.764652E+03	1.750766E-16	2.201397E-18
4.774599E+03	1.757471E-16	2.205459E-18
4.784546E+03	1.764012E-16	2.209280E-18
4.794493E+03	1.770385E-16	2.212854E-18
4.804440E+03	1.776051E-16	2.215512E-18
4.814387E+03	1.782083E-16	2.218593E-18
4.824335E+03	1.787942E-16	2.221427E-18
4.834282E+03	1.793626E-16	2.224010E-18
4.844229E+03	1.799135E-16	2.226345E-18
4.854176E+03	1.804467E-16	2.228432E-18
4.864123E+03	1.809076E-16	2.229598E-18
4.874070E+03	1.814052E-16	2.231189E-18
4.884017E+03	1.818852E-16	2.232535E-18
4.893964E+03	1.823473E-16	2.233637E-18
4.903911E+03	1.827369E-16	2.233827E-18
4.913858E+03	1.831639E-16	2.234450E-18
4.923805E+03	1.835733E-16	2.234836E-18
4.933752E+03	1.839655E-16	2.234989E-18
4.943700E+03	1.842857E-16	2.234248E-18
4.953647E+03	1.846439E-16	2.233949E-18
4.963594E+03	1.849856E-16	2.233430E-18
4.973541E+03	1.852558E-16	2.232033E-18
4.983488E+03	1.855650E-16	2.231089E-18
4.993435E+03	1.858585E-16	2.229940E-18
5.003382E+03	1.860815E-16	2.227929E-18
5.013329E+03	1.863445E-16	2.226387E-18
5.023276E+03	1.865375E-16	2.223995E-18
5.033223E+03	1.867713E-16	2.222079E-18
5.043170E+03	1.869911E-16	2.219985E-18
5.053117E+03	1.871419E-16	2.217063E-18
5.063064E+03	1.873346E-16	2.214628E-18
5.073012E+03	1.874591E-16	2.211380E-18
5.082959E+03	1.876260E-16	2.208627E-18
5.092906E+03	1.877255E-16	2.205074E-18
5.102853E+03	1.878679E-16	2.202021E-18
5.112800E+03	1.879435E-16	2.198182E-18
5.122747E+03	1.880626E-16	2.194849E-18
5.132694E+03	1.881154E-16	2.190740E-18
5.142641E+03	1.881571E-16	2.186503E-18
5.152588E+03	1.882429E-16	2.182778E-18
5.162535E+03	1.882629E-16	2.178292E-18
5.172482E+03	1.883274E-16	2.174321E-18
5.182429E+03	1.883265E-16	2.169599E-18
5.192377E+03	1.883152E-16	2.164762E-18
5.202324E+03	1.883482E-16	2.160440E-18
5.212271E+03	1.883163E-16	2.155379E-18
5.222218E+03	1.882740E-16	2.150206E-18
5.232165E+03	1.882213E-16	2.144925E-18
5.242112E+03	1.882128E-16	2.140155E-18
5.252059E+03	1.881393E-16	2.134654E-18
5.262006E+03	1.880552E-16	2.129047E-18
5.271953E+03	1.879605E-16	2.123332E-18
5.281900E+03	1.878549E-16	2.117508E-18
5.291847E+03	1.877925E-16	2.112184E-18
5.301794E+03	1.876649E-16	2.106142E-18
5.311742E+03	1.875261E-16	2.099990E-18
5.321689E+03	1.873759E-16	2.093730E-18
5.331636E+03	1.872143E-16	2.087361E-18
5.341583E+03	1.870411E-16	2.080884E-18
5.351530E+03	1.868562E-16	2.074298E-18
5.361477E+03	1.866597E-16	2.067605E-18
5.371424E+03	1.864515E-16	2.060806E-18
5.381371E+03	1.862316E-16	2.053904E-18
5.391318E+03	1.860001E-16	2.046899E-18
5.401265E+03	1.857573E-16	2.039796E-18
5.411212E+03	1.855033E-16	2.032599E-18
5.421159E+03	1.852387E-16	2.025315E-18
5.431107E+03	1.849637E-16	2.017948E-18
5.441054E+03	1.846791E-16	2.010507E-18
5.451001E+03	1.843857E-16	2.003003E-18
5.460948E+03	1.840844E-16	1.995447E-18
5.470895E+03	1.837242E-16	1.987288E-18
5.480842E+03	1.834109E-16	1.979673E-18
5.490789E+03	1.830936E-16	1.972051E-18
5.500736E+03	1.827741E-16	1.964442E-18
5.510683E+03	1.824025E-16	1.956312E-18
5.520630E+03	1.820841E-16	1.948792E-18
5.530577E+03	1.817693E-16	1.941348E-18
5.540524E+03	1.814602E-16	1.934004E-18
5.550471E+03	1.811081E-16	1.926241E-18
5.560419E+03	1.808175E-16	1.919170E-18
5.570366E+03	1.805396E-16	1.912272E-18
5.580313E+03	1.802264E-16	1.905038E-18
5.590260E+03	1.799817E-16	1.898565E-18
5.600207E+03	1.797068E-16	1.891812E-18
5.610154E+03	1.795055E-16	1.885870E-18
5.620101E+03	1.792795E-16	1.879704E-18
5.630048E+03	1.791321E-16	1.874399E-18
5.639995E+03	1.789656E-16	1.868926E-18
5.649942E+03	1.788831E-16	1.864365E-18
5.659889E+03	1.787871E-16	1.859695E-18
5.669836E+03	1.787806E-16	1.855986E-18
5.679784E+03	1.787662E-16	1.852227E-18
5.689731E+03	1.787971E-16	1.848965E-18
5.699678E+03	1.789258E-16	1.846743E-18
5.709625E+03	1.790555E-16	1.844556E-18
5.719572E+03	1.792388E-16	1.842948E-18
5.729519E+03	1.795290E-16	1.842462E-18
5.739466E+03	1.798289E-16	1.842096E-18
5.749413E+03	1.801916E-16	1.842394E-18
5.759360E+03	1.806200E-16	1.843384E-18
5.769307E+03	1.811173E-16	1.845094E-18
5.779254E+03	1.817371E-16	1.848067E-18
5.789201E+03	1.823816E-16	1.851305E-18
5.799149E+03	1.831045E-16	1.855351E-18
5.809096E+03	1.839093E-16	1.860236E-18
5.819043E+03	1.847989E-16	1.865989E-18
5.828990E+03	1.857769E-16	1.872641E-18
5.838937E+03	1.868467E-16	1.880225E-18
5.848884E+03	1.880119E-16	1.888771E-18
5.858831E+03	1.892760E-16	1.898314E-18
5.868778E+03	1.906427E-16	1.908885E-18
5.878725E+03	1.921157E-16	1.920519E-18
5.888672E+03	1.936988E-16	1.933251E-18
5.898619E+03	1.953959E-16	1.947115E-18
5.908566E+03	1.972109E-16	1.962149E-18
5.918514E+03	1.991479E-16	1.978389E-18
5.928461E+03	2.011556E-16	1.995323E-18
5.938408E+03	2.033484E-16	2.014084E-18
5.948355E+03	2.056757E-16	2.034164E-18
5.958302E+03	2.081418E-16	2.055605E-18
5.968249E+03	2.106933E-16	2.077878E-18
5.978196E+03	2.134497E-16	2.102156E-18
5.988143E+03	2.163582E-16	2.127918E-18
5.998090E+03	2.193632E-16	2.154615E-18
6.008037E+03	2.225889E-16	2.183463E-18
6.017984E+03	2.259806E-16	2.213924E-18
6.027931E+03	2.294797E-16	2.245423E-18
6.037878E+03	2.332158E-16	2.279226E-18
6.047826E+03	2.370666E-16	2.314135E-18
6.057773E+03	2.411653E-16	2.351451E-18
6.067720E+03	2.453851E-16	2.389935E-18
6.077667E+03	2.498635E-16	2.430927E-18
6.087614E+03	2.544688E-16	2.473145E-18
6.097561E+03	2.593427E-16	2.517966E-18
6.107508E+03	2.643481E-16	2.564060E-18
6.117455E+03	2.695576E-16	2.612133E-18
6.127402E+03	2.750485E-16	2.662936E-18
6.137349E+03	2.806742E-16	2.715048E-18
6.147296E+03	2.865096E-16	2.769201E-18
6.157243E+03	2.926346E-16	2.826167E-18
6.167191E+03	2.988911E-16	2.884424E-18
6.177138E+03	3.053556E-16	2.944716E-18
6.187085E+03	3.120256E-16	3.007021E-18
6.197032E+03	3.188969E-16	3.071309E-18
6.206979E+03	3.260533E-16	3.138390E-18
6.216926E+03	3.333124E-16	3.206515E-18
6.226873E+03	3.407529E-16	3.276452E-18
6.236820E+03	3.483646E-16	3.348110E-18
6.246767E+03	3.561360E-16	3.421388E-18
6.256714E+03	3.640531E-16	3.496162E-18
6.266661E+03	3.721003E-16	3.572294E-18
6.276608E+03	3.802598E-16	3.649624E-18
6.286556E+03	3.885114E-16	3.727970E-18
6.296503E+03	3.968326E-16	3.807125E-18
6.306450E+03	4.051988E-16	3.886861E-18
6.316397E+03	4.135826E-16	3.966926E-18
6.326344E+03	4.218400E-16	4.045946E-18
6.336291E+03	4.301657E-16	4.125799E-18
6.346238E+03	4.384135E-16	4.205089E-18
6.356185E+03	4.465469E-16	4.283474E-18
6.366132E+03	4.545276E-16	4.360596E-18
6.376079E+03	4.621905E-16	4.434876E-18
6.386026E+03	4.697426E-16	4.508306E-18
6.395973E+03	4.770179E-16	4.579301E-18
6.405921E+03	4.838423E-16	4.646189E-18
6.415868E+03	4.904323E-16	4.711055E-18
6.425815E+03	4.964810E-16	4.770950E-18
6.435762E+03	5.022129E-16	4.828033E-18
6.445709E+03	5.074539E-16	4.880628E-18
6.455656E+03	5.120256E-16	4.927015E-18
6.465603E+03	5.161670E-16	4.969489E-18
6.475550E+03	5.195661E-16	5.005040E-18
6.485497E+03	5.224727E-16	5.036062E-18
6.495444E+03	5.245787E-16	5.059579E-18
6.505391E+03	5.260036E-16	5.076727E-18
6.515338E+03	5.268736E-16	5.088710E-18
6.525285E+03	5.268929E-16	5.092658E-18
6.535233E+03	5.261987E-16	5.089876E-18
6.545180E+03	5.249337E-16	5.081725E-18
6.555127E+03	5.228200E-16	5.065498E-18
6.565074E+03	5.200122E-16	5.042669E-18
6.575021E+03	5.165286E-16	5.013392E-18
6.584968E+03	5.125312E-16	4.979217E-18
6.594915E+03	5.077703E-16	4.937697E-18
6.604862E+03	5.024188E-16	4.890487E-18
6.614809E+03	4.965141E-16	4.837928E-18
6.624756E+03	4.900971E-16	4.780395E-18
6.634703E+03	4.832118E-16	4.718294E-18
6.644650E+03	4.759044E-16	4.652055E-18
6.654598E+03	4.682226E-16	4.582121E-18
6.664545E+03	4.602151E-16	4.508953E-18
6.674492E+03	4.519312E-16	4.433010E-18
6.684439E+03	4.434197E-16	4.354758E-18
6.694386E+03	4.347286E-16	4.274649E-18
6.704333E+03	4.259045E-16	4.193130E-18
6.714280E+03	4.169925E-16	4.110630E-18
6.724227E+03	4.080352E-16	4.027560E-18
6.734174E+03	3.990729E-16	3.944308E-18
6.744121E+03	3.900376E-16	3.860193E-18
6.754068E+03	3.811775E-16	3.777663E-18
6.764015E+03	3.724161E-16	3.695959E-18
6.773963E+03	3.637819E-16	3.615363E-18
6.783910E+03	3.552044E-16	3.535169E-18
6.793857E+03	3.469002E-16	3.457533E-18
6.803804E+03	3.387902E-16	3.381670E-18
6.813751E+03	3.308014E-16	3.306852E-18
6.823698E+03	3.231285E-16	3.235030E-18
6.833645E+03	3.156909E-16	3.165402E-18
6.843592E+03	3.084138E-16	3.097222E-18
6.853539E+03	3.014724E-16	3.032256E-18
6.863486E+03	2.947058E-16	2.968893E-18
6.873433E+03	2.882776E-16	2.908786E-18
6.883380E+03	2.820305E-16	2.850361E-18
6.893327E+03	2.761181E-16	2.795173E-18
6.903275E+03	2.703870E-16	2.741681E-18
6.913222E+03	2.649098E-16	2.690628E-18
6.923169E+03	2.597523E-16	2.642692E-18
6.933116E+03	2.547667E-16	2.596381E-18
6.943063E+03	2.500865E-16	2.553062E-18
6.953010E+03	2.455679E-16	2.511276E-18
6.962957E+03	2.412722E-16	2.471661E-18
6.972904E+03	2.371918E-16	2.434144E-18
6.982851E+03	2.333813E-16	2.399299E-18
6.992798E+03	2.297048E-16	2.365736E-18
7.002745E+03	2.262178E-16	2.334033E-18
7.012692E+03	2.229113E-16	2.304106E-18
7.022640E+03	2.197762E-16	2.275870E-18
7.032587E+03	2.168036E-16	2.249239E-18
7.042534E+03	2.139843E-16	2.224125E-18
7.052481E+03	2.113667E-16	2.201040E-18
7.062428E+03	2.088264E-16	2.178697E-18
7.072375E+03	2.064127E-16	2.157612E-18
7.082322E+03	2.041169E-16	2.137702E-18
7.092269E+03	2.019304E-16	2.118882E-18
7.102216E+03	1.998450E-16	2.101071E-18
7.112163E+03	1.978523E-16	2.084187E-18
7.122110E+03	1.958915E-16	2.067591E-18
7.132057E+03	1.940618E-16	2.052333E-18
7.142005E+03	1.923022E-16	2.037775E-18
7.151952E+03	1.906056E-16	2.023845E-18
7.161899E+03	1.889653E-16	2.010473E-18
7.171846E+03	1.873750E-16	1.997597E-18
7.181793E+03	1.857780E-16	1.984613E-18
7.191740E+03	1.842703E-16	1.972547E-18
7.201687E+03	1.827957E-16	1.960801E-18
7.211634E+03	1.813494E-16	1.949326E-18
7.221581E+03	1.798778E-16	1.937544E-18
7.231528E+03	1.784754E-16	1.926475E-18
7.241475E+03	1.770893E-16	1.915549E-18
7.251422E+03	1.756683E-16	1.904211E-18
7.261370E+03	1.743060E-16	1.893477E-18
7.271317E+03	1.729046E-16	1.882284E-18
7.281264E+03	1.715570E-16	1.871643E-18
7.291211E+03	1.702142E-16	1.861022E-18
7.301158E+03	1.688287E-16	1.849898E-18
7.311105E+03	1.674930E-16	1.839285E-18
7.321052E+03	1.661141E-16	1.828162E-18
7.330999E+03	1.647387E-16	1.817040E-18
7.340946E+03	1.634115E-16	1.806412E-18
7.350893E+03	1.620431E-16	1.795293E-18
7.360840E+03	1.607235E-16	1.784677E-18
7.370787E+03	1.593651E-16	1.773590E-18
7.380734E+03	1.580134E-16	1.762537E-18
7.390682E+03	1.567128E-16	1.752012E-18
7.400629E+03	1.553779E-16	1.741062E-18
7.410576E+03	1.540535E-16	1.730186E-18
7.420523E+03	1.527833E-16	1.719874E-18
7.430470E+03	1.514840E-16	1.709191E-18
7.440417E+03	1.501995E-16	1.698629E-18
7.450364E+03	1.489313E-16	1.688206E-18
7.460311E+03	1.476810E-16	1.677938E-18
7.470258E+03	1.464903E-16	1.668303E-18
7.480205E+03	1.452795E-16	1.658394E-18
7.490152E+03	1.440909E-16	1.648691E-18
7.500099E+03	1.429258E-16	1.639211E-18
7.510047E+03	1.417855E-16	1.629969E-18
7.519994E+03	1.406712E-16	1.620981E-18
7.529941E+03	1.395839E-16	1.612258E-18
7.539888E+03	1.385243E-16	1.603811E-18
7.549835E+03	1.374931E-16	1.595651E-18
7.559782E+03	1.364907E-16	1.587781E-18
7.569729E+03	1.355175E-16	1.580208E-18
7.579676E+03	1.345734E-16	1.572934E-18
7.589623E+03	1.336580E-16	1.565955E-18
7.599570E+03	1.327713E-16	1.559273E-18
7.609517E+03	1.319127E-16	1.552881E-18
7.619464E+03	1.310813E-16	1.546774E-18
7.629412E+03	1.302765E-16	1.540942E-18
7.639359E+03	1.294611E-16	1.534948E-18
7.649306E+03	1.287065E-16	1.529640E-18
7.659253E+03	1.279753E-16	1.524574E-18
7.669200E+03	1.272661E-16	1.519738E-18
7.679147E+03	1.265778E-16	1.515117E-18
7.689094E+03	1.258736E-16	1.510274E-18
7.699041E+03	1.252228E-16	1.506038E-18
7.708988E+03	1.245887E-16	1.501973E-18
7.718935E+03	1.239696E-16	1.498057E-18
