#wls	flux	fluxerr
1.597604E+03	7.777645E-04	1.592569E-05
1.637544E+03	8.020456E-04	1.637151E-05
1.677484E+03	8.283327E-04	1.685378E-05
1.717424E+03	8.566622E-04	1.737270E-05
1.757364E+03	8.874032E-04	1.793515E-05
1.797304E+03	9.206060E-04	1.854148E-05
1.837244E+03	9.564938E-04	1.919548E-05
1.877184E+03	9.954643E-04	1.990430E-05
1.917124E+03	1.037599E-03	2.066869E-05
1.957064E+03	1.083243E-03	2.149451E-05
1.997004E+03	1.132590E-03	2.238454E-05
2.036945E+03	1.186022E-03	2.334512E-05
2.076885E+03	1.243607E-03	2.437631E-05
2.116825E+03	1.305520E-03	2.548016E-05
2.156765E+03	1.371879E-03	2.665748E-05
2.196705E+03	1.442400E-03	2.790124E-05
2.236645E+03	1.516733E-03	2.920320E-05
2.276585E+03	1.594892E-03	3.056216E-05
2.316525E+03	1.677273E-03	3.198414E-05
2.356465E+03	1.765287E-03	3.349420E-05
2.396405E+03	1.860254E-03	3.511510E-05
2.436345E+03	1.963497E-03	3.686911E-05
2.476286E+03	2.076630E-03	3.878325E-05
2.516226E+03	2.200844E-03	4.087595E-05
2.556166E+03	2.337639E-03	4.317068E-05
2.596106E+03	2.488472E-03	4.568940E-05
2.636046E+03	2.655048E-03	4.845776E-05
2.675986E+03	2.838951E-03	5.149835E-05
2.715926E+03	3.041933E-03	5.483580E-05
2.755866E+03	3.265823E-03	5.849516E-05
2.795806E+03	3.512523E-03	6.250169E-05
2.835746E+03	3.784115E-03	6.688267E-05
2.875686E+03	4.083091E-03	7.167132E-05
2.915627E+03	4.412426E-03	7.690774E-05
2.955567E+03	4.775899E-03	8.264419E-05
2.995507E+03	5.178252E-03	8.894718E-05
3.005492E+03	5.285723E-03	9.062330E-05
3.015477E+03	5.395984E-03	9.233960E-05
3.025462E+03	5.509359E-03	9.410131E-05
3.035447E+03	5.625824E-03	9.590768E-05
3.045432E+03	5.745602E-03	9.776216E-05
3.055417E+03	5.868938E-03	9.966853E-05
3.065402E+03	5.995698E-03	1.016241E-04
3.075387E+03	6.126387E-03	1.036372E-04
3.085372E+03	6.260868E-03	1.057048E-04
3.095357E+03	6.399499E-03	1.078328E-04
3.105342E+03	6.542184E-03	1.100189E-04
3.115327E+03	6.688831E-03	1.122613E-04
3.125312E+03	6.839422E-03	1.145591E-04
3.135297E+03	6.993186E-03	1.168990E-04
3.145282E+03	7.149824E-03	1.192757E-04
3.155267E+03	7.308177E-03	1.216695E-04
3.165252E+03	7.467960E-03	1.240755E-04
3.175237E+03	7.628468E-03	1.264817E-04
3.185222E+03	7.790024E-03	1.288935E-04
3.195207E+03	7.953230E-03	1.313205E-04
3.205192E+03	8.119876E-03	1.337922E-04
3.215177E+03	8.292730E-03	1.363535E-04
3.225162E+03	8.475771E-03	1.390690E-04
3.235147E+03	8.674039E-03	1.420202E-04
3.245132E+03	8.894048E-03	1.453119E-04
3.255117E+03	9.142699E-03	1.490542E-04
3.265102E+03	9.427680E-03	1.533691E-04
3.275087E+03	9.756442E-03	1.583737E-04
3.285072E+03	1.013615E-02	1.641792E-04
3.295057E+03	1.057326E-02	1.708846E-04
3.305042E+03	1.107249E-02	1.785595E-04
3.315027E+03	1.163691E-02	1.872468E-04
3.325012E+03	1.226708E-02	1.969483E-04
3.334998E+03	1.296052E-02	2.076171E-04
3.344983E+03	1.371256E-02	2.191713E-04
3.354968E+03	1.451499E-02	2.314737E-04
3.364953E+03	1.535696E-02	2.443460E-04
3.374938E+03	1.622520E-02	2.575730E-04
3.384923E+03	1.710412E-02	2.709045E-04
3.394908E+03	1.797800E-02	2.840910E-04
3.404893E+03	1.883065E-02	2.968774E-04
3.414878E+03	1.964724E-02	3.090327E-04
3.424863E+03	2.041599E-02	3.203756E-04
3.434848E+03	2.112895E-02	3.307870E-04
3.444833E+03	2.178189E-02	3.402067E-04
3.454818E+03	2.237531E-02	3.486489E-04
3.464803E+03	2.291200E-02	3.561635E-04
3.474788E+03	2.339697E-02	3.628345E-04
3.484773E+03	2.383484E-02	3.687390E-04
3.494758E+03	2.422834E-02	3.739243E-04
3.504743E+03	2.457679E-02	3.783849E-04
3.514728E+03	2.487508E-02	3.820471E-04
3.524713E+03	2.511325E-02	3.847641E-04
3.534698E+03	2.527808E-02	3.863407E-04
3.544683E+03	2.535576E-02	3.865745E-04
3.554668E+03	2.533416E-02	3.852908E-04
3.564653E+03	2.520594E-02	3.823895E-04
3.574638E+03	2.496909E-02	3.778525E-04
3.584623E+03	2.462621E-02	3.717314E-04
3.594608E+03	2.417988E-02	3.640771E-04
3.604593E+03	2.363235E-02	3.549355E-04
3.614578E+03	2.298818E-02	3.443863E-04
3.624563E+03	2.226000E-02	3.326297E-04
3.634548E+03	2.146922E-02	3.199944E-04
3.644533E+03	2.064575E-02	3.069324E-04
3.654518E+03	1.982239E-02	2.939339E-04
3.664503E+03	1.902961E-02	2.814499E-04
3.674488E+03	1.829264E-02	2.698491E-04
3.684473E+03	1.763106E-02	2.594133E-04
3.694458E+03	1.706018E-02	2.503587E-04
3.704443E+03	1.659295E-02	2.428644E-04
3.714428E+03	1.624000E-02	2.370738E-04
3.724413E+03	1.600985E-02	2.330977E-04
3.734398E+03	1.590756E-02	2.309957E-04
3.744383E+03	1.593550E-02	2.307872E-04
3.754368E+03	1.609325E-02	2.324512E-04
3.764353E+03	1.637644E-02	2.359097E-04
3.774338E+03	1.677552E-02	2.410110E-04
3.784324E+03	1.727540E-02	2.475256E-04
3.794309E+03	1.785399E-02	2.551261E-04
3.804294E+03	1.848284E-02	2.633980E-04
3.814279E+03	1.912821E-02	2.718560E-04
3.824264E+03	1.975289E-02	2.799708E-04
3.834249E+03	2.031934E-02	2.872143E-04
3.844234E+03	2.079385E-02	2.931180E-04
3.854219E+03	2.114868E-02	2.973029E-04
3.864204E+03	2.136766E-02	2.995560E-04
3.874189E+03	2.144620E-02	2.998291E-04
3.884174E+03	2.139257E-02	2.982537E-04
3.894159E+03	2.122601E-02	2.951129E-04
3.904144E+03	2.097459E-02	2.908087E-04
3.914129E+03	2.066955E-02	2.857833E-04
3.924114E+03	2.034293E-02	2.804842E-04
3.934099E+03	2.002362E-02	2.753115E-04
3.944084E+03	1.973396E-02	2.705707E-04
3.954069E+03	1.948791E-02	2.664493E-04
3.964054E+03	1.929070E-02	2.630135E-04
3.974039E+03	1.913803E-02	2.601992E-04
3.984024E+03	1.902052E-02	2.578743E-04
3.994009E+03	1.892770E-02	2.558933E-04
4.003994E+03	1.885065E-02	2.541330E-04
4.013979E+03	1.878391E-02	2.525185E-04
4.023964E+03	1.872661E-02	2.510368E-04
4.033949E+03	1.868043E-02	2.497096E-04
4.043934E+03	1.864824E-02	2.485736E-04
4.053919E+03	1.863038E-02	2.476321E-04
4.063904E+03	1.862390E-02	2.468443E-04
4.073889E+03	1.862290E-02	2.461310E-04
4.083874E+03	1.862022E-02	2.453976E-04
4.093859E+03	1.860921E-02	2.445566E-04
4.103844E+03	1.858471E-02	2.435414E-04
4.113829E+03	1.854322E-02	2.423082E-04
4.123814E+03	1.848159E-02	2.408175E-04
4.133799E+03	1.839713E-02	2.390370E-04
4.143784E+03	1.828632E-02	2.369235E-04
4.153769E+03	1.814452E-02	2.344199E-04
4.163754E+03	1.796574E-02	2.314528E-04
4.173739E+03	1.774296E-02	2.279358E-04
4.183724E+03	1.747018E-02	2.237970E-04
4.193709E+03	1.714491E-02	2.190100E-04
4.203694E+03	1.677137E-02	2.136340E-04
4.213679E+03	1.636109E-02	2.078208E-04
4.223665E+03	1.593300E-02	2.018140E-04
4.233650E+03	1.550958E-02	1.958993E-04
4.243635E+03	1.511319E-02	1.903576E-04
4.253620E+03	1.476331E-02	1.854307E-04
4.263605E+03	1.447333E-02	1.812814E-04
4.273590E+03	1.424703E-02	1.779502E-04
4.283575E+03	1.408012E-02	1.753771E-04
4.293560E+03	1.396236E-02	1.734289E-04
4.303545E+03	1.387930E-02	1.719214E-04
4.313530E+03	1.381564E-02	1.706619E-04
4.323515E+03	1.376079E-02	1.695181E-04
4.333500E+03	1.371251E-02	1.684617E-04
4.343485E+03	1.367688E-02	1.675664E-04
4.353470E+03	1.366950E-02	1.670215E-04
4.363455E+03	1.371673E-02	1.671455E-04
4.373440E+03	1.384934E-02	1.683065E-04
4.383425E+03	1.409494E-02	1.708311E-04
4.393410E+03	1.445645E-02	1.747436E-04
4.403395E+03	1.490875E-02	1.797299E-04
4.413380E+03	1.541659E-02	1.853578E-04
4.423365E+03	1.594155E-02	1.911613E-04
4.433350E+03	1.644084E-02	1.966274E-04
4.443335E+03	1.687118E-02	2.012424E-04
4.453320E+03	1.719723E-02	2.045928E-04
4.463305E+03	1.739519E-02	2.064059E-04
4.473290E+03	1.745666E-02	2.065943E-04
4.483275E+03	1.739237E-02	2.052974E-04
4.493260E+03	1.722797E-02	2.028289E-04
4.503245E+03	1.699507E-02	1.995688E-04
4.513230E+03	1.672576E-02	1.958992E-04
4.523215E+03	1.644790E-02	1.921487E-04
4.533200E+03	1.618058E-02	1.885403E-04
4.543185E+03	1.593328E-02	1.851831E-04
4.553170E+03	1.570730E-02	1.820902E-04
4.563155E+03	1.549922E-02	1.792201E-04
4.573140E+03	1.530266E-02	1.764974E-04
4.583125E+03	1.511129E-02	1.738481E-04
4.593110E+03	1.491952E-02	1.712077E-04
4.603095E+03	1.472380E-02	1.685353E-04
4.613080E+03	1.452230E-02	1.658103E-04
4.623065E+03	1.431514E-02	1.630344E-04
4.633050E+03	1.410327E-02	1.602189E-04
4.643035E+03	1.388957E-02	1.573965E-04
4.653020E+03	1.367917E-02	1.546256E-04
4.663005E+03	1.347988E-02	1.519935E-04
4.672991E+03	1.329975E-02	1.495900E-04
4.682976E+03	1.314555E-02	1.474890E-04
4.692961E+03	1.302146E-02	1.457355E-04
4.702946E+03	1.292738E-02	1.443255E-04
4.712931E+03	1.285913E-02	1.432100E-04
4.722916E+03	1.280852E-02	1.422959E-04
4.732901E+03	1.276509E-02	1.414657E-04
4.742886E+03	1.271795E-02	1.405985E-04
4.752871E+03	1.265857E-02	1.396003E-04
4.762856E+03	1.258020E-02	1.383982E-04
4.772841E+03	1.247862E-02	1.369470E-04
4.782826E+03	1.235217E-02	1.352305E-04
4.792811E+03	1.220107E-02	1.332531E-04
4.802796E+03	1.202711E-02	1.310361E-04
4.812781E+03	1.183442E-02	1.286263E-04
4.822766E+03	1.162948E-02	1.260951E-04
4.832751E+03	1.142069E-02	1.235344E-04
4.842736E+03	1.121865E-02	1.210588E-04
4.852721E+03	1.103471E-02	1.187900E-04
4.862706E+03	1.087894E-02	1.168345E-04
4.872691E+03	1.075858E-02	1.152678E-04
4.882676E+03	1.067774E-02	1.141310E-04
4.892661E+03	1.063694E-02	1.134265E-04
4.902646E+03	1.063368E-02	1.131250E-04
4.912631E+03	1.066227E-02	1.131631E-04
4.922616E+03	1.071588E-02	1.134661E-04
4.932601E+03	1.078839E-02	1.139676E-04
4.942586E+03	1.087445E-02	1.146097E-04
4.952571E+03	1.097067E-02	1.153562E-04
4.962556E+03	1.107751E-02	1.162107E-04
4.972541E+03	1.119794E-02	1.172040E-04
4.982526E+03	1.133717E-02	1.183895E-04
4.992511E+03	1.150125E-02	1.198290E-04
5.002496E+03	1.169571E-02	1.215781E-04
5.012481E+03	1.192354E-02	1.236660E-04
5.022466E+03	1.218322E-02	1.260748E-04
5.032451E+03	1.246860E-02	1.287386E-04
5.042436E+03	1.276954E-02	1.315518E-04
5.052421E+03	1.307322E-02	1.343812E-04
5.062406E+03	1.336484E-02	1.370754E-04
5.072391E+03	1.363059E-02	1.394941E-04
5.082376E+03	1.385996E-02	1.415317E-04
5.092361E+03	1.404605E-02	1.431206E-04
5.102346E+03	1.418483E-02	1.442228E-04
5.112332E+03	1.427597E-02	1.448384E-04
5.122317E+03	1.432148E-02	1.449907E-04
5.132302E+03	1.432580E-02	1.447278E-04
5.142287E+03	1.429450E-02	1.441084E-04
5.152272E+03	1.423460E-02	1.432057E-04
5.162257E+03	1.415309E-02	1.420915E-04
5.172242E+03	1.405636E-02	1.408312E-04
5.182227E+03	1.394955E-02	1.394772E-04
5.192212E+03	1.383490E-02	1.380524E-04
5.202197E+03	1.371175E-02	1.365507E-04
5.212182E+03	1.357733E-02	1.349452E-04
5.222167E+03	1.342860E-02	1.332060E-04
5.232152E+03	1.326384E-02	1.313174E-04
5.242137E+03	1.308285E-02	1.292780E-04
5.252122E+03	1.288763E-02	1.271083E-04
5.262107E+03	1.268193E-02	1.248461E-04
5.272092E+03	1.247039E-02	1.225375E-04
5.282077E+03	1.225716E-02	1.202233E-04
5.292062E+03	1.204546E-02	1.179350E-04
5.302047E+03	1.183797E-02	1.156988E-04
5.312032E+03	1.163741E-02	1.135407E-04
5.322017E+03	1.144717E-02	1.114934E-04
5.332002E+03	1.127097E-02	1.095923E-04
5.341987E+03	1.111167E-02	1.078647E-04
5.351972E+03	1.097012E-02	1.063175E-04
5.361957E+03	1.084572E-02	1.049443E-04
5.371942E+03	1.073616E-02	1.037218E-04
5.381927E+03	1.063709E-02	1.026074E-04
5.391912E+03	1.054242E-02	1.015420E-04
5.401897E+03	1.044540E-02	1.004603E-04
5.411882E+03	1.033786E-02	9.928388E-05
5.421867E+03	1.021212E-02	9.793950E-05
5.431852E+03	1.006224E-02	9.637062E-05
5.441837E+03	9.885361E-03	9.455082E-05
5.451822E+03	9.683243E-03	9.249762E-05
5.461807E+03	9.464542E-03	9.029431E-05
5.471792E+03	9.245515E-03	8.809615E-05
5.481777E+03	9.050408E-03	8.613362E-05
5.491762E+03	8.898798E-03	8.459181E-05
5.501747E+03	8.782965E-03	8.339577E-05
5.511732E+03	8.696278E-03	8.248128E-05
5.521717E+03	8.635181E-03	8.181363E-05
5.531702E+03	8.596169E-03	8.135878E-05
5.541687E+03	8.574899E-03	8.107492E-05
5.551672E+03	8.565620E-03	8.090717E-05
5.561658E+03	8.561329E-03	8.078906E-05
5.571643E+03	8.554298E-03	8.064758E-05
5.581628E+03	8.538424E-03	8.042526E-05
5.591613E+03	8.509774E-03	8.008525E-05
5.601598E+03	8.467259E-03	7.961761E-05
5.611583E+03	8.412365E-03	7.903654E-05
5.621568E+03	8.348831E-03	7.837737E-05
5.631553E+03	8.282269E-03	7.769286E-05
5.641538E+03	8.218186E-03	7.703460E-05
5.651523E+03	8.161515E-03	7.644870E-05
5.661508E+03	8.116287E-03	7.597265E-05
5.671493E+03	8.084340E-03	7.562338E-05
5.681478E+03	8.065749E-03	7.540130E-05
5.691463E+03	8.058754E-03	7.528969E-05
5.701448E+03	8.060282E-03	7.525963E-05
5.711433E+03	8.066801E-03	7.527801E-05
5.721418E+03	8.074772E-03	7.531172E-05
5.731403E+03	8.081354E-03	7.533426E-05
5.741388E+03	8.084924E-03	7.533050E-05
5.751373E+03	8.084661E-03	7.529283E-05
5.761358E+03	8.080609E-03	7.522172E-05
5.771343E+03	8.072397E-03	7.511371E-05
5.781328E+03	8.059862E-03	7.496735E-05
5.791313E+03	8.042232E-03	7.477548E-05
5.801298E+03	8.018292E-03	7.452685E-05
5.811283E+03	7.986130E-03	7.420371E-05
5.821268E+03	7.943438E-03	7.378471E-05
5.831253E+03	7.887587E-03	7.324546E-05
5.841238E+03	7.816916E-03	7.257062E-05
5.851223E+03	7.731879E-03	7.176447E-05
5.861208E+03	7.635301E-03	7.085325E-05
5.871193E+03	7.531215E-03	6.987439E-05
5.881178E+03	7.423993E-03	6.886842E-05
5.891163E+03	7.316584E-03	6.786264E-05
5.901148E+03	7.210524E-03	6.687123E-05
5.911133E+03	7.105800E-03	6.589401E-05
5.921118E+03	7.001332E-03	6.492089E-05
5.931103E+03	6.895987E-03	6.394131E-05
5.941088E+03	6.789344E-03	6.295130E-05
5.951073E+03	6.682273E-03	6.195887E-05
5.961058E+03	6.576766E-03	6.098244E-05
5.971043E+03	6.474374E-03	6.003632E-05
5.981028E+03	6.376187E-03	5.913057E-05
5.991013E+03	6.282947E-03	5.827202E-05
6.000999E+03	6.195477E-03	5.746828E-05
6.010984E+03	6.115052E-03	5.673115E-05
6.020969E+03	6.043198E-03	5.607477E-05
6.030954E+03	5.981815E-03	5.551680E-05
6.040939E+03	5.932102E-03	5.506839E-05
6.050924E+03	5.895063E-03	5.473891E-05
6.060909E+03	5.871104E-03	5.453224E-05
6.070894E+03	5.859837E-03	5.444487E-05
6.080879E+03	5.859823E-03	5.446355E-05
6.090864E+03	5.868839E-03	5.456773E-05
6.100849E+03	5.884152E-03	5.473214E-05
6.110834E+03	5.902141E-03	5.492316E-05
6.120819E+03	5.919459E-03	5.510972E-05
6.130804E+03	5.933338E-03	5.526607E-05
6.140789E+03	5.942096E-03	5.537651E-05
6.150774E+03	5.945059E-03	5.543472E-05
6.160759E+03	5.943533E-03	5.545282E-05
6.170744E+03	5.939237E-03	5.544682E-05
6.180729E+03	5.933453E-03	5.542867E-05
6.190714E+03	5.926127E-03	5.539786E-05
6.200699E+03	5.916234E-03	5.534479E-05
6.210684E+03	5.901961E-03	5.525246E-05
6.220669E+03	5.881340E-03	5.510235E-05
6.230654E+03	5.853046E-03	5.488192E-05
6.240639E+03	5.817219E-03	5.459230E-05
6.250624E+03	5.776808E-03	5.426100E-05
6.260609E+03	5.736406E-03	5.393109E-05
6.270594E+03	5.701737E-03	5.365641E-05
6.280579E+03	5.678261E-03	5.348855E-05
6.290564E+03	5.670521E-03	5.347066E-05
6.300549E+03	5.681353E-03	5.363000E-05
6.310534E+03	5.710454E-03	5.396431E-05
6.320519E+03	5.755377E-03	5.445107E-05
6.330504E+03	5.812653E-03	5.505801E-05
6.340489E+03	5.878381E-03	5.574866E-05
6.350474E+03	5.947933E-03	5.647947E-05
6.360459E+03	6.015969E-03	5.719987E-05
6.370444E+03	6.076517E-03	5.785296E-05
6.380429E+03	6.123801E-03	5.838341E-05
6.390414E+03	6.152881E-03	5.874353E-05
6.400399E+03	6.160337E-03	5.889987E-05
6.410384E+03	6.145159E-03	5.884180E-05
6.420369E+03	6.108993E-03	5.858409E-05
6.430354E+03	6.055999E-03	5.816567E-05
6.440339E+03	5.990976E-03	5.763189E-05
6.450325E+03	5.918312E-03	5.702434E-05
6.460310E+03	5.840949E-03	5.637095E-05
6.470295E+03	5.760436E-03	5.568636E-05
6.480280E+03	5.678845E-03	5.499034E-05
6.490265E+03	5.599635E-03	5.431631E-05
6.500250E+03	5.529031E-03	5.372473E-05
6.510235E+03	5.477456E-03	5.331741E-05
6.520220E+03	5.462085E-03	5.326272E-05
6.530205E+03	5.486454E-03	5.359703E-05
6.540190E+03	5.531970E-03	5.414046E-05
6.550175E+03	5.584587E-03	5.475639E-05
6.560160E+03	5.635011E-03	5.535392E-05
6.570145E+03	5.677643E-03	5.587780E-05
6.580130E+03	5.709684E-03	5.630000E-05
6.590115E+03	5.730294E-03	5.661158E-05
6.600100E+03	5.739946E-03	5.681656E-05
6.610085E+03	5.739802E-03	5.692579E-05
6.620070E+03	5.731290E-03	5.695287E-05
6.630055E+03	5.715484E-03	5.690794E-05
6.640040E+03	5.693682E-03	5.680347E-05
6.650025E+03	5.666929E-03	5.664953E-05
6.660010E+03	5.635988E-03	5.645340E-05
6.669995E+03	5.601771E-03	5.622392E-05
6.679980E+03	5.564909E-03	5.596720E-05
6.689965E+03	5.526070E-03	5.568977E-05
6.699950E+03	5.485537E-03	5.539430E-05
6.709935E+03	5.443749E-03	5.508509E-05
6.719920E+03	5.401048E-03	5.476548E-05
6.729905E+03	5.357519E-03	5.443623E-05
6.739890E+03	5.313494E-03	5.410063E-05
6.749875E+03	5.269174E-03	5.376066E-05
6.759860E+03	5.225006E-03	5.342082E-05
6.769845E+03	5.181265E-03	5.308392E-05
6.779830E+03	5.138276E-03	5.275326E-05
6.789815E+03	5.096435E-03	5.243295E-05
6.799800E+03	5.055777E-03	5.212337E-05
6.809785E+03	5.016625E-03	5.182792E-05
6.819770E+03	4.978939E-03	5.154625E-05
6.829755E+03	4.942948E-03	5.128081E-05
6.839740E+03	4.908427E-03	5.102932E-05
6.849725E+03	4.875302E-03	5.079110E-05
6.859710E+03	4.843483E-03	5.056529E-05
6.869695E+03	4.812700E-03	5.034909E-05
6.879680E+03	4.782489E-03	5.013772E-05
6.889666E+03	4.752737E-03	4.992999E-05
6.899651E+03	4.723103E-03	4.972232E-05
6.909636E+03	4.693562E-03	4.951445E-05
6.919621E+03	4.663952E-03	4.930465E-05
6.929606E+03	4.634485E-03	4.909515E-05
6.939591E+03	4.605444E-03	4.888895E-05
6.949576E+03	4.577128E-03	4.868923E-05
6.959561E+03	4.550058E-03	4.850160E-05
6.969546E+03	4.524730E-03	4.833141E-05
6.979531E+03	4.501495E-03	4.818254E-05
6.989516E+03	4.480694E-03	4.805876E-05
6.999501E+03	4.462528E-03	4.796239E-05
7.009486E+03	4.447074E-03	4.789442E-05
7.019471E+03	4.433888E-03	4.785025E-05
7.029456E+03	4.422689E-03	4.782696E-05
7.039441E+03	4.412650E-03	4.781573E-05
7.049426E+03	4.403114E-03	4.780948E-05
7.059411E+03	4.393298E-03	4.779972E-05
7.069396E+03	4.382644E-03	4.778038E-05
7.079381E+03	4.370599E-03	4.774531E-05
7.089366E+03	4.356676E-03	4.768912E-05
7.099351E+03	4.340508E-03	4.760765E-05
7.109336E+03	4.322047E-03	4.750021E-05
7.119321E+03	4.301074E-03	4.736424E-05
7.129306E+03	4.277491E-03	4.719849E-05
7.139291E+03	4.251246E-03	4.700223E-05
7.149276E+03	4.222261E-03	4.677441E-05
7.159261E+03	4.190665E-03	4.651628E-05
7.169246E+03	4.156440E-03	4.622749E-05
7.179231E+03	4.119709E-03	4.590920E-05
7.189216E+03	4.080685E-03	4.556366E-05
7.199201E+03	4.039432E-03	4.519144E-05
7.209186E+03	3.996245E-03	4.479568E-05
7.219171E+03	3.951175E-03	4.437685E-05
7.229156E+03	3.904579E-03	4.393884E-05
7.239141E+03	3.856781E-03	4.348521E-05
7.249126E+03	3.808121E-03	4.301974E-05
7.259111E+03	3.758939E-03	4.254620E-05
7.269096E+03	3.709550E-03	4.206816E-05
7.279081E+03	3.660153E-03	4.158785E-05
7.289066E+03	3.611057E-03	4.110882E-05
7.299051E+03	3.562450E-03	4.063323E-05
7.309036E+03	3.514477E-03	4.016277E-05
7.319021E+03	3.467172E-03	3.969788E-05
7.329006E+03	3.420717E-03	3.924068E-05
7.338992E+03	3.375264E-03	3.879301E-05
7.348977E+03	3.330736E-03	3.835403E-05
7.358962E+03	3.287301E-03	3.792577E-05
7.368947E+03	3.245072E-03	3.750958E-05
7.378932E+03	3.204267E-03	3.710811E-05
7.388917E+03	3.165044E-03	3.672326E-05
7.398902E+03	3.127745E-03	3.635913E-05
7.408887E+03	3.092735E-03	3.602010E-05
7.418872E+03	3.060270E-03	3.570931E-05
7.428857E+03	3.030774E-03	3.543191E-05
7.438842E+03	3.004324E-03	3.518899E-05
7.448827E+03	2.981133E-03	3.498324E-05
7.458812E+03	2.961156E-03	3.481439E-05
7.468797E+03	2.944377E-03	3.468245E-05
7.478782E+03	2.930505E-03	3.458420E-05
7.488767E+03	2.919349E-03	3.451761E-05
7.498752E+03	2.910557E-03	3.447868E-05
7.508737E+03	2.903647E-03	3.446186E-05
7.518722E+03	2.898228E-03	3.446264E-05
7.528707E+03	2.893518E-03	3.447181E-05
7.538692E+03	2.888855E-03	3.448153E-05
7.548677E+03	2.883369E-03	3.448141E-05
7.558662E+03	2.876314E-03	3.446246E-05
7.568647E+03	2.866917E-03	3.441531E-05
7.578632E+03	2.854725E-03	3.433436E-05
7.588617E+03	2.839417E-03	3.421556E-05
7.598602E+03	2.821093E-03	3.405990E-05
7.608587E+03	2.800244E-03	3.387313E-05
7.618572E+03	2.777496E-03	3.366266E-05
7.628557E+03	2.753723E-03	3.343897E-05
7.638542E+03	2.729842E-03	3.321316E-05
7.648527E+03	2.706398E-03	3.299187E-05
7.658512E+03	2.683725E-03	3.277921E-05
7.668497E+03	2.661611E-03	3.257265E-05
7.678482E+03	2.639825E-03	3.236940E-05
7.688467E+03	2.617812E-03	3.216265E-05
7.698452E+03	2.594850E-03	3.194353E-05
7.708437E+03	2.570333E-03	3.170449E-05
7.718422E+03	2.543589E-03	3.143709E-05
7.728407E+03	2.514133E-03	3.113519E-05
7.738392E+03	2.481714E-03	3.079545E-05
7.748377E+03	2.446205E-03	3.041608E-05
