#wls	flux	fluxerr
1.597604E+03	4.409077E-05	1.608212E-05
1.637544E+03	4.435590E-05	1.605193E-05
1.677484E+03	4.459722E-05	1.600925E-05
1.717424E+03	4.481879E-05	1.595565E-05
1.757364E+03	4.502434E-05	1.589255E-05
1.797304E+03	4.520098E-05	1.581553E-05
1.837244E+03	4.534366E-05	1.572305E-05
1.877184E+03	4.546315E-05	1.561907E-05
1.917124E+03	4.553750E-05	1.549630E-05
1.957064E+03	4.557677E-05	1.535852E-05
1.997004E+03	4.556661E-05	1.520126E-05
2.036945E+03	4.550846E-05	1.502547E-05
2.076885E+03	4.538773E-05	1.482688E-05
2.116825E+03	4.521339E-05	1.460902E-05
2.156765E+03	4.497852E-05	1.437028E-05
2.196705E+03	4.466888E-05	1.410682E-05
2.236645E+03	4.429319E-05	1.382224E-05
2.276585E+03	4.383797E-05	1.351318E-05
2.316525E+03	4.331226E-05	1.318336E-05
2.356465E+03	4.270401E-05	1.283006E-05
2.396405E+03	4.201635E-05	1.245530E-05
2.436345E+03	4.125287E-05	1.206118E-05
2.476286E+03	4.041168E-05	1.164824E-05
2.516226E+03	3.949242E-05	1.121749E-05
2.556166E+03	3.851366E-05	1.077528E-05
2.596106E+03	3.747108E-05	1.032137E-05
2.636046E+03	3.637367E-05	9.859220E-06
2.675986E+03	3.523132E-05	9.392411E-06
2.715926E+03	3.405466E-05	8.924557E-06
2.755866E+03	3.285938E-05	8.460394E-06
2.795806E+03	3.165661E-05	8.003241E-06
2.835746E+03	3.045417E-05	7.555380E-06
2.875686E+03	2.927528E-05	7.122703E-06
2.915627E+03	2.812391E-05	6.706059E-06
2.955567E+03	2.702137E-05	6.310257E-06
2.995507E+03	2.597502E-05	5.936492E-06
3.005492E+03	2.572433E-05	5.846902E-06
3.015477E+03	2.547934E-05	5.759127E-06
3.025462E+03	2.524010E-05	5.673166E-06
3.035447E+03	2.500406E-05	5.588426E-06
3.045432E+03	2.477664E-05	5.506103E-06
3.055417E+03	2.455270E-05	5.425032E-06
3.065402E+03	2.433499E-05	5.345806E-06
3.075387E+03	2.412117E-05	5.267893E-06
3.085372E+03	2.391634E-05	5.192388E-06
3.095357E+03	2.371812E-05	5.118747E-06
3.105342E+03	2.352669E-05	5.046985E-06
3.115327E+03	2.334222E-05	4.977112E-06
3.125312E+03	2.316490E-05	4.909146E-06
3.135297E+03	2.299494E-05	4.843106E-06
3.145282E+03	2.283474E-05	4.779468E-06
3.155267E+03	2.268232E-05	4.717781E-06
3.165252E+03	2.253794E-05	4.658075E-06
3.175237E+03	2.240400E-05	4.600808E-06
3.185222E+03	2.227867E-05	4.545572E-06
3.195207E+03	2.216435E-05	4.492817E-06
3.205192E+03	2.205937E-05	4.442166E-06
3.215177E+03	2.196610E-05	4.394060E-06
3.225162E+03	2.188496E-05	4.348534E-06
3.235147E+03	2.181451E-05	4.305257E-06
3.245132E+03	2.175719E-05	4.264667E-06
3.255117E+03	2.171542E-05	4.227179E-06
3.265102E+03	2.168612E-05	4.192142E-06
3.275087E+03	2.167187E-05	4.159997E-06
3.285072E+03	2.167346E-05	4.130835E-06
3.295057E+03	2.169175E-05	4.104756E-06
3.305042E+03	2.172947E-05	4.082202E-06
3.315027E+03	2.178591E-05	4.062966E-06
3.325012E+03	2.186229E-05	4.047192E-06
3.334998E+03	2.196160E-05	4.035352E-06
3.344983E+03	2.208363E-05	4.027308E-06
3.354968E+03	2.223167E-05	4.023563E-06
3.364953E+03	2.240749E-05	4.024328E-06
3.374938E+03	2.261145E-05	4.029548E-06
3.384923E+03	2.284742E-05	4.039791E-06
3.394908E+03	2.311787E-05	4.055353E-06
3.404893E+03	2.342718E-05	4.076853E-06
3.414878E+03	2.377517E-05	4.104092E-06
3.424863E+03	2.416852E-05	4.138052E-06
3.434848E+03	2.460780E-05	4.178634E-06
3.444833E+03	2.510224E-05	4.227197E-06
3.454818E+03	2.565336E-05	4.283757E-06
3.464803E+03	2.626653E-05	4.348961E-06
3.474788E+03	2.694951E-05	4.423813E-06
3.484773E+03	2.770913E-05	4.509125E-06
3.494758E+03	2.855308E-05	4.605807E-06
3.504743E+03	2.948827E-05	4.714594E-06
3.514728E+03	3.052803E-05	4.837206E-06
3.524713E+03	3.168165E-05	4.974644E-06
3.534698E+03	3.296355E-05	5.128659E-06
3.544683E+03	3.438604E-05	5.300587E-06
3.554668E+03	3.596513E-05	5.492259E-06
3.564653E+03	3.772102E-05	5.706046E-06
3.574638E+03	3.967443E-05	5.944280E-06
3.584623E+03	4.184879E-05	6.209570E-06
3.594608E+03	4.427056E-05	6.504836E-06
3.604593E+03	4.696702E-05	6.832959E-06
3.614578E+03	4.997903E-05	7.198619E-06
3.624563E+03	5.333628E-05	7.604659E-06
3.634548E+03	5.708533E-05	8.056131E-06
3.644533E+03	6.127163E-05	8.557657E-06
3.654518E+03	6.594144E-05	9.113701E-06
3.664503E+03	7.115078E-05	9.729791E-06
3.674488E+03	7.695653E-05	1.041124E-05
3.684473E+03	8.342327E-05	1.116406E-05
3.694458E+03	9.060848E-05	1.199293E-05
3.704443E+03	9.859004E-05	1.290488E-05
3.714428E+03	1.074402E-04	1.390573E-05
3.724413E+03	1.172528E-04	1.500364E-05
3.734398E+03	1.281063E-04	1.620430E-05
3.744383E+03	1.401206E-04	1.751808E-05
3.754368E+03	1.534077E-04	1.895369E-05
3.764353E+03	1.680976E-04	2.052137E-05
3.774338E+03	1.843339E-04	2.223224E-05
3.784324E+03	2.022726E-04	2.409807E-05
3.794309E+03	2.220895E-04	2.613202E-05
3.804294E+03	2.439599E-04	2.834617E-05
3.814279E+03	2.680495E-04	3.075050E-05
3.824264E+03	2.945340E-04	3.335513E-05
3.834249E+03	3.235720E-04	3.616726E-05
3.844234E+03	3.552544E-04	3.918572E-05
3.854219E+03	3.896568E-04	4.240715E-05
3.864204E+03	4.267962E-04	4.582147E-05
3.874189E+03	4.666041E-04	4.940954E-05
3.884174E+03	5.088966E-04	5.314055E-05
3.894159E+03	5.534893E-04	5.698480E-05
3.904144E+03	6.000362E-04	6.089731E-05
3.914129E+03	6.481768E-04	6.483371E-05
3.924114E+03	6.974555E-04	6.874248E-05
3.934099E+03	7.474379E-04	7.257682E-05
3.944084E+03	7.975946E-04	7.628348E-05
3.954069E+03	8.473855E-04	7.981132E-05
3.964054E+03	8.962184E-04	8.310758E-05
3.974039E+03	9.435497E-04	8.612742E-05
3.984024E+03	9.887714E-04	8.882338E-05
3.994009E+03	1.031222E-03	9.114683E-05
4.003994E+03	1.070387E-03	9.306582E-05
4.013979E+03	1.105756E-03	9.455156E-05
4.023964E+03	1.136985E-03	9.559235E-05
4.033949E+03	1.163925E-03	9.619426E-05
4.043934E+03	1.186650E-03	9.638260E-05
4.053919E+03	1.205507E-03	9.620376E-05
4.063904E+03	1.220978E-03	9.571276E-05
4.073889E+03	1.233852E-03	9.498543E-05
4.083874E+03	1.244926E-03	9.409360E-05
4.093859E+03	1.255137E-03	9.311528E-05
4.103844E+03	1.265378E-03	9.211985E-05
4.113829E+03	1.276431E-03	9.116385E-05
4.123814E+03	1.288980E-03	9.029272E-05
4.133799E+03	1.303586E-03	8.954002E-05
4.143784E+03	1.320571E-03	8.892015E-05
4.153769E+03	1.340173E-03	8.844047E-05
4.163754E+03	1.362535E-03	8.810124E-05
4.173739E+03	1.387643E-03	8.789225E-05
4.183724E+03	1.415401E-03	8.779866E-05
4.193709E+03	1.445694E-03	8.780530E-05
4.203694E+03	1.478251E-03	8.788873E-05
4.213679E+03	1.512822E-03	8.802848E-05
4.223665E+03	1.549051E-03	8.819986E-05
4.233650E+03	1.586539E-03	8.837779E-05
4.243635E+03	1.625034E-03	8.854776E-05
4.253620E+03	1.664232E-03	8.869410E-05
4.263605E+03	1.704100E-03	8.881710E-05
4.273590E+03	1.744730E-03	8.892409E-05
4.283575E+03	1.786385E-03	8.903101E-05
4.293560E+03	1.829424E-03	8.915780E-05
4.303545E+03	1.874157E-03	8.932112E-05
4.313530E+03	1.920632E-03	8.952498E-05
4.323515E+03	1.968427E-03	8.975244E-05
4.333500E+03	2.016349E-03	8.995480E-05
4.343485E+03	2.062272E-03	9.004805E-05
4.353470E+03	2.103197E-03	8.991917E-05
4.363455E+03	2.135525E-03	8.944061E-05
4.373440E+03	2.155766E-03	8.850056E-05
4.383425E+03	2.162160E-03	8.706613E-05
4.393410E+03	2.156181E-03	8.523429E-05
4.403395E+03	2.142401E-03	8.321460E-05
4.413380E+03	2.126824E-03	8.125570E-05
4.423365E+03	2.115183E-03	7.957940E-05
4.433350E+03	2.112361E-03	7.836292E-05
4.443335E+03	2.121922E-03	7.772706E-05
4.453320E+03	2.146110E-03	7.774172E-05
4.463305E+03	2.186034E-03	7.843712E-05
4.473290E+03	2.241471E-03	7.979991E-05
4.483275E+03	2.311100E-03	8.178320E-05
4.493260E+03	2.392563E-03	8.430615E-05
4.503245E+03	2.482496E-03	8.725585E-05
4.513230E+03	2.576973E-03	9.050292E-05
4.523215E+03	2.671607E-03	9.390282E-05
4.533200E+03	2.761914E-03	9.730599E-05
4.543185E+03	2.843798E-03	1.005727E-04
4.553170E+03	2.913615E-03	1.035734E-04
4.563155E+03	2.968693E-03	1.062063E-04
4.573140E+03	3.007213E-03	1.083935E-04
4.583125E+03	3.028445E-03	1.100898E-04
4.593110E+03	3.032625E-03	1.112806E-04
4.603095E+03	3.020718E-03	1.119747E-04
4.613080E+03	2.994528E-03	1.122114E-04
4.623065E+03	2.956120E-03	1.120404E-04
4.633050E+03	2.907901E-03	1.115270E-04
4.643035E+03	2.852286E-03	1.107405E-04
4.653020E+03	2.791581E-03	1.097505E-04
4.663005E+03	2.727871E-03	1.086226E-04
4.672991E+03	2.662951E-03	1.074156E-04
4.682976E+03	2.598256E-03	1.061783E-04
4.692961E+03	2.534988E-03	1.049535E-04
4.702946E+03	2.473932E-03	1.037702E-04
4.712931E+03	2.415684E-03	1.026519E-04
4.722916E+03	2.360658E-03	1.016164E-04
4.732901E+03	2.309147E-03	1.006778E-04
4.742886E+03	2.261382E-03	9.984877E-05
4.752871E+03	2.217572E-03	9.914193E-05
4.762856E+03	2.177916E-03	9.857043E-05
4.772841E+03	2.142597E-03	9.814755E-05
4.782826E+03	2.111764E-03	9.788550E-05
4.792811E+03	2.085498E-03	9.779402E-05
4.802796E+03	2.063844E-03	9.788130E-05
4.812781E+03	2.046681E-03	9.814777E-05
4.822766E+03	2.033862E-03	9.859242E-05
4.832751E+03	2.025167E-03	9.921032E-05
4.842736E+03	2.020402E-03	9.999731E-05
4.852721E+03	2.019311E-03	1.009456E-04
4.862706E+03	2.021606E-03	1.020454E-04
4.872691E+03	2.026951E-03	1.032836E-04
4.882676E+03	2.034874E-03	1.046395E-04
4.892661E+03	2.044683E-03	1.060800E-04
4.902646E+03	2.055480E-03	1.075599E-04
4.912631E+03	2.066014E-03	1.090136E-04
4.922616E+03	2.074905E-03	1.103667E-04
4.932601E+03	2.080636E-03	1.115352E-04
4.942586E+03	2.081689E-03	1.124329E-04
4.952571E+03	2.076852E-03	1.129877E-04
4.962556E+03	2.065347E-03	1.131503E-04
4.972541E+03	2.047049E-03	1.129063E-04
4.982526E+03	2.022515E-03	1.122800E-04
4.992511E+03	1.992965E-03	1.113335E-04
5.002496E+03	1.960228E-03	1.101653E-04
5.012481E+03	1.926408E-03	1.088927E-04
5.022466E+03	1.893668E-03	1.076387E-04
5.032451E+03	1.864047E-03	1.065221E-04
5.042436E+03	1.839210E-03	1.056427E-04
5.052421E+03	1.820370E-03	1.050759E-04
5.062406E+03	1.808187E-03	1.048658E-04
5.072391E+03	1.802835E-03	1.050288E-04
5.082376E+03	1.804076E-03	1.055570E-04
5.092361E+03	1.811231E-03	1.064159E-04
5.102346E+03	1.823411E-03	1.075576E-04
5.112332E+03	1.839545E-03	1.089223E-04
5.122317E+03	1.858509E-03	1.104461E-04
5.132302E+03	1.879135E-03	1.120613E-04
5.142287E+03	1.900405E-03	1.137080E-04
5.152272E+03	1.921375E-03	1.153302E-04
5.162257E+03	1.941206E-03	1.168773E-04
5.172242E+03	1.959214E-03	1.183078E-04
5.182227E+03	1.974862E-03	1.195885E-04
5.192212E+03	1.987718E-03	1.206926E-04
5.202197E+03	1.997445E-03	1.215987E-04
5.212182E+03	2.003855E-03	1.222945E-04
5.222167E+03	2.006834E-03	1.227724E-04
5.232152E+03	2.006334E-03	1.230289E-04
5.242137E+03	2.002393E-03	1.230657E-04
5.252122E+03	1.995125E-03	1.228894E-04
5.262107E+03	1.984656E-03	1.225075E-04
5.272092E+03	1.971104E-03	1.219271E-04
5.282077E+03	1.954687E-03	1.211617E-04
5.292062E+03	1.935583E-03	1.202223E-04
5.302047E+03	1.914006E-03	1.191223E-04
5.312032E+03	1.890187E-03	1.178763E-04
5.322017E+03	1.864363E-03	1.164992E-04
5.332002E+03	1.836818E-03	1.150091E-04
5.341987E+03	1.807869E-03	1.134261E-04
5.351972E+03	1.777872E-03	1.117731E-04
5.361957E+03	1.747198E-03	1.100736E-04
5.371942E+03	1.716256E-03	1.083541E-04
5.381927E+03	1.685431E-03	1.066394E-04
5.391912E+03	1.655092E-03	1.049534E-04
5.401897E+03	1.625493E-03	1.033132E-04
5.411882E+03	1.596830E-03	1.017319E-04
5.421867E+03	1.569106E-03	1.002101E-04
5.431852E+03	1.542197E-03	9.873931E-05
5.441837E+03	1.515793E-03	9.729915E-05
5.451822E+03	1.489461E-03	9.586109E-05
5.461807E+03	1.462664E-03	9.438960E-05
5.471792E+03	1.434806E-03	9.284500E-05
5.481777E+03	1.405256E-03	9.118503E-05
5.491762E+03	1.373384E-03	8.936690E-05
5.501747E+03	1.338670E-03	8.735462E-05
5.511732E+03	1.300783E-03	8.512430E-05
5.521717E+03	1.259621E-03	8.266673E-05
5.531702E+03	1.215446E-03	7.999672E-05
5.541687E+03	1.168802E-03	7.714774E-05
5.551672E+03	1.120477E-03	7.417017E-05
5.561658E+03	1.071475E-03	7.112926E-05
5.571643E+03	1.022835E-03	6.809338E-05
5.581628E+03	9.756597E-04	6.513605E-05
5.591613E+03	9.309182E-04	6.232283E-05
5.601598E+03	8.894988E-04	5.971453E-05
5.611583E+03	8.521197E-04	5.736125E-05
5.621568E+03	8.193480E-04	5.530344E-05
5.631553E+03	7.915918E-04	5.357118E-05
5.641538E+03	7.691225E-04	5.218554E-05
5.651523E+03	7.520996E-04	5.116012E-05
5.661508E+03	7.406099E-04	5.050361E-05
5.671493E+03	7.346418E-04	5.021791E-05
5.681478E+03	7.341575E-04	5.030306E-05
5.691463E+03	7.390797E-04	5.075621E-05
5.701448E+03	7.492830E-04	5.157102E-05
5.711433E+03	7.646210E-04	5.273948E-05
5.721418E+03	7.848906E-04	5.424945E-05
5.731403E+03	8.098529E-04	5.608600E-05
5.741388E+03	8.391972E-04	5.822898E-05
5.751373E+03	8.725325E-04	6.065229E-05
5.761358E+03	9.093750E-04	6.332305E-05
5.771343E+03	9.491234E-04	6.619981E-05
5.781328E+03	9.910913E-04	6.923475E-05
5.791313E+03	1.034447E-03	7.236957E-05
5.801298E+03	1.078259E-03	7.553839E-05
5.811283E+03	1.121549E-03	7.867195E-05
5.821268E+03	1.163268E-03	8.169538E-05
5.831253E+03	1.202420E-03	8.453732E-05
5.841238E+03	1.238073E-03	8.713088E-05
5.851223E+03	1.269425E-03	8.941797E-05
5.861208E+03	1.295843E-03	9.135242E-05
5.871193E+03	1.316871E-03	9.290079E-05
5.881178E+03	1.332269E-03	9.404477E-05
5.891163E+03	1.342003E-03	9.478093E-05
5.901148E+03	1.346184E-03	9.511642E-05
5.911133E+03	1.345088E-03	9.507007E-05
5.921118E+03	1.339092E-03	9.466839E-05
5.931103E+03	1.328710E-03	9.394759E-05
5.941088E+03	1.314465E-03	9.294487E-05
5.951073E+03	1.296958E-03	9.170307E-05
5.961058E+03	1.276822E-03	9.026743E-05
5.971043E+03	1.254701E-03	8.868400E-05
5.981028E+03	1.231274E-03	8.700152E-05
5.991013E+03	1.207210E-03	8.526793E-05
6.000999E+03	1.183129E-03	8.352767E-05
6.010984E+03	1.159706E-03	8.182886E-05
6.020969E+03	1.137509E-03	8.021229E-05
6.030954E+03	1.117121E-03	7.871935E-05
6.040939E+03	1.099076E-03	7.738796E-05
6.050924E+03	1.083852E-03	7.625185E-05
6.060909E+03	1.071934E-03	7.534515E-05
6.070894E+03	1.063755E-03	7.469799E-05
6.080879E+03	1.059764E-03	7.434161E-05
6.090864E+03	1.060376E-03	7.430452E-05
6.100849E+03	1.066001E-03	7.461466E-05
6.110834E+03	1.076999E-03	7.529629E-05
6.120819E+03	1.093728E-03	7.637343E-05
6.130804E+03	1.116433E-03	7.786190E-05
6.140789E+03	1.145283E-03	7.977231E-05
6.150774E+03	1.180267E-03	8.210235E-05
6.160759E+03	1.221204E-03	8.483827E-05
6.170744E+03	1.267667E-03	8.794908E-05
6.180729E+03	1.318888E-03	9.138054E-05
6.190714E+03	1.373810E-03	9.505871E-05
6.200699E+03	1.431024E-03	9.888593E-05
6.210684E+03	1.488821E-03	1.027443E-04
6.220669E+03	1.545238E-03	1.064994E-04
6.230654E+03	1.598262E-03	1.100140E-04
6.240639E+03	1.645800E-03	1.131463E-04
6.250624E+03	1.686043E-03	1.157745E-04
6.260609E+03	1.717436E-03	1.177953E-04
6.270594E+03	1.738892E-03	1.191374E-04
6.280579E+03	1.749860E-03	1.197665E-04
6.290564E+03	1.750322E-03	1.196847E-04
6.300549E+03	1.740777E-03	1.189291E-04
6.310534E+03	1.722173E-03	1.175670E-04
6.320519E+03	1.695800E-03	1.156884E-04
6.330504E+03	1.663211E-03	1.134007E-04
6.340489E+03	1.625970E-03	1.108115E-04
6.350474E+03	1.585744E-03	1.080346E-04
6.360459E+03	1.544030E-03	1.051722E-04
6.370444E+03	1.502168E-03	1.023153E-04
6.380429E+03	1.461332E-03	9.954353E-05
6.390414E+03	1.422461E-03	9.692031E-05
6.400399E+03	1.386275E-03	9.449439E-05
6.410384E+03	1.353269E-03	9.229929E-05
6.420369E+03	1.323774E-03	9.035746E-05
6.430354E+03	1.297921E-03	8.867810E-05
6.440339E+03	1.275666E-03	8.725840E-05
6.450325E+03	1.256816E-03	8.608585E-05
6.460310E+03	1.241047E-03	8.513884E-05
6.470295E+03	1.227862E-03	8.438352E-05
6.480280E+03	1.216668E-03	8.377869E-05
6.490265E+03	1.206741E-03	8.327422E-05
6.500250E+03	1.197340E-03	8.281819E-05
6.510235E+03	1.187716E-03	8.235790E-05
6.520220E+03	1.177261E-03	8.184990E-05
6.530205E+03	1.165483E-03	8.125846E-05
6.540190E+03	1.152106E-03	8.056234E-05
6.550175E+03	1.137021E-03	7.975173E-05
6.560160E+03	1.120274E-03	7.882781E-05
6.570145E+03	1.101994E-03	7.779729E-05
6.580130E+03	1.082414E-03	7.667453E-05
6.590115E+03	1.061787E-03	7.547545E-05
6.600100E+03	1.040392E-03	7.421815E-05
6.610085E+03	1.018534E-03	7.292277E-05
6.620070E+03	9.965028E-04	7.160880E-05
6.630055E+03	9.745858E-04	7.029593E-05
6.640040E+03	9.530229E-04	6.900073E-05
6.650025E+03	9.320561E-04	6.774028E-05
6.660010E+03	9.118556E-04	6.652672E-05
6.669995E+03	8.925748E-04	6.537125E-05
6.679980E+03	8.743273E-04	6.428238E-05
6.689965E+03	8.571687E-04	6.326452E-05
6.699950E+03	8.411409E-04	6.232118E-05
6.709935E+03	8.262470E-04	6.145309E-05
6.719920E+03	8.124782E-04	6.066013E-05
6.729905E+03	7.997889E-04	5.993945E-05
6.739890E+03	7.881447E-04	5.928903E-05
6.749875E+03	7.774986E-04	5.870587E-05
6.759860E+03	7.678084E-04	5.818729E-05
6.769845E+03	7.590377E-04	5.773106E-05
6.779830E+03	7.511727E-04	5.733660E-05
6.789815E+03	7.442004E-04	5.700341E-05
6.799800E+03	7.381196E-04	5.673185E-05
6.809785E+03	7.329285E-04	5.652228E-05
6.819770E+03	7.286566E-04	5.637743E-05
6.829755E+03	7.253069E-04	5.629801E-05
6.839740E+03	7.228872E-04	5.628509E-05
6.849725E+03	7.213979E-04	5.633915E-05
6.859710E+03	7.208387E-04	5.646057E-05
6.869695E+03	7.211864E-04	5.664793E-05
6.879680E+03	7.223867E-04	5.689730E-05
6.889666E+03	7.244178E-04	5.720723E-05
6.899651E+03	7.272011E-04	5.757174E-05
6.909636E+03	7.306791E-04	5.798642E-05
6.919621E+03	7.347825E-04	5.844582E-05
6.929606E+03	7.394351E-04	5.894391E-05
6.939591E+03	7.446005E-04	5.947771E-05
6.949576E+03	7.502182E-04	6.004229E-05
6.959561E+03	7.562662E-04	6.063572E-05
6.969546E+03	7.627664E-04	6.125957E-05
6.979531E+03	7.697282E-04	6.191440E-05
6.989516E+03	7.772198E-04	6.260546E-05
6.999501E+03	7.853199E-04	6.333886E-05
7.009486E+03	7.941673E-04	6.412557E-05
7.019471E+03	8.038890E-04	6.497556E-05
7.029456E+03	8.146546E-04	6.590231E-05
7.039441E+03	8.266662E-04	6.692181E-05
7.049426E+03	8.401264E-04	6.805013E-05
7.059411E+03	8.552234E-04	6.930208E-05
7.069396E+03	8.721964E-04	7.069653E-05
7.079381E+03	8.912040E-04	7.224565E-05
7.089366E+03	9.124358E-04	7.396404E-05
7.099351E+03	9.359965E-04	7.585920E-05
7.109336E+03	9.619840E-04	7.793791E-05
7.119321E+03	9.903792E-04	8.019729E-05
7.129306E+03	1.021115E-03	8.263036E-05
7.139291E+03	1.054001E-03	8.521991E-05
7.149276E+03	1.088763E-03	8.794201E-05
7.159261E+03	1.124982E-03	9.076081E-05
7.169246E+03	1.162132E-03	9.363200E-05
7.179231E+03	1.199576E-03	9.650226E-05
7.189216E+03	1.236560E-03	9.930941E-05
7.199201E+03	1.272295E-03	1.019886E-04
7.209186E+03	1.305922E-03	1.044701E-04
7.219171E+03	1.336607E-03	1.066869E-04
7.229156E+03	1.363553E-03	1.085757E-04
7.239141E+03	1.386097E-03	1.100847E-04
7.249126E+03	1.403673E-03	1.111709E-04
7.259111E+03	1.415880E-03	1.118049E-04
7.269096E+03	1.422521E-03	1.119746E-04
7.279081E+03	1.423537E-03	1.116789E-04
7.289066E+03	1.419024E-03	1.109299E-04
7.299051E+03	1.409214E-03	1.097504E-04
7.309036E+03	1.394501E-03	1.081760E-04
7.319021E+03	1.375264E-03	1.062411E-04
7.329006E+03	1.352008E-03	1.039897E-04
7.338992E+03	1.325230E-03	1.014650E-04
7.348977E+03	1.295435E-03	9.871035E-05
7.358962E+03	1.263149E-03	9.577022E-05
7.368947E+03	1.228884E-03	9.268764E-05
7.378932E+03	1.193112E-03	8.950168E-05
7.388917E+03	1.156332E-03	8.625316E-05
7.398902E+03	1.118981E-03	8.297742E-05
7.408887E+03	1.081536E-03	7.971198E-05
7.418872E+03	1.044389E-03	7.648733E-05
7.428857E+03	1.007933E-03	7.333337E-05
7.438842E+03	9.725405E-04	7.027768E-05
7.448827E+03	9.385336E-04	6.734335E-05
7.458812E+03	9.061942E-04	6.454988E-05
7.468797E+03	8.757616E-04	6.191304E-05
7.478782E+03	8.474565E-04	5.944661E-05
7.488767E+03	8.214221E-04	5.715835E-05
7.498752E+03	7.977745E-04	5.505361E-05
7.508737E+03	7.766117E-04	5.313606E-05
7.518722E+03	7.579744E-04	5.140506E-05
7.528707E+03	7.418697E-04	4.985743E-05
7.538692E+03	7.282842E-04	4.848838E-05
7.548677E+03	7.171560E-04	4.728981E-05
7.558662E+03	7.084259E-04	4.625375E-05
7.568647E+03	7.019853E-04	4.536906E-05
7.578632E+03	6.977340E-04	4.462523E-05
7.588617E+03	6.955184E-04	4.400853E-05
7.598602E+03	6.952091E-04	4.350706E-05
7.608587E+03	6.966452E-04	4.310721E-05
7.618572E+03	6.996539E-04	4.279503E-05
7.628557E+03	7.040474E-04	4.255607E-05
7.638542E+03	7.096222E-04	4.237548E-05
7.648527E+03	7.161567E-04	4.223789E-05
7.658512E+03	7.234302E-04	4.212863E-05
7.668497E+03	7.311547E-04	4.202988E-05
7.678482E+03	7.390872E-04	4.192725E-05
7.688467E+03	7.469367E-04	4.180445E-05
7.698452E+03	7.544092E-04	4.164600E-05
7.708437E+03	7.612399E-04	4.143899E-05
7.718422E+03	7.671800E-04	4.117228E-05
7.728407E+03	7.719753E-04	4.083530E-05
7.738392E+03	7.754486E-04	4.042237E-05
7.748377E+03	7.774231E-04	3.992848E-05
