#wls	flux	fluxerr
1.597604E+03	4.814091E-05	9.440388E-07
1.637544E+03	4.836164E-05	9.483674E-07
1.677484E+03	4.859139E-05	9.528726E-07
1.717424E+03	4.881167E-05	9.571922E-07
1.757364E+03	4.903708E-05	9.616124E-07
1.797304E+03	4.926524E-05	9.660866E-07
1.837244E+03	4.948510E-05	9.703980E-07
1.877184E+03	4.969350E-05	9.744845E-07
1.917124E+03	4.990377E-05	9.786079E-07
1.957064E+03	5.009520E-05	9.823617E-07
1.997004E+03	5.027182E-05	9.858252E-07
2.036945E+03	5.042872E-05	9.889020E-07
2.076885E+03	5.056044E-05	9.914849E-07
2.116825E+03	5.066097E-05	9.934562E-07
2.156765E+03	5.072380E-05	9.946883E-07
2.196705E+03	5.074986E-05	9.951993E-07
2.236645E+03	5.072326E-05	9.946776E-07
2.276585E+03	5.064366E-05	9.931166E-07
2.316525E+03	5.050219E-05	9.903423E-07
2.356465E+03	5.028937E-05	9.861689E-07
2.396405E+03	4.998783E-05	9.802556E-07
2.436345E+03	4.960331E-05	9.727151E-07
2.476286E+03	4.911826E-05	9.632033E-07
2.516226E+03	4.852338E-05	9.515378E-07
2.556166E+03	4.781726E-05	9.376908E-07
2.596106E+03	4.699197E-05	9.215069E-07
2.636046E+03	4.603455E-05	9.027319E-07
2.675986E+03	4.495437E-05	8.815498E-07
2.715926E+03	4.374302E-05	8.577953E-07
2.755866E+03	4.240229E-05	8.315036E-07
2.795806E+03	4.094331E-05	8.028932E-07
2.835746E+03	3.936974E-05	7.720356E-07
2.875686E+03	3.770092E-05	7.393103E-07
2.915627E+03	3.595969E-05	7.051649E-07
2.955567E+03	3.416335E-05	6.699389E-07
2.995507E+03	3.233874E-05	6.341584E-07
3.005492E+03	3.188052E-05	6.251729E-07
3.015477E+03	3.142571E-05	6.162540E-07
3.025462E+03	3.097075E-05	6.073324E-07
3.035447E+03	3.052008E-05	5.984947E-07
3.045432E+03	3.006656E-05	5.896013E-07
3.055417E+03	2.962207E-05	5.808848E-07
3.065402E+03	2.917595E-05	5.721365E-07
3.075387E+03	2.873611E-05	5.635114E-07
3.085372E+03	2.830298E-05	5.550177E-07
3.095357E+03	2.787015E-05	5.465299E-07
3.105342E+03	2.744513E-05	5.381953E-07
3.115327E+03	2.702834E-05	5.300222E-07
3.125312E+03	2.661701E-05	5.219560E-07
3.135297E+03	2.621176E-05	5.140092E-07
3.145282E+03	2.581631E-05	5.062544E-07
3.155267E+03	2.542806E-05	4.986408E-07
3.159261E+03	-1.739518E-04	-3.411171E-06
3.161258E+03	-1.736647E-04	-3.405542E-06
3.163255E+03	-1.733508E-04	-3.399386E-06
3.165252E+03	-1.711577E-04	-3.356379E-06
3.167249E+03	-1.675518E-04	-3.285667E-06
3.169246E+03	-1.651263E-04	-3.238104E-06
3.171243E+03	-1.617999E-04	-3.172875E-06
3.173240E+03	-1.603151E-04	-3.143758E-06
3.175237E+03	-1.592912E-04	-3.123678E-06
3.177234E+03	-1.563295E-04	-3.065600E-06
3.179231E+03	-1.532221E-04	-3.004665E-06
3.181228E+03	-1.503288E-04	-2.947927E-06
3.183225E+03	-1.478247E-04	-2.898822E-06
3.185222E+03	-1.468221E-04	-2.879162E-06
3.187219E+03	-1.466773E-04	-2.876323E-06
3.189216E+03	-1.461683E-04	-2.866341E-06
3.191213E+03	-1.450924E-04	-2.845241E-06
3.193210E+03	-1.442772E-04	-2.829257E-06
3.195207E+03	-1.442129E-04	-2.827996E-06
3.197204E+03	-1.443709E-04	-2.831093E-06
3.199201E+03	-1.459263E-04	-2.861595E-06
3.201198E+03	-1.470616E-04	-2.883858E-06
3.203195E+03	-1.471852E-04	-2.886283E-06
3.205192E+03	-1.476274E-04	-2.894953E-06
3.207189E+03	-1.474487E-04	-2.891449E-06
3.209186E+03	-1.491224E-04	-2.924271E-06
3.211183E+03	-1.455837E-04	-2.854877E-06
3.213180E+03	-1.427561E-04	-2.799428E-06
3.215177E+03	-1.415836E-04	-2.776434E-06
3.217174E+03	-1.421022E-04	-2.786604E-06
3.219171E+03	-1.424981E-04	-2.794369E-06
3.221168E+03	-1.395153E-04	-2.735875E-06
3.223165E+03	-1.384194E-04	-2.714385E-06
3.225162E+03	-1.377855E-04	-2.701954E-06
3.227159E+03	-1.379847E-04	-2.705862E-06
3.229156E+03	-1.379871E-04	-2.705908E-06
3.231153E+03	-1.385929E-04	-2.717788E-06
3.233150E+03	-1.371005E-04	-2.688523E-06
3.235147E+03	-1.380512E-04	-2.707166E-06
3.237144E+03	-1.379416E-04	-2.705015E-06
3.239141E+03	-1.392990E-04	-2.731635E-06
3.241138E+03	-1.389406E-04	-2.724606E-06
3.243135E+03	-1.392263E-04	-2.730208E-06
3.245132E+03	-1.395068E-04	-2.735710E-06
3.247129E+03	-1.383376E-04	-2.712781E-06
3.249126E+03	-1.372774E-04	-2.691991E-06
3.251123E+03	-1.377609E-04	-2.701473E-06
3.253120E+03	-1.384751E-04	-2.715478E-06
3.255117E+03	-1.380955E-04	-2.708034E-06
3.257114E+03	-1.371273E-04	-2.689048E-06
3.259111E+03	-1.361109E-04	-2.669116E-06
3.261108E+03	-1.347437E-04	-2.642305E-06
3.263105E+03	-1.330817E-04	-2.609715E-06
3.265102E+03	-1.302798E-04	-2.554769E-06
3.267099E+03	-1.294342E-04	-2.538187E-06
3.269096E+03	-1.282643E-04	-2.515245E-06
3.271093E+03	-1.270669E-04	-2.491764E-06
3.273090E+03	-1.261641E-04	-2.474060E-06
3.275087E+03	-1.251985E-04	-2.455126E-06
3.277084E+03	-1.243765E-04	-2.439005E-06
3.279081E+03	-1.230712E-04	-2.413409E-06
3.281078E+03	-1.217224E-04	-2.386960E-06
3.283075E+03	-1.211700E-04	-2.376128E-06
3.285072E+03	-1.209805E-04	-2.372410E-06
3.287069E+03	-1.205994E-04	-2.364937E-06
3.289066E+03	-1.206773E-04	-2.366466E-06
3.291063E+03	-1.211306E-04	-2.375354E-06
3.293060E+03	-1.206009E-04	-2.364967E-06
3.295057E+03	-1.191816E-04	-2.337135E-06
3.297054E+03	-1.178312E-04	-2.310653E-06
3.299051E+03	-1.179119E-04	-2.312237E-06
3.301048E+03	-1.175757E-04	-2.305643E-06
3.303045E+03	-1.166705E-04	-2.287892E-06
3.305042E+03	-1.163150E-04	-2.280920E-06
3.307039E+03	-1.162812E-04	-2.280259E-06
3.309036E+03	-1.169611E-04	-2.293591E-06
3.311033E+03	-1.161358E-04	-2.277406E-06
3.313030E+03	-1.148343E-04	-2.251884E-06
3.315027E+03	-1.137598E-04	-2.230814E-06
3.317024E+03	-1.134220E-04	-2.224190E-06
3.319021E+03	-1.129133E-04	-2.214215E-06
3.321018E+03	-1.133886E-04	-2.223534E-06
3.323015E+03	-1.128442E-04	-2.212860E-06
3.325012E+03	-1.110175E-04	-2.177038E-06
3.327009E+03	-1.102697E-04	-2.162373E-06
3.329006E+03	-1.100871E-04	-2.158793E-06
3.331003E+03	-1.099038E-04	-2.155197E-06
3.333000E+03	-1.104946E-04	-2.166783E-06
3.334998E+03	-1.099939E-04	-2.156966E-06
3.336995E+03	-1.090223E-04	-2.137913E-06
3.338992E+03	-1.080750E-04	-2.119336E-06
3.340989E+03	-1.080800E-04	-2.119434E-06
3.342986E+03	-1.080758E-04	-2.119352E-06
3.344983E+03	-1.080335E-04	-2.118522E-06
3.346980E+03	-1.080605E-04	-2.119051E-06
3.348977E+03	-1.081782E-04	-2.121360E-06
3.350974E+03	-1.077648E-04	-2.113253E-06
3.352971E+03	-1.073552E-04	-2.105221E-06
3.354968E+03	-1.065266E-04	-2.088972E-06
3.356965E+03	-1.061769E-04	-2.082115E-06
3.358962E+03	-1.062239E-04	-2.083036E-06
3.360959E+03	-1.059509E-04	-2.077682E-06
3.362956E+03	-1.056154E-04	-2.071103E-06
3.364953E+03	-1.051620E-04	-2.062212E-06
3.366950E+03	-1.040526E-04	-2.040456E-06
3.368947E+03	-1.031840E-04	-2.023424E-06
3.370944E+03	-1.027287E-04	-2.014496E-06
3.372941E+03	-1.021717E-04	-2.003574E-06
3.374938E+03	-1.013210E-04	-1.986890E-06
3.376935E+03	-1.002730E-04	-1.966340E-06
3.378932E+03	-9.961974E-05	-1.953529E-06
3.380929E+03	-9.903720E-05	-1.942106E-06
3.382926E+03	-9.847235E-05	-1.931029E-06
3.384923E+03	-9.781218E-05	-1.918083E-06
3.386920E+03	-9.713470E-05	-1.904798E-06
3.388917E+03	-9.601950E-05	-1.882929E-06
3.390914E+03	-9.588945E-05	-1.880379E-06
3.392911E+03	-9.471250E-05	-1.857299E-06
3.394908E+03	-9.431505E-05	-1.849505E-06
3.396905E+03	-9.340103E-05	-1.831581E-06
3.398902E+03	-9.293813E-05	-1.822504E-06
3.400899E+03	-9.293250E-05	-1.822393E-06
3.402896E+03	-9.260402E-05	-1.815952E-06
3.404893E+03	-9.220257E-05	-1.808079E-06
3.406890E+03	-9.153889E-05	-1.795065E-06
3.408887E+03	-9.074705E-05	-1.779537E-06
3.410884E+03	-9.031399E-05	-1.771045E-06
3.412881E+03	-9.024799E-05	-1.769750E-06
3.414878E+03	-8.977199E-05	-1.760416E-06
3.416875E+03	-8.950584E-05	-1.755197E-06
3.418872E+03	-8.922627E-05	-1.749715E-06
3.420869E+03	-8.903755E-05	-1.746014E-06
3.422866E+03	-8.862543E-05	-1.737932E-06
3.424863E+03	-8.773480E-05	-1.720467E-06
3.426860E+03	-8.696109E-05	-1.705295E-06
3.428857E+03	-8.690201E-05	-1.704136E-06
3.430854E+03	-8.643823E-05	-1.695041E-06
3.432851E+03	-8.627624E-05	-1.691865E-06
3.434848E+03	-8.621845E-05	-1.690732E-06
3.436845E+03	-8.586103E-05	-1.683723E-06
3.438842E+03	-8.522020E-05	-1.671156E-06
3.440839E+03	-8.422767E-05	-1.651693E-06
3.442836E+03	-8.337783E-05	-1.635027E-06
3.444833E+03	-8.308579E-05	-1.629301E-06
3.446830E+03	-8.238542E-05	-1.615566E-06
3.448827E+03	-8.183925E-05	-1.604856E-06
3.450824E+03	-8.089100E-05	-1.586261E-06
3.452821E+03	-8.013926E-05	-1.571520E-06
3.454818E+03	-7.986807E-05	-1.566202E-06
3.456815E+03	-7.913810E-05	-1.551887E-06
3.458812E+03	-7.810867E-05	-1.531700E-06
3.460809E+03	-7.742452E-05	-1.518284E-06
3.462806E+03	-7.653181E-05	-1.500778E-06
3.464803E+03	-7.538980E-05	-1.478383E-06
3.466800E+03	-7.461175E-05	-1.463126E-06
3.468797E+03	-7.346394E-05	-1.440618E-06
3.470794E+03	-7.210349E-05	-1.413939E-06
3.472791E+03	-7.046930E-05	-1.381893E-06
3.474788E+03	-6.906969E-05	-1.354447E-06
3.476785E+03	-6.785083E-05	-1.330545E-06
3.478782E+03	-6.638697E-05	-1.301839E-06
3.480779E+03	-6.495730E-05	-1.273803E-06
3.482776E+03	-6.335084E-05	-1.242301E-06
3.484773E+03	-6.198888E-05	-1.215593E-06
3.486770E+03	-6.056672E-05	-1.187705E-06
3.488767E+03	-5.929578E-05	-1.162782E-06
3.490764E+03	-5.809085E-05	-1.139153E-06
3.492761E+03	-5.670284E-05	-1.111935E-06
3.494758E+03	-5.554911E-05	-1.089310E-06
3.496755E+03	-5.445392E-05	-1.067834E-06
3.498752E+03	-5.337900E-05	-1.046755E-06
3.500749E+03	-5.223207E-05	-1.024263E-06
3.502746E+03	-5.097602E-05	-9.996325E-07
3.504743E+03	-4.992553E-05	-9.790326E-07
3.506740E+03	-4.883185E-05	-9.575856E-07
3.508737E+03	-4.761649E-05	-9.337527E-07
3.510734E+03	-4.655929E-05	-9.130211E-07
3.512731E+03	-4.554320E-05	-8.930957E-07
3.514728E+03	-4.429712E-05	-8.686602E-07
3.516725E+03	-4.332765E-05	-8.496490E-07
3.518722E+03	-4.249915E-05	-8.334022E-07
3.520719E+03	-4.171956E-05	-8.181146E-07
3.522716E+03	-4.072750E-05	-7.986605E-07
3.524713E+03	-3.969204E-05	-7.783552E-07
3.526710E+03	-3.862326E-05	-7.573965E-07
3.528707E+03	-3.753828E-05	-7.361202E-07
3.530704E+03	-3.655962E-05	-7.169289E-07
3.532701E+03	-3.561407E-05	-6.983869E-07
3.534698E+03	-3.457562E-05	-6.780230E-07
3.536695E+03	-3.360182E-05	-6.589269E-07
3.538692E+03	-3.262211E-05	-6.397150E-07
3.540689E+03	-3.170059E-05	-6.216440E-07
3.542686E+03	-3.075760E-05	-6.031522E-07
3.544683E+03	-2.985579E-05	-5.854677E-07
3.546680E+03	-2.912834E-05	-5.712025E-07
3.548677E+03	-2.819111E-05	-5.528236E-07
3.550674E+03	-2.730246E-05	-5.353972E-07
3.552671E+03	-2.644699E-05	-5.186217E-07
3.554668E+03	-2.551389E-05	-5.003237E-07
3.556665E+03	-2.461737E-05	-4.827431E-07
3.558662E+03	-2.370035E-05	-4.647604E-07
3.560659E+03	-2.280717E-05	-4.472453E-07
3.562656E+03	-2.187105E-05	-4.288882E-07
3.564653E+03	-2.092900E-05	-4.104147E-07
3.566650E+03	-1.989063E-05	-3.900524E-07
3.568647E+03	-1.889229E-05	-3.704752E-07
3.570644E+03	-1.785878E-05	-3.502081E-07
3.572641E+03	-1.684785E-05	-3.303840E-07
3.574638E+03	-1.588575E-05	-3.115172E-07
3.576635E+03	-1.484333E-05	-2.910756E-07
3.578632E+03	-1.377308E-05	-2.700882E-07
3.580629E+03	-1.271892E-05	-2.494162E-07
3.582626E+03	-1.166824E-05	-2.288125E-07
3.584623E+03	-1.061178E-05	-2.080954E-07
3.586620E+03	-9.577916E-06	-1.878216E-07
3.588617E+03	-8.509912E-06	-1.668781E-07
3.590614E+03	-7.486510E-06	-1.468094E-07
3.592611E+03	-6.440066E-06	-1.262888E-07
3.594608E+03	-5.373675E-06	-1.053770E-07
3.596605E+03	-4.310111E-06	-8.452066E-08
3.598602E+03	-3.236650E-06	-6.347023E-08
3.600599E+03	-2.164586E-06	-4.244722E-08
3.602596E+03	-1.074878E-06	-2.107820E-08
3.604593E+03	2.522120E-08	4.945841E-10
3.606590E+03	1.139312E-06	2.234175E-08
3.608587E+03	2.279321E-06	4.469715E-08
3.610584E+03	3.428801E-06	6.723830E-08
3.612581E+03	4.564436E-06	8.950793E-08
3.614578E+03	5.708973E-06	1.119521E-07
3.616575E+03	6.855425E-06	1.344339E-07
3.618572E+03	7.989354E-06	1.566701E-07
3.620569E+03	9.142460E-06	1.792823E-07
3.622566E+03	1.031165E-05	2.022099E-07
3.624563E+03	1.146992E-05	2.249234E-07
3.626560E+03	1.256875E-05	2.464713E-07
3.628557E+03	1.364379E-05	2.675527E-07
3.630554E+03	1.473235E-05	2.888993E-07
3.632551E+03	1.584168E-05	3.106530E-07
3.634548E+03	1.697667E-05	3.329101E-07
3.636545E+03	1.813664E-05	3.556569E-07
3.638542E+03	1.931781E-05	3.788195E-07
3.640539E+03	2.043378E-05	4.007035E-07
3.642536E+03	2.162136E-05	4.239917E-07
3.644533E+03	2.283159E-05	4.477242E-07
3.646530E+03	2.406096E-05	4.718320E-07
3.648527E+03	2.526414E-05	4.954260E-07
3.650524E+03	2.656145E-05	5.208662E-07
3.652521E+03	2.787147E-05	5.465555E-07
3.654518E+03	2.910337E-05	5.707129E-07
3.656515E+03	3.036995E-05	5.955503E-07
3.658512E+03	3.160321E-05	6.197344E-07
3.660509E+03	3.277750E-05	6.427620E-07
3.662506E+03	3.399850E-05	6.667057E-07
3.664503E+03	3.547142E-05	6.955893E-07
3.666500E+03	3.709212E-05	7.273710E-07
3.668497E+03	3.847049E-05	7.544007E-07
3.670494E+03	3.964891E-05	7.775094E-07
3.672491E+03	4.084203E-05	8.009063E-07
3.674488E+03	4.205288E-05	8.246508E-07
3.676485E+03	4.328466E-05	8.488058E-07
3.678482E+03	4.480594E-05	8.786379E-07
3.680479E+03	4.626367E-05	9.072238E-07
3.682476E+03	4.771690E-05	9.357214E-07
3.684473E+03	4.934125E-05	9.675746E-07
3.686470E+03	5.081616E-05	9.964974E-07
3.688467E+03	5.236249E-05	1.026821E-06
3.690464E+03	5.376523E-05	1.054328E-06
3.692461E+03	5.531544E-05	1.084728E-06
3.694458E+03	5.684906E-05	1.114802E-06
3.696455E+03	5.784535E-05	1.134339E-06
3.698452E+03	5.937655E-05	1.164365E-06
3.700449E+03	6.098926E-05	1.195991E-06
3.702446E+03	6.260286E-05	1.227633E-06
3.704443E+03	6.419656E-05	1.258885E-06
3.706440E+03	6.567793E-05	1.287935E-06
3.708437E+03	6.723136E-05	1.318397E-06
3.710434E+03	6.864093E-05	1.346039E-06
3.712431E+03	6.955044E-05	1.363874E-06
3.714428E+03	7.048385E-05	1.382178E-06
3.716425E+03	7.118009E-05	1.395831E-06
3.718422E+03	7.178893E-05	1.407770E-06
3.720419E+03	7.239744E-05	1.419703E-06
3.722416E+03	7.313642E-05	1.434195E-06
3.724413E+03	7.361196E-05	1.443520E-06
3.726410E+03	7.455213E-05	1.461956E-06
3.728407E+03	7.564010E-05	1.483291E-06
3.730404E+03	7.690132E-05	1.508024E-06
3.732401E+03	7.835371E-05	1.536505E-06
3.734398E+03	7.975578E-05	1.563999E-06
3.736395E+03	8.072659E-05	1.583037E-06
3.738392E+03	8.198864E-05	1.607785E-06
3.740389E+03	8.304096E-05	1.628421E-06
3.742386E+03	8.419502E-05	1.651052E-06
3.744383E+03	8.506534E-05	1.668119E-06
3.746380E+03	8.583451E-05	1.683202E-06
3.748377E+03	8.660363E-05	1.698284E-06
3.750374E+03	8.713613E-05	1.708727E-06
3.752371E+03	8.827789E-05	1.731116E-06
3.754368E+03	8.945151E-05	1.754131E-06
3.756365E+03	9.019924E-05	1.768794E-06
3.758362E+03	9.068854E-05	1.778389E-06
3.760359E+03	9.125732E-05	1.789543E-06
3.762356E+03	9.211025E-05	1.806268E-06
3.764353E+03	9.319164E-05	1.827474E-06
3.766350E+03	9.472121E-05	1.857469E-06
3.768347E+03	9.675164E-05	1.897285E-06
3.770344E+03	9.906426E-05	1.942636E-06
3.772341E+03	1.013008E-04	1.986494E-06
3.774338E+03	1.033109E-04	2.025911E-06
3.776335E+03	1.049804E-04	2.058650E-06
3.778333E+03	1.066646E-04	2.091678E-06
3.780330E+03	1.082466E-04	2.122700E-06
3.782327E+03	1.095097E-04	2.147470E-06
3.784324E+03	1.109221E-04	2.175167E-06
3.786321E+03	1.122483E-04	2.201173E-06
3.788318E+03	1.134720E-04	2.225168E-06
3.790315E+03	1.148012E-04	2.251235E-06
3.792312E+03	1.158066E-04	2.270950E-06
3.794309E+03	1.169798E-04	2.293957E-06
3.796306E+03	1.184176E-04	2.322152E-06
3.798303E+03	1.197788E-04	2.348845E-06
3.800300E+03	1.209356E-04	2.371529E-06
3.802297E+03	1.220096E-04	2.392591E-06
3.804294E+03	1.228395E-04	2.408864E-06
3.806291E+03	1.231967E-04	2.415868E-06
3.808288E+03	1.240227E-04	2.432066E-06
3.810285E+03	1.254487E-04	2.460030E-06
3.812282E+03	1.269870E-04	2.490196E-06
3.814279E+03	1.283458E-04	2.516842E-06
3.816276E+03	1.293344E-04	2.536228E-06
3.818273E+03	1.310965E-04	2.570783E-06
3.820270E+03	1.336204E-04	2.620276E-06
3.822267E+03	1.365354E-04	2.677439E-06
3.824264E+03	1.395681E-04	2.736909E-06
3.826261E+03	1.433523E-04	2.811116E-06
3.828258E+03	1.469223E-04	2.881124E-06
3.830255E+03	1.502812E-04	2.946992E-06
3.832252E+03	1.532759E-04	3.005718E-06
3.834249E+03	1.559140E-04	3.057451E-06
3.836246E+03	1.586543E-04	3.111188E-06
3.838243E+03	1.615443E-04	3.167860E-06
3.840240E+03	1.646532E-04	3.228825E-06
3.842237E+03	1.671800E-04	3.278375E-06
3.844234E+03	1.698256E-04	3.330255E-06
3.846231E+03	1.733644E-04	3.399650E-06
3.848228E+03	1.773321E-04	3.477456E-06
3.850225E+03	1.803047E-04	3.535748E-06
3.852222E+03	1.827092E-04	3.582901E-06
3.854219E+03	1.852661E-04	3.633041E-06
3.856216E+03	1.874569E-04	3.676003E-06
3.858213E+03	1.883481E-04	3.693478E-06
3.860210E+03	1.890582E-04	3.707404E-06
3.862207E+03	1.912006E-04	3.749415E-06
3.864204E+03	1.940685E-04	3.805654E-06
3.866201E+03	1.978411E-04	3.879634E-06
3.868198E+03	2.011721E-04	3.944955E-06
3.870195E+03	2.044867E-04	4.009954E-06
3.872192E+03	2.086790E-04	4.092164E-06
3.874189E+03	2.139693E-04	4.195905E-06
3.876186E+03	2.190188E-04	4.294926E-06
3.878183E+03	2.238639E-04	4.389937E-06
3.880180E+03	2.288078E-04	4.486886E-06
3.882177E+03	2.327955E-04	4.565085E-06
3.884174E+03	2.363004E-04	4.633815E-06
3.886171E+03	2.403205E-04	4.712649E-06
3.888168E+03	2.443020E-04	4.790726E-06
3.890165E+03	2.476697E-04	4.856766E-06
3.892162E+03	2.502014E-04	4.906412E-06
3.894159E+03	2.525205E-04	4.951890E-06
3.896156E+03	2.554482E-04	5.009300E-06
3.898153E+03	2.588483E-04	5.075977E-06
3.900150E+03	2.633569E-04	5.164390E-06
3.902147E+03	2.676011E-04	5.247617E-06
3.904144E+03	2.721565E-04	5.336949E-06
3.906141E+03	2.765366E-04	5.422841E-06
3.908138E+03	2.815174E-04	5.520513E-06
3.910135E+03	2.872983E-04	5.633877E-06
3.912132E+03	2.934308E-04	5.754133E-06
3.914129E+03	3.006882E-04	5.896450E-06
3.916126E+03	3.072908E-04	6.025925E-06
3.918123E+03	3.131207E-04	6.140249E-06
3.920120E+03	3.175584E-04	6.227272E-06
3.922117E+03	3.211632E-04	6.297961E-06
3.924114E+03	3.245270E-04	6.363925E-06
3.926111E+03	3.283274E-04	6.438452E-06
3.928108E+03	3.310999E-04	6.492818E-06
3.930105E+03	3.333389E-04	6.536725E-06
3.932102E+03	3.360319E-04	6.589536E-06
3.934099E+03	3.375680E-04	6.619658E-06
3.936096E+03	3.393288E-04	6.654187E-06
3.938093E+03	3.408854E-04	6.684711E-06
3.940090E+03	3.418310E-04	6.703255E-06
3.942087E+03	3.436257E-04	6.738448E-06
3.944084E+03	3.444698E-04	6.755001E-06
3.946081E+03	3.457152E-04	6.779422E-06
3.948078E+03	3.468347E-04	6.801375E-06
3.950075E+03	3.470422E-04	6.805446E-06
3.952072E+03	3.460782E-04	6.786541E-06
3.954069E+03	3.452023E-04	6.769365E-06
3.956066E+03	3.451222E-04	6.767795E-06
3.958063E+03	3.457819E-04	6.780730E-06
3.960060E+03	3.469831E-04	6.804286E-06
3.962057E+03	3.494185E-04	6.852043E-06
3.964054E+03	3.525529E-04	6.913509E-06
3.966051E+03	3.569378E-04	6.999495E-06
3.968048E+03	3.608587E-04	7.076385E-06
3.970045E+03	3.649965E-04	7.157526E-06
3.972042E+03	3.685857E-04	7.227910E-06
3.974039E+03	3.741440E-04	7.336907E-06
3.976036E+03	3.799603E-04	7.450964E-06
3.978033E+03	3.852557E-04	7.554806E-06
3.980030E+03	3.911196E-04	7.669796E-06
3.982027E+03	3.972474E-04	7.789961E-06
3.984024E+03	4.036673E-04	7.915854E-06
3.986021E+03	4.099974E-04	8.039988E-06
3.988018E+03	4.161570E-04	8.160776E-06
3.990015E+03	4.218655E-04	8.272719E-06
3.992012E+03	4.277655E-04	8.388417E-06
3.994009E+03	4.340591E-04	8.511833E-06
3.996006E+03	4.408630E-04	8.645257E-06
3.998003E+03	4.467905E-04	8.761495E-06
4.000000E+03	4.522169E-04	8.867904E-06
4.001997E+03	4.578846E-04	8.979047E-06
4.003994E+03	4.638484E-04	9.095996E-06
4.005991E+03	4.700348E-04	9.217311E-06
4.007988E+03	4.780779E-04	9.375036E-06
4.009985E+03	4.870772E-04	9.551509E-06
4.011982E+03	4.950578E-04	9.708008E-06
4.013979E+03	5.019810E-04	9.843771E-06
4.015976E+03	5.081474E-04	9.964693E-06
4.017973E+03	5.146753E-04	1.009270E-05
4.019970E+03	5.207379E-04	1.021159E-05
4.021967E+03	5.255409E-04	1.030578E-05
4.023964E+03	5.287773E-04	1.036924E-05
4.025961E+03	5.317615E-04	1.042776E-05
4.027958E+03	5.346594E-04	1.048459E-05
4.029955E+03	5.372441E-04	1.053527E-05
4.031952E+03	5.397488E-04	1.058439E-05
4.033949E+03	5.422772E-04	1.063397E-05
4.035946E+03	5.446176E-04	1.067987E-05
4.037943E+03	5.467283E-04	1.072126E-05
4.039940E+03	5.488652E-04	1.076316E-05
4.041937E+03	5.509779E-04	1.080459E-05
4.043934E+03	5.539996E-04	1.086385E-05
4.045931E+03	5.564163E-04	1.091124E-05
4.047928E+03	5.587650E-04	1.095730E-05
4.049925E+03	5.612184E-04	1.100541E-05
4.051922E+03	5.631156E-04	1.104261E-05
