#wls	flux	fluxerr
1.597604E+03	2.955288E-05	7.814876E-07
1.637544E+03	3.007021E-05	7.945905E-07
1.677484E+03	3.062710E-05	8.087029E-07
1.717424E+03	3.123892E-05	8.242270E-07
1.757364E+03	3.190550E-05	8.411533E-07
1.797304E+03	3.263263E-05	8.596295E-07
1.837244E+03	3.342680E-05	8.798212E-07
1.877184E+03	3.430136E-05	9.020733E-07
1.917124E+03	3.525880E-05	9.264444E-07
1.957064E+03	3.630849E-05	9.531721E-07
1.997004E+03	3.746098E-05	9.825248E-07
2.036945E+03	3.873505E-05	1.014984E-06
2.076885E+03	4.013795E-05	1.050729E-06
2.116825E+03	4.168523E-05	1.090152E-06
2.156765E+03	4.339451E-05	1.133700E-06
2.196705E+03	4.529394E-05	1.182091E-06
2.236645E+03	4.739926E-05	1.235714E-06
2.276585E+03	4.973694E-05	1.295238E-06
2.316525E+03	5.233712E-05	1.361420E-06
2.356465E+03	5.524386E-05	1.435378E-06
2.396405E+03	5.848814E-05	1.517880E-06
2.436345E+03	6.211507E-05	1.610057E-06
2.476286E+03	6.618760E-05	1.713493E-06
2.516226E+03	7.075418E-05	1.829390E-06
2.556166E+03	7.588123E-05	1.959402E-06
2.596106E+03	8.164314E-05	2.105379E-06
2.636046E+03	8.813792E-05	2.269764E-06
2.675986E+03	9.544398E-05	2.454480E-06
2.715926E+03	1.036601E-04	2.661960E-06
2.755866E+03	1.129096E-04	2.895239E-06
2.795806E+03	1.232819E-04	3.156471E-06
2.835746E+03	1.348781E-04	3.448082E-06
2.875686E+03	1.477843E-04	3.772097E-06
2.915627E+03	1.620847E-04	4.130467E-06
2.955567E+03	1.777635E-04	4.522581E-06
2.995507E+03	1.947484E-04	4.946389E-06
3.005492E+03	1.991631E-04	5.056363E-06
3.015477E+03	2.036774E-04	5.168759E-06
3.025462E+03	2.082536E-04	5.282613E-06
3.035447E+03	2.128502E-04	5.396876E-06
3.045432E+03	2.175312E-04	5.513163E-06
3.055417E+03	2.222542E-04	5.630396E-06
3.065402E+03	2.269728E-04	5.747404E-06
3.075387E+03	2.317528E-04	5.865846E-06
3.085372E+03	2.365465E-04	5.984513E-06
3.095357E+03	2.413020E-04	6.102094E-06
3.105342E+03	2.460861E-04	6.220277E-06
3.115327E+03	2.508452E-04	6.337703E-06
3.125312E+03	2.555635E-04	6.453975E-06
3.135297E+03	2.601801E-04	6.567557E-06
3.145282E+03	2.647610E-04	6.680118E-06
3.155267E+03	2.692414E-04	6.790021E-06
3.165252E+03	2.735951E-04	6.896612E-06
3.175237E+03	2.777914E-04	6.999117E-06
3.185222E+03	2.817935E-04	7.096618E-06
3.195207E+03	2.855104E-04	7.186827E-06
3.205192E+03	2.889853E-04	7.270843E-06
3.215177E+03	2.921154E-04	7.346089E-06
3.225162E+03	2.948437E-04	7.411141E-06
3.235147E+03	2.971188E-04	7.464726E-06
3.245132E+03	2.989036E-04	7.505925E-06
3.255117E+03	3.001807E-04	7.534319E-06
3.265102E+03	3.009551E-04	7.550053E-06
3.275087E+03	3.012526E-04	7.553793E-06
3.285072E+03	3.011162E-04	7.546633E-06
3.295057E+03	3.006012E-04	7.529976E-06
3.305042E+03	2.997701E-04	7.505400E-06
3.315027E+03	2.986892E-04	7.474574E-06
3.325012E+03	2.974254E-04	7.439186E-06
3.334998E+03	2.960454E-04	7.400905E-06
3.344983E+03	2.946133E-04	7.361340E-06
3.354968E+03	2.931887E-04	7.321981E-06
3.364953E+03	2.918241E-04	7.284142E-06
3.374938E+03	2.905635E-04	7.248914E-06
3.384923E+03	2.894410E-04	7.217143E-06
3.394908E+03	2.884805E-04	7.189423E-06
3.404893E+03	2.876958E-04	7.166090E-06
3.414878E+03	2.870899E-04	7.147212E-06
3.424863E+03	2.867022E-04	7.133762E-06
3.434848E+03	2.864224E-04	7.122988E-06
3.444833E+03	2.862737E-04	7.115463E-06
3.454818E+03	2.862295E-04	7.110523E-06
3.464803E+03	2.862631E-04	7.107497E-06
3.474788E+03	2.863498E-04	7.105769E-06
3.484773E+03	2.865139E-04	7.105943E-06
3.494758E+03	2.866435E-04	7.105242E-06
3.504743E+03	2.867692E-04	7.104420E-06
3.514728E+03	2.868784E-04	7.103171E-06
3.524713E+03	2.869633E-04	7.101300E-06
3.534698E+03	2.870691E-04	7.099926E-06
3.544683E+03	2.871099E-04	7.096927E-06
3.554668E+03	2.871478E-04	7.093837E-06
3.564653E+03	2.872044E-04	7.091189E-06
3.574638E+03	2.873034E-04	7.089570E-06
3.584623E+03	2.875141E-04	7.090686E-06
3.594608E+03	2.877638E-04	7.092741E-06
3.604593E+03	2.881164E-04	7.097304E-06
3.614578E+03	2.886347E-04	7.105921E-06
3.624563E+03	2.892441E-04	7.116746E-06
3.634548E+03	2.900129E-04	7.131457E-06
3.644533E+03	2.909681E-04	7.150709E-06
3.654518E+03	2.921871E-04	7.176394E-06
3.664503E+03	2.936067E-04	7.206950E-06
3.674488E+03	2.952995E-04	7.244150E-06
3.684473E+03	2.972820E-04	7.288386E-06
3.694458E+03	2.996055E-04	7.340899E-06
3.704443E+03	3.021630E-04	7.399054E-06
3.714428E+03	3.049787E-04	7.463436E-06
3.724413E+03	3.080708E-04	7.534474E-06
3.734398E+03	3.113079E-04	7.608944E-06
3.744383E+03	3.147063E-04	7.687240E-06
3.754368E+03	3.182887E-04	7.769904E-06
3.764353E+03	3.219316E-04	7.853918E-06
3.774338E+03	3.256704E-04	7.940139E-06
3.784324E+03	3.294984E-04	8.028399E-06
3.794309E+03	3.334707E-04	8.120037E-06
3.804294E+03	3.374919E-04	8.212721E-06
3.814279E+03	3.416310E-04	8.308129E-06
3.824264E+03	3.459648E-04	8.408120E-06
3.834249E+03	3.504096E-04	8.510651E-06
3.844234E+03	3.550474E-04	8.617706E-06
3.854219E+03	3.599628E-04	8.731330E-06
3.864204E+03	3.650677E-04	8.849369E-06
3.874189E+03	3.704375E-04	8.973644E-06
3.884174E+03	3.761430E-04	9.105853E-06
3.894159E+03	3.820682E-04	9.243174E-06
3.904144E+03	3.882651E-04	9.386851E-06
3.914129E+03	3.947191E-04	9.536520E-06
3.924114E+03	4.014722E-04	9.693180E-06
3.934099E+03	4.083700E-04	9.853088E-06
3.944084E+03	4.154343E-04	1.001676E-05
3.954069E+03	4.226713E-04	1.018435E-05
3.964054E+03	4.298570E-04	1.035044E-05
3.974039E+03	4.369253E-04	1.051344E-05
3.984024E+03	4.436986E-04	1.066909E-05
3.994009E+03	4.500314E-04	1.081391E-05
4.003994E+03	4.555454E-04	1.093884E-05
4.013979E+03	4.600811E-04	1.104008E-05
4.023964E+03	4.634574E-04	1.111334E-05
4.033949E+03	4.656525E-04	1.115816E-05
4.043934E+03	4.665373E-04	1.117151E-05
4.053919E+03	4.663190E-04	1.115841E-05
4.063904E+03	4.652410E-04	1.112473E-05
4.073889E+03	4.636210E-04	1.107811E-05
4.083874E+03	4.618809E-04	1.102866E-05
4.093859E+03	4.602149E-04	1.098101E-05
4.103844E+03	4.589851E-04	1.094380E-05
4.113829E+03	4.584082E-04	1.092216E-05
4.123814E+03	4.586130E-04	1.091912E-05
4.133799E+03	4.597103E-04	1.093730E-05
4.143784E+03	4.615144E-04	1.097222E-05
4.153769E+03	4.639876E-04	1.102294E-05
4.163754E+03	4.669742E-04	1.108575E-05
4.173739E+03	4.702933E-04	1.115631E-05
4.183724E+03	4.737561E-04	1.123015E-05
4.193709E+03	4.771782E-04	1.130287E-05
4.203694E+03	4.803839E-04	1.137033E-05
4.213679E+03	4.832114E-04	1.142871E-05
4.223665E+03	4.855936E-04	1.147645E-05
4.233650E+03	4.872628E-04	1.150723E-05
4.243635E+03	4.882150E-04	1.152102E-05
4.253620E+03	4.884174E-04	1.151707E-05
4.263605E+03	4.878979E-04	1.149608E-05
4.273590E+03	4.867490E-04	1.146027E-05
4.283575E+03	4.851268E-04	1.141335E-05
4.293560E+03	4.832423E-04	1.136030E-05
4.303545E+03	4.813367E-04	1.130679E-05
4.313530E+03	4.796530E-04	1.125855E-05
4.323515E+03	4.783292E-04	1.121879E-05
4.333500E+03	4.776690E-04	1.119461E-05
4.343485E+03	4.776924E-04	1.118644E-05
4.353470E+03	4.784304E-04	1.119497E-05
4.363455E+03	4.798655E-04	1.121976E-05
4.373440E+03	4.819485E-04	1.125961E-05
4.383425E+03	4.846131E-04	1.131295E-05
4.393410E+03	4.877943E-04	1.137822E-05
4.403395E+03	4.913729E-04	1.145261E-05
4.413380E+03	4.955058E-04	1.153977E-05
4.423365E+03	5.001867E-04	1.163950E-05
4.433350E+03	5.055427E-04	1.175475E-05
4.443335E+03	5.116553E-04	1.188735E-05
4.453320E+03	5.188287E-04	1.204433E-05
4.463305E+03	5.270762E-04	1.222594E-05
4.473290E+03	5.363712E-04	1.243150E-05
4.483275E+03	5.464482E-04	1.265481E-05
4.493260E+03	5.571145E-04	1.289135E-05
4.503245E+03	5.677749E-04	1.312734E-05
4.513230E+03	5.777172E-04	1.334632E-05
4.523215E+03	5.864602E-04	1.353721E-05
4.533200E+03	5.932370E-04	1.368241E-05
4.543185E+03	5.977847E-04	1.377597E-05
4.553170E+03	5.996855E-04	1.380838E-05
4.563155E+03	5.991016E-04	1.378354E-05
4.573140E+03	5.961211E-04	1.370360E-05
4.583125E+03	5.909869E-04	1.357430E-05
4.593110E+03	5.842176E-04	1.340765E-05
4.603095E+03	5.763694E-04	1.321650E-05
4.613080E+03	5.677334E-04	1.300758E-05
4.623065E+03	5.589188E-04	1.279489E-05
4.633050E+03	5.501422E-04	1.258339E-05
4.643035E+03	5.418938E-04	1.238428E-05
4.653020E+03	5.342590E-04	1.219949E-05
4.663005E+03	5.274956E-04	1.203486E-05
4.672991E+03	5.217007E-04	1.189255E-05
4.682976E+03	5.169741E-04	1.177478E-05
4.692961E+03	5.131151E-04	1.167693E-05
4.702946E+03	5.101036E-04	1.159849E-05
4.712931E+03	5.078018E-04	1.153627E-05
4.722916E+03	5.061240E-04	1.148829E-05
4.732901E+03	5.047428E-04	1.144710E-05
4.742886E+03	5.035581E-04	1.141040E-05
4.752871E+03	5.023984E-04	1.137430E-05
4.762856E+03	5.011082E-04	1.133528E-05
4.772841E+03	4.995556E-04	1.129037E-05
4.782826E+03	4.976430E-04	1.123738E-05
4.792811E+03	4.953182E-04	1.117516E-05
4.802796E+03	4.925865E-04	1.110385E-05
4.812781E+03	4.895165E-04	1.102501E-05
4.822766E+03	4.862423E-04	1.094170E-05
4.832751E+03	4.829549E-04	1.085820E-05
4.842736E+03	4.798767E-04	1.077953E-05
4.852721E+03	4.772234E-04	1.071051E-05
4.862706E+03	4.751613E-04	1.065484E-05
4.872691E+03	4.737748E-04	1.061439E-05
4.882676E+03	4.730556E-04	1.058892E-05
4.892661E+03	4.728366E-04	1.057465E-05
4.902646E+03	4.730955E-04	1.057108E-05
4.912631E+03	4.735644E-04	1.057217E-05
4.922616E+03	4.740447E-04	1.057349E-05
4.932601E+03	4.742942E-04	1.056965E-05
4.942586E+03	4.743300E-04	1.056104E-05
4.952571E+03	4.740115E-04	1.054454E-05
4.962556E+03	4.732556E-04	1.051833E-05
4.972541E+03	4.722481E-04	1.048656E-05
4.982526E+03	4.709433E-04	1.044823E-05
4.992511E+03	4.696142E-04	1.040942E-05
5.002496E+03	4.683422E-04	1.037192E-05
5.012481E+03	4.672020E-04	1.033739E-05
5.022466E+03	4.664479E-04	1.031144E-05
5.032451E+03	4.660121E-04	1.029255E-05
5.042436E+03	4.659792E-04	1.028257E-05
5.052421E+03	4.663796E-04	1.028214E-05
5.062406E+03	4.669847E-04	1.028622E-05
5.072391E+03	4.678013E-04	1.029492E-05
5.082376E+03	4.685343E-04	1.030176E-05
5.092361E+03	4.690886E-04	1.030465E-05
5.102346E+03	4.693164E-04	1.030036E-05
5.112332E+03	4.691770E-04	1.028801E-05
5.122317E+03	4.684824E-04	1.026351E-05
5.132302E+03	4.673266E-04	1.022895E-05
5.142287E+03	4.658073E-04	1.018649E-05
5.152272E+03	4.640789E-04	1.013953E-05
5.162257E+03	4.623907E-04	1.009353E-05
5.172242E+03	4.607803E-04	1.004930E-05
5.182227E+03	4.594575E-04	1.001141E-05
5.192212E+03	4.585082E-04	9.981708E-06
5.202197E+03	4.579624E-04	9.960837E-06
5.212182E+03	4.578041E-04	9.948419E-06
5.222167E+03	4.579919E-04	9.943534E-06
5.232152E+03	4.584808E-04	9.945189E-06
5.242137E+03	4.592326E-04	9.952534E-06
5.252122E+03	4.601505E-04	9.963462E-06
5.262107E+03	4.613405E-04	9.980255E-06
5.272092E+03	4.626886E-04	1.000044E-05
5.282077E+03	4.641145E-04	1.002226E-05
5.292062E+03	4.654924E-04	1.004302E-05
5.302047E+03	4.666548E-04	1.005909E-05
5.312032E+03	4.673397E-04	1.006486E-05
5.322017E+03	4.674947E-04	1.005922E-05
5.332002E+03	4.668967E-04	1.003741E-05
5.341987E+03	4.653909E-04	9.996138E-06
5.351972E+03	4.631168E-04	9.938465E-06
5.361957E+03	4.601000E-04	9.864976E-06
5.371942E+03	4.564479E-04	9.778018E-06
5.381927E+03	4.525219E-04	9.685363E-06
5.391912E+03	4.484345E-04	9.589427E-06
5.401897E+03	4.445482E-04	9.497971E-06
5.411882E+03	4.409216E-04	9.412230E-06
5.421867E+03	4.378194E-04	9.337838E-06
5.431852E+03	4.351894E-04	9.273653E-06
5.441837E+03	4.331796E-04	9.222798E-06
5.451822E+03	4.316321E-04	9.181883E-06
5.461807E+03	4.305320E-04	9.150565E-06
5.471792E+03	4.298209E-04	9.127578E-06
5.481777E+03	4.292223E-04	9.107037E-06
5.491762E+03	4.286495E-04	9.087095E-06
5.501747E+03	4.280359E-04	9.066343E-06
5.511732E+03	4.271311E-04	9.039482E-06
5.521717E+03	4.258687E-04	9.005123E-06
5.531702E+03	4.241266E-04	8.960707E-06
5.541687E+03	4.218789E-04	8.905713E-06
5.551672E+03	4.189694E-04	8.836872E-06
5.561658E+03	4.154951E-04	8.756262E-06
5.571643E+03	4.115506E-04	8.665908E-06
5.581628E+03	4.072711E-04	8.568674E-06
5.591613E+03	4.028106E-04	8.467817E-06
5.601598E+03	3.983227E-04	8.366569E-06
5.611583E+03	3.939469E-04	8.267861E-06
5.621568E+03	3.898029E-04	8.174198E-06
5.631553E+03	3.859913E-04	8.087670E-06
5.641538E+03	3.825965E-04	8.010029E-06
5.651523E+03	3.796904E-04	7.942760E-06
5.661508E+03	3.773321E-04	7.887069E-06
5.671493E+03	3.755653E-04	7.843840E-06
5.681478E+03	3.744150E-04	7.813570E-06
5.691463E+03	3.738318E-04	7.795193E-06
5.701448E+03	3.739106E-04	7.790662E-06
5.711433E+03	3.745687E-04	7.798218E-06
5.721418E+03	3.757729E-04	7.817147E-06
5.731403E+03	3.774952E-04	7.846837E-06
5.741388E+03	3.796611E-04	7.885720E-06
5.751373E+03	3.823680E-04	7.935794E-06
5.761358E+03	3.855409E-04	7.995480E-06
5.771343E+03	3.890781E-04	8.062648E-06
5.781328E+03	3.930025E-04	8.137757E-06
5.791313E+03	3.971075E-04	8.216516E-06
5.801298E+03	4.011253E-04	8.293379E-06
5.811283E+03	4.049257E-04	8.365664E-06
5.821268E+03	4.081477E-04	8.425930E-06
5.831253E+03	4.107145E-04	8.472618E-06
5.841238E+03	4.123978E-04	8.501057E-06
5.851223E+03	4.133157E-04	8.513720E-06
5.861208E+03	4.134461E-04	8.510188E-06
5.871193E+03	4.130728E-04	8.496330E-06
5.881178E+03	4.122521E-04	8.473332E-06
5.891163E+03	4.112495E-04	8.446664E-06
5.901148E+03	4.100297E-04	8.415613E-06
5.911133E+03	4.086721E-04	8.381812E-06
5.921118E+03	4.072017E-04	8.345785E-06
5.931103E+03	4.054401E-04	8.303880E-06
5.941088E+03	4.033943E-04	8.256252E-06
5.951073E+03	4.011020E-04	8.203686E-06
5.961058E+03	3.984678E-04	8.144243E-06
5.971043E+03	3.956126E-04	8.080404E-06
5.981028E+03	3.926271E-04	8.014031E-06
5.991013E+03	3.896724E-04	7.948414E-06
6.000999E+03	3.867359E-04	7.883296E-06
6.010984E+03	3.839590E-04	7.821554E-06
6.020969E+03	3.813974E-04	7.764317E-06
6.030954E+03	3.790737E-04	7.712034E-06
6.040939E+03	3.769808E-04	7.664553E-06
6.050924E+03	3.751502E-04	7.622505E-06
6.060909E+03	3.734530E-04	7.583261E-06
6.070894E+03	3.719506E-04	7.548064E-06
6.080879E+03	3.706954E-04	7.517966E-06
6.090864E+03	3.698027E-04	7.495296E-06
6.100849E+03	3.694627E-04	7.483896E-06
6.110834E+03	3.699463E-04	7.489229E-06
6.120819E+03	3.716027E-04	7.518333E-06
6.130804E+03	3.748468E-04	7.579552E-06
6.140789E+03	3.801329E-04	7.682018E-06
6.150774E+03	3.879164E-04	7.834857E-06
6.160759E+03	3.986021E-04	8.046163E-06
6.170744E+03	4.124198E-04	8.320475E-06
6.180729E+03	4.295899E-04	8.662141E-06
6.190714E+03	4.499065E-04	9.066909E-06
6.200699E+03	4.729365E-04	9.525962E-06
6.210684E+03	4.979630E-04	1.002480E-05
6.220669E+03	5.240266E-04	1.054406E-05
6.230654E+03	5.499150E-04	1.105934E-05
6.240639E+03	5.745831E-04	1.154966E-05
6.250624E+03	5.967877E-04	1.199010E-05
6.260609E+03	6.154824E-04	1.235972E-05
6.270594E+03	6.297119E-04	1.263946E-05
6.280579E+03	6.390206E-04	1.282033E-05
6.290564E+03	6.429414E-04	1.289308E-05
6.300549E+03	6.412924E-04	1.285425E-05
6.310534E+03	6.344764E-04	1.271203E-05
6.320519E+03	6.229065E-04	1.247485E-05
6.330504E+03	6.072554E-04	1.215629E-05
6.340489E+03	5.886423E-04	1.177883E-05
6.350474E+03	5.679963E-04	1.136113E-05
6.360459E+03	5.462372E-04	1.092161E-05
6.370444E+03	5.244265E-04	1.048151E-05
6.380429E+03	5.031600E-04	1.005272E-05
6.390414E+03	4.831715E-04	9.649867E-06
6.400399E+03	4.647364E-04	9.278413E-06
6.410384E+03	4.482597E-04	8.946397E-06
6.420369E+03	4.337432E-04	8.653809E-06
6.430354E+03	4.213462E-04	8.403774E-06
6.440339E+03	4.108955E-04	8.192795E-06
6.450325E+03	4.024083E-04	8.021173E-06
6.460310E+03	3.956201E-04	7.883595E-06
6.470295E+03	3.904599E-04	7.778610E-06
6.480280E+03	3.865720E-04	7.699104E-06
6.490265E+03	3.837557E-04	7.641056E-06
6.500250E+03	3.814949E-04	7.594176E-06
6.510235E+03	3.793739E-04	7.550177E-06
6.520220E+03	3.770166E-04	7.501574E-06
6.530205E+03	3.740904E-04	7.441751E-06
6.540190E+03	3.706629E-04	7.372054E-06
6.550175E+03	3.668817E-04	7.295426E-06
6.560160E+03	3.627037E-04	7.211008E-06
6.570145E+03	3.582138E-04	7.120489E-06
6.580130E+03	3.534986E-04	7.025592E-06
6.590115E+03	3.485225E-04	6.925605E-06
6.600100E+03	3.434448E-04	6.823694E-06
6.610085E+03	3.383984E-04	6.722497E-06
6.620070E+03	3.335657E-04	6.625631E-06
6.630055E+03	3.289568E-04	6.533293E-06
6.640040E+03	3.246880E-04	6.447790E-06
6.650025E+03	3.207816E-04	6.369555E-06
6.660010E+03	3.172225E-04	6.298286E-06
6.669995E+03	3.139708E-04	6.233186E-06
6.679980E+03	3.110208E-04	6.174137E-06
6.689965E+03	3.082297E-04	6.118301E-06
6.699950E+03	3.056003E-04	6.065733E-06
6.709935E+03	3.031021E-04	6.015825E-06
6.719920E+03	3.007179E-04	5.968230E-06
6.729905E+03	2.984412E-04	5.922820E-06
6.739890E+03	2.962730E-04	5.879611E-06
6.749875E+03	2.942172E-04	5.838680E-06
6.759860E+03	2.922782E-04	5.800115E-06
6.769845E+03	2.904610E-04	5.764007E-06
6.779830E+03	2.887716E-04	5.730480E-06
6.789815E+03	2.872177E-04	5.699683E-06
6.799800E+03	2.858077E-04	5.671781E-06
6.809785E+03	2.845478E-04	5.646898E-06
6.819770E+03	2.834407E-04	5.625085E-06
6.829755E+03	2.824842E-04	5.606297E-06
6.839740E+03	2.816717E-04	5.590405E-06
6.849725E+03	2.809940E-04	5.577227E-06
6.859710E+03	2.804412E-04	5.566560E-06
6.869695E+03	2.800046E-04	5.558238E-06
6.879680E+03	2.796786E-04	5.552143E-06
6.889666E+03	2.794603E-04	5.548223E-06
6.899651E+03	2.793502E-04	5.546487E-06
6.909636E+03	2.793517E-04	5.547001E-06
6.919621E+03	2.794303E-04	5.549079E-06
6.929606E+03	2.796778E-04	5.554547E-06
6.939591E+03	2.800658E-04	5.562838E-06
6.949576E+03	2.806061E-04	5.574194E-06
6.959561E+03	2.813075E-04	5.588782E-06
6.969546E+03	2.821294E-04	5.605803E-06
6.979531E+03	2.831462E-04	5.626733E-06
6.989516E+03	2.842981E-04	5.650387E-06
6.999501E+03	2.855599E-04	5.676264E-06
7.009486E+03	2.869050E-04	5.703836E-06
7.019471E+03	2.882718E-04	5.731879E-06
7.029456E+03	2.897418E-04	5.762015E-06
7.039441E+03	2.912953E-04	5.793855E-06
7.049426E+03	2.929456E-04	5.827661E-06
7.059411E+03	2.948770E-04	5.867102E-06
7.069396E+03	2.971933E-04	5.914249E-06
7.079381E+03	3.000479E-04	5.972160E-06
7.089366E+03	3.037715E-04	6.047422E-06
7.099351E+03	3.085923E-04	6.144594E-06
7.109336E+03	3.147412E-04	6.268285E-06
7.119321E+03	3.225605E-04	6.425333E-06
7.129306E+03	3.321458E-04	6.617667E-06
7.139291E+03	3.436838E-04	6.849029E-06
7.149276E+03	3.570814E-04	7.117595E-06
7.159261E+03	3.720729E-04	7.418093E-06
7.169246E+03	3.883719E-04	7.744841E-06
7.179231E+03	4.052917E-04	8.084165E-06
7.189216E+03	4.222250E-04	8.423960E-06
7.199201E+03	4.382394E-04	8.745625E-06
7.209186E+03	4.526541E-04	9.035562E-06
7.219171E+03	4.646350E-04	9.277097E-06
7.229156E+03	4.738154E-04	9.462873E-06
7.239141E+03	4.798133E-04	9.585217E-06
7.249126E+03	4.827934E-04	9.647370E-06
7.259111E+03	4.828640E-04	9.651453E-06
7.269096E+03	4.805655E-04	9.608215E-06
7.279081E+03	4.762097E-04	9.523859E-06
7.289066E+03	4.702984E-04	9.408382E-06
7.299051E+03	4.632474E-04	9.270077E-06
7.309036E+03	4.551653E-04	9.111095E-06
7.319021E+03	4.463406E-04	8.937193E-06
7.329006E+03	4.367246E-04	8.747378E-06
7.338992E+03	4.264348E-04	8.543985E-06
7.348977E+03	4.155824E-04	8.329230E-06
7.358962E+03	4.041190E-04	8.102128E-06
7.368947E+03	3.922292E-04	7.866366E-06
7.378932E+03	3.801405E-04	7.626494E-06
7.388917E+03	3.679478E-04	7.384410E-06
7.398902E+03	3.559324E-04	7.145755E-06
7.408887E+03	3.443027E-04	6.914718E-06
7.418872E+03	3.332790E-04	6.695725E-06
7.428857E+03	3.228819E-04	6.489200E-06
7.438842E+03	3.132320E-04	6.297583E-06
7.448827E+03	3.043549E-04	6.121398E-06
7.458812E+03	2.962436E-04	5.960522E-06
7.468797E+03	2.889154E-04	5.815314E-06
7.478782E+03	2.822488E-04	5.683347E-06
7.488767E+03	2.762503E-04	5.564766E-06
7.498752E+03	2.708818E-04	5.458816E-06
7.508737E+03	2.661059E-04	5.364756E-06
7.518722E+03	2.618858E-04	5.281859E-06
7.528707E+03	2.582248E-04	5.210201E-06
7.538692E+03	2.550101E-04	5.147522E-06
7.548677E+03	2.522426E-04	5.093849E-06
7.558662E+03	2.498785E-04	5.048308E-06
7.568647E+03	2.478664E-04	5.009871E-06
7.578632E+03	2.461484E-04	4.977375E-06
7.588617E+03	2.446620E-04	4.949565E-06
7.598602E+03	2.433437E-04	4.925159E-06
7.608587E+03	2.421312E-04	4.902904E-06
7.618572E+03	2.409670E-04	4.881633E-06
7.628557E+03	2.398012E-04	4.860341E-06
7.638542E+03	2.385968E-04	4.838276E-06
7.648527E+03	2.373348E-04	4.815049E-06
7.658512E+03	2.360204E-04	4.790765E-06
7.668497E+03	2.346869E-04	4.766099E-06
7.678482E+03	2.333946E-04	4.742275E-06
7.688467E+03	2.322205E-04	4.720860E-06
7.698452E+03	2.312038E-04	4.702655E-06
7.708437E+03	2.304623E-04	4.690061E-06
7.718422E+03	2.299695E-04	4.682550E-06
7.728407E+03	2.296919E-04	4.679445E-06
7.738392E+03	2.295639E-04	4.679418E-06
7.748377E+03	2.295020E-04	4.680770E-06
