#wls	flux	fluxerr
1.600000E+03	1.866416E-17	4.718235E-19
1.640000E+03	1.880589E-17	4.747351E-19
1.680000E+03	1.894899E-17	4.776537E-19
1.720000E+03	1.910012E-17	4.807465E-19
1.760000E+03	1.925122E-17	4.838091E-19
1.800000E+03	1.940529E-17	4.869161E-19
1.840000E+03	1.956175E-17	4.900515E-19
1.880000E+03	1.972776E-17	4.933935E-19
1.920000E+03	1.989170E-17	4.966500E-19
1.960000E+03	2.006517E-17	5.001094E-19
2.000000E+03	2.024495E-17	5.036894E-19
2.040000E+03	2.043220E-17	5.074169E-19
2.080000E+03	2.063267E-17	5.114327E-19
2.120000E+03	2.084514E-17	5.157033E-19
2.160000E+03	2.108097E-17	5.205068E-19
2.200000E+03	2.134061E-17	5.258493E-19
2.240000E+03	2.162918E-17	5.318522E-19
2.280000E+03	2.195659E-17	5.387525E-19
2.320000E+03	2.232938E-17	5.467027E-19
2.360000E+03	2.275457E-17	5.558651E-19
2.400000E+03	2.324370E-17	5.665104E-19
2.440000E+03	2.380032E-17	5.787122E-19
2.480000E+03	2.444060E-17	5.928482E-19
2.520000E+03	2.517248E-17	6.090929E-19
2.560000E+03	2.599933E-17	6.275083E-19
2.600000E+03	2.693721E-17	6.484594E-19
2.640000E+03	2.799314E-17	6.720897E-19
2.680000E+03	2.917789E-17	6.986301E-19
2.720000E+03	3.050136E-17	7.282859E-19
2.760000E+03	3.196709E-17	7.611080E-19
2.800000E+03	3.358091E-17	7.971990E-19
2.840000E+03	3.535588E-17	8.368300E-19
2.880000E+03	3.728068E-17	8.796910E-19
2.920000E+03	3.935933E-17	9.258358E-19
2.960000E+03	4.157925E-17	9.749253E-19
3.000000E+03	4.393190E-17	1.026718E-18
3.010000E+03	4.453642E-17	1.039982E-18
3.020000E+03	4.515104E-17	1.053453E-18
3.030000E+03	4.576935E-17	1.066982E-18
3.040000E+03	4.639070E-17	1.080554E-18
3.050000E+03	4.702040E-17	1.094290E-18
3.060000E+03	4.765788E-17	1.108179E-18
3.070000E+03	4.830261E-17	1.122206E-18
3.080000E+03	4.894802E-17	1.136218E-18
3.090000E+03	4.959351E-17	1.150201E-18
3.100000E+03	5.025073E-17	1.164426E-18
3.110000E+03	5.090714E-17	1.178601E-18
3.120000E+03	5.156852E-17	1.192859E-18
3.130000E+03	5.224079E-17	1.207336E-18
3.140000E+03	5.291162E-17	1.221748E-18
3.150000E+03	5.358721E-17	1.236236E-18
3.160000E+03	5.426783E-17	1.250808E-18
3.170000E+03	5.496017E-17	1.265616E-18
3.180000E+03	5.565870E-17	1.280532E-18
3.190000E+03	5.636436E-17	1.295577E-18
3.200000E+03	5.707832E-17	1.310777E-18
3.210000E+03	5.780828E-17	1.326309E-18
3.220000E+03	5.855598E-17	1.342211E-18
3.230000E+03	5.931710E-17	1.358382E-18
3.240000E+03	6.009378E-17	1.374871E-18
3.250000E+03	6.090107E-17	1.392020E-18
3.260000E+03	6.172887E-17	1.409596E-18
3.270000E+03	6.258615E-17	1.427804E-18
3.280000E+03	6.347566E-17	1.446701E-18
3.290000E+03	6.440649E-17	1.466495E-18
3.300000E+03	6.536852E-17	1.486951E-18
3.310000E+03	6.637704E-17	1.508414E-18
3.320000E+03	6.742792E-17	1.530788E-18
3.330000E+03	6.852962E-17	1.554261E-18
3.340000E+03	6.967731E-17	1.578720E-18
3.350000E+03	7.087213E-17	1.604187E-18
3.360000E+03	7.212786E-17	1.630970E-18
3.370000E+03	7.343159E-17	1.658773E-18
3.380000E+03	7.479605E-17	1.687880E-18
3.390000E+03	7.620697E-17	1.717965E-18
3.400000E+03	7.767591E-17	1.749284E-18
3.410000E+03	7.919386E-17	1.781630E-18
3.420000E+03	8.075778E-17	1.814930E-18
3.430000E+03	8.237077E-17	1.849252E-18
3.440000E+03	8.402188E-17	1.884345E-18
3.450000E+03	8.572002E-17	1.920405E-18
3.460000E+03	8.744636E-17	1.957009E-18
3.470000E+03	8.920219E-17	1.994181E-18
3.480000E+03	9.098849E-17	2.031941E-18
3.490000E+03	9.279179E-17	2.069987E-18
3.500000E+03	9.460552E-17	2.108169E-18
3.510000E+03	9.642995E-17	2.146493E-18
3.520000E+03	9.825884E-17	2.184819E-18
3.530000E+03	1.000792E-16	2.222857E-18
3.540000E+03	1.018997E-16	2.260800E-18
3.550000E+03	1.037087E-16	2.298389E-18
3.560000E+03	1.055020E-16	2.335532E-18
3.570000E+03	1.072764E-16	2.372158E-18
3.580000E+03	1.090436E-16	2.408526E-18
3.590000E+03	1.107876E-16	2.444284E-18
3.600000E+03	1.125143E-16	2.479565E-18
3.610000E+03	1.142238E-16	2.514368E-18
3.620000E+03	1.159235E-16	2.548860E-18
3.630000E+03	1.176010E-16	2.582768E-18
3.640000E+03	1.192796E-16	2.616603E-18
3.650000E+03	1.209488E-16	2.650134E-18
3.660000E+03	1.226265E-16	2.683755E-18
3.670000E+03	1.243042E-16	2.717281E-18
3.680000E+03	1.260024E-16	2.751153E-18
3.690000E+03	1.277215E-16	2.785383E-18
3.700000E+03	1.294775E-16	2.820315E-18
3.710000E+03	1.312803E-16	2.856159E-18
3.720000E+03	1.331410E-16	2.893158E-18
3.730000E+03	1.350657E-16	2.931435E-18
3.740000E+03	1.370881E-16	2.971715E-18
3.750000E+03	1.392029E-16	3.013877E-18
3.760000E+03	1.414456E-16	3.058676E-18
3.770000E+03	1.438188E-16	3.106164E-18
3.780000E+03	1.463451E-16	3.156814E-18
3.790000E+03	1.490472E-16	3.211101E-18
3.800000E+03	1.519333E-16	3.269190E-18
3.810000E+03	1.550179E-16	3.331372E-18
3.820000E+03	1.583204E-16	3.398051E-18
3.830000E+03	1.618526E-16	3.469459E-18
3.840000E+03	1.656232E-16	3.545763E-18
3.850000E+03	1.696304E-16	3.626905E-18
3.860000E+03	1.738870E-16	3.713134E-18
3.870000E+03	1.783860E-16	3.804285E-18
3.880000E+03	1.831065E-16	3.899886E-18
3.890000E+03	1.880260E-16	3.999442E-18
3.900000E+03	1.931275E-16	4.102572E-18
3.910000E+03	1.983586E-16	4.208150E-18
3.920000E+03	2.036797E-16	4.315324E-18
3.930000E+03	2.090384E-16	4.422974E-18
3.940000E+03	2.143781E-16	4.529902E-18
3.950000E+03	2.196399E-16	4.634865E-18
3.960000E+03	2.247720E-16	4.736776E-18
3.970000E+03	2.297103E-16	4.834296E-18
3.980000E+03	2.344011E-16	4.926311E-18
3.990000E+03	2.387949E-16	5.011803E-18
4.000000E+03	2.428543E-16	5.090012E-18
4.010000E+03	2.465264E-16	5.159860E-18
4.020000E+03	2.497934E-16	5.221005E-18
4.030000E+03	2.526312E-16	5.272981E-18
4.040000E+03	2.550115E-16	5.315234E-18
4.050000E+03	2.569375E-16	5.347870E-18
4.060000E+03	2.584237E-16	5.371230E-18
4.070000E+03	2.594758E-16	5.385469E-18
4.080000E+03	2.601236E-16	5.391245E-18
4.090000E+03	2.604120E-16	5.389522E-18
4.100000E+03	2.603851E-16	5.381244E-18
4.110000E+03	2.600772E-16	5.367146E-18
4.120000E+03	2.595411E-16	5.348341E-18
4.130000E+03	2.588137E-16	5.325612E-18
4.140000E+03	2.579393E-16	5.299885E-18
4.150000E+03	2.569395E-16	5.271613E-18
4.160000E+03	2.558469E-16	5.241481E-18
4.170000E+03	2.546782E-16	5.209839E-18
4.180000E+03	2.534458E-16	5.176944E-18
4.190000E+03	2.521686E-16	5.143191E-18
4.200000E+03	2.508468E-16	5.108585E-18
4.210000E+03	2.494886E-16	5.073302E-18
4.220000E+03	2.480956E-16	5.037376E-18
4.230000E+03	2.466742E-16	5.000940E-18
4.240000E+03	2.452263E-16	4.964035E-18
4.250000E+03	2.437555E-16	4.926740E-18
4.260000E+03	2.422712E-16	4.889244E-18
4.270000E+03	2.407748E-16	4.851577E-18
4.280000E+03	2.392722E-16	4.813863E-18
4.290000E+03	2.377742E-16	4.776315E-18
4.300000E+03	2.362874E-16	4.739071E-18
4.310000E+03	2.348119E-16	4.702127E-18
4.320000E+03	2.333661E-16	4.665852E-18
4.330000E+03	2.319555E-16	4.630358E-18
4.340000E+03	2.305980E-16	4.595993E-18
4.350000E+03	2.293146E-16	4.563174E-18
4.360000E+03	2.281221E-16	4.532225E-18
4.370000E+03	2.270459E-16	4.503645E-18
4.380000E+03	2.261093E-16	4.477882E-18
4.390000E+03	2.253347E-16	4.455369E-18
4.400000E+03	2.247403E-16	4.436448E-18
4.410000E+03	2.243451E-16	4.421478E-18
4.420000E+03	2.241655E-16	4.410761E-18
4.430000E+03	2.242147E-16	4.404535E-18
4.440000E+03	2.244992E-16	4.402909E-18
4.450000E+03	2.250280E-16	4.406033E-18
4.460000E+03	2.258035E-16	4.413932E-18
4.470000E+03	2.268334E-16	4.426732E-18
4.480000E+03	2.281187E-16	4.444426E-18
4.490000E+03	2.296595E-16	4.466994E-18
4.500000E+03	2.314508E-16	4.494312E-18
4.510000E+03	2.334799E-16	4.526109E-18
4.520000E+03	2.357227E-16	4.561895E-18
4.530000E+03	2.381510E-16	4.601103E-18
4.540000E+03	2.407271E-16	4.642989E-18
4.550000E+03	2.433975E-16	4.686507E-18
4.560000E+03	2.461073E-16	4.730592E-18
4.570000E+03	2.487899E-16	4.773964E-18
4.580000E+03	2.513828E-16	4.815425E-18
4.590000E+03	2.538182E-16	4.853687E-18
4.600000E+03	2.560425E-16	4.887744E-18
4.610000E+03	2.579976E-16	4.916507E-18
4.620000E+03	2.596479E-16	4.939330E-18
4.630000E+03	2.609572E-16	4.955549E-18
4.640000E+03	2.619127E-16	4.964962E-18
4.650000E+03	2.625018E-16	4.967362E-18
4.660000E+03	2.627246E-16	4.962787E-18
4.670000E+03	2.625781E-16	4.951219E-18
4.680000E+03	2.620649E-16	4.932746E-18
4.690000E+03	2.611930E-16	4.907552E-18
4.700000E+03	2.599658E-16	4.875739E-18
4.710000E+03	2.583968E-16	4.837597E-18
4.720000E+03	2.564956E-16	4.793337E-18
4.730000E+03	2.542874E-16	4.743468E-18
4.740000E+03	2.518018E-16	4.688569E-18
4.750000E+03	2.490715E-16	4.629278E-18
4.760000E+03	2.461337E-16	4.566310E-18
4.770000E+03	2.430430E-16	4.500699E-18
4.780000E+03	2.398459E-16	4.433320E-18
4.790000E+03	2.366060E-16	4.365358E-18
4.800000E+03	2.333866E-16	4.297984E-18
4.810000E+03	2.302563E-16	4.232458E-18
4.820000E+03	2.272934E-16	4.170209E-18
4.830000E+03	2.245714E-16	4.112564E-18
4.840000E+03	2.221676E-16	4.060912E-18
4.850000E+03	2.201585E-16	4.016618E-18
4.860000E+03	2.186199E-16	3.981021E-18
4.870000E+03	2.176159E-16	3.955239E-18
4.880000E+03	2.172042E-16	3.940262E-18
4.890000E+03	2.174311E-16	3.936870E-18
4.900000E+03	2.183300E-16	3.945599E-18
4.910000E+03	2.199136E-16	3.966608E-18
4.920000E+03	2.221868E-16	3.999915E-18
4.930000E+03	2.251243E-16	4.044996E-18
4.940000E+03	2.286853E-16	4.101048E-18
4.950000E+03	2.328013E-16	4.166778E-18
4.960000E+03	2.373715E-16	4.240333E-18
4.970000E+03	2.422765E-16	4.319534E-18
4.980000E+03	2.473740E-16	4.401813E-18
4.990000E+03	2.524937E-16	4.484128E-18
5.000000E+03	2.574750E-16	4.563628E-18
5.010000E+03	2.621437E-16	4.637250E-18
5.020000E+03	2.663570E-16	4.702502E-18
5.030000E+03	2.699917E-16	4.757263E-18
5.040000E+03	2.729652E-16	4.800139E-18
5.050000E+03	2.752371E-16	4.830494E-18
5.060000E+03	2.768109E-16	4.848462E-18
5.070000E+03	2.777299E-16	4.854873E-18
5.080000E+03	2.780697E-16	4.851116E-18
5.090000E+03	2.779290E-16	4.838969E-18
5.100000E+03	2.774177E-16	4.820394E-18
5.110000E+03	2.766435E-16	4.797297E-18
5.120000E+03	2.757147E-16	4.771583E-18
5.130000E+03	2.747142E-16	4.744697E-18
5.140000E+03	2.737196E-16	4.717986E-18
5.150000E+03	2.727798E-16	4.692294E-18
5.160000E+03	2.719383E-16	4.668360E-18
5.170000E+03	2.712279E-16	4.646735E-18
5.180000E+03	2.706661E-16	4.627709E-18
5.190000E+03	2.702782E-16	4.611695E-18
5.200000E+03	2.700757E-16	4.598874E-18
5.210000E+03	2.700805E-16	4.589599E-18
5.220000E+03	2.703035E-16	4.584036E-18
5.230000E+03	2.707553E-16	4.582339E-18
5.240000E+03	2.714408E-16	4.584570E-18
5.250000E+03	2.723587E-16	4.590685E-18
5.260000E+03	2.734999E-16	4.600504E-18
5.270000E+03	2.748493E-16	4.613755E-18
5.280000E+03	2.763782E-16	4.629938E-18
5.290000E+03	2.780533E-16	4.648475E-18
5.300000E+03	2.798379E-16	4.668742E-18
5.310000E+03	2.816857E-16	4.689959E-18
5.320000E+03	2.835527E-16	4.711387E-18
5.330000E+03	2.853976E-16	4.732345E-18
5.340000E+03	2.871853E-16	4.752253E-18
5.350000E+03	2.888934E-16	4.770748E-18
5.360000E+03	2.905046E-16	4.787557E-18
5.370000E+03	2.920154E-16	4.802632E-18
5.380000E+03	2.934319E-16	4.816085E-18
5.390000E+03	2.947674E-16	4.828145E-18
5.400000E+03	2.960466E-16	4.839224E-18
5.410000E+03	2.972937E-16	4.849727E-18
5.420000E+03	2.985526E-16	4.860371E-18
5.430000E+03	2.998778E-16	4.872044E-18
5.440000E+03	3.013252E-16	4.885647E-18
5.450000E+03	3.029670E-16	4.902336E-18
5.460000E+03	3.048670E-16	4.923127E-18
5.470000E+03	3.070828E-16	4.948923E-18
5.480000E+03	3.096402E-16	4.980111E-18
5.490000E+03	3.125276E-16	5.016474E-18
5.500000E+03	3.156714E-16	5.056804E-18
5.510000E+03	3.189267E-16	5.098763E-18
5.520000E+03	3.220948E-16	5.139172E-18
5.530000E+03	3.249531E-16	5.174498E-18
5.540000E+03	3.272656E-16	5.201022E-18
5.550000E+03	3.288274E-16	5.215545E-18
5.560000E+03	3.294658E-16	5.215406E-18
5.570000E+03	3.290594E-16	5.198775E-18
5.580000E+03	3.275552E-16	5.164911E-18
5.590000E+03	3.249573E-16	5.113983E-18
5.600000E+03	3.213277E-16	5.047062E-18
5.610000E+03	3.167655E-16	4.965794E-18
5.620000E+03	3.114041E-16	4.872351E-18
5.630000E+03	3.053958E-16	4.769181E-18
5.640000E+03	2.989060E-16	4.658916E-18
5.650000E+03	2.921010E-16	4.544187E-18
5.660000E+03	2.851445E-16	4.427557E-18
5.670000E+03	2.782195E-16	4.311873E-18
5.680000E+03	2.715024E-16	4.199861E-18
5.690000E+03	2.651953E-16	4.094615E-18
5.700000E+03	2.595034E-16	3.999262E-18
5.710000E+03	2.546341E-16	3.916938E-18
5.720000E+03	2.507953E-16	3.850759E-18
5.730000E+03	2.481859E-16	3.803685E-18
5.740000E+03	2.469909E-16	3.778442E-18
5.750000E+03	2.473677E-16	3.777313E-18
5.760000E+03	2.494604E-16	3.802365E-18
5.770000E+03	2.533818E-16	3.855173E-18
5.780000E+03	2.592076E-16	3.936740E-18
5.790000E+03	2.669789E-16	4.047534E-18
5.800000E+03	2.766748E-16	4.187088E-18
5.810000E+03	2.882076E-16	4.353928E-18
5.820000E+03	3.013894E-16	4.545081E-18
5.830000E+03	3.159260E-16	4.755996E-18
5.840000E+03	3.314109E-16	4.980468E-18
5.850000E+03	3.473319E-16	5.210748E-18
5.860000E+03	3.630879E-16	5.437812E-18
5.870000E+03	3.780235E-16	5.651882E-18
5.880000E+03	3.915046E-16	5.843571E-18
5.890000E+03	4.029563E-16	6.004430E-18
5.900000E+03	4.119297E-16	6.127944E-18
5.910000E+03	4.181535E-16	6.210274E-18
5.920000E+03	4.215210E-16	6.250044E-18
5.930000E+03	4.221077E-16	6.248588E-18
5.940000E+03	4.201427E-16	6.209491E-18
5.950000E+03	4.159584E-16	6.137841E-18
5.960000E+03	4.099564E-16	6.039711E-18
5.970000E+03	4.025798E-16	5.921742E-18
5.980000E+03	3.942512E-16	5.790232E-18
5.990000E+03	3.853708E-16	5.651110E-18
6.000000E+03	3.762974E-16	5.509661E-18
6.010000E+03	3.673251E-16	5.370192E-18
6.020000E+03	3.587039E-16	5.236341E-18
6.030000E+03	3.506269E-16	5.110892E-18
6.040000E+03	3.432341E-16	4.995846E-18
6.050000E+03	3.366227E-16	4.892563E-18
6.060000E+03	3.308582E-16	4.801944E-18
6.070000E+03	3.259686E-16	4.724336E-18
6.080000E+03	3.219585E-16	4.659752E-18
6.090000E+03	3.188090E-16	4.607860E-18
6.100000E+03	3.164870E-16	4.568133E-18
6.110000E+03	3.149462E-16	4.539854E-18
6.120000E+03	3.141230E-16	4.522062E-18
6.130000E+03	3.139507E-16	4.513757E-18
6.140000E+03	3.143561E-16	4.513853E-18
6.150000E+03	3.152566E-16	4.521137E-18
6.160000E+03	3.165731E-16	4.534453E-18
6.170000E+03	3.182286E-16	4.552676E-18
6.180000E+03	3.201425E-16	4.574644E-18
6.190000E+03	3.222354E-16	4.599211E-18
6.200000E+03	3.244264E-16	4.625221E-18
6.210000E+03	3.266127E-16	4.651208E-18
6.220000E+03	3.286711E-16	4.675422E-18
6.230000E+03	3.304637E-16	4.695917E-18
6.240000E+03	3.318465E-16	4.710661E-18
6.250000E+03	3.326994E-16	4.717969E-18
6.260000E+03	3.329399E-16	4.716696E-18
6.270000E+03	3.325296E-16	4.706324E-18
6.280000E+03	3.314708E-16	4.686909E-18
6.290000E+03	3.298060E-16	4.659076E-18
6.300000E+03	3.276207E-16	4.624050E-18
6.310000E+03	3.250460E-16	4.583696E-18
6.320000E+03	3.222338E-16	4.540167E-18
6.330000E+03	3.193631E-16	4.495985E-18
6.340000E+03	3.166141E-16	4.453684E-18
6.350000E+03	3.141741E-16	4.415887E-18
6.360000E+03	3.121915E-16	4.384665E-18
6.370000E+03	3.107997E-16	4.361873E-18
6.380000E+03	3.100755E-16	4.348566E-18
6.390000E+03	3.100469E-16	4.345114E-18
6.400000E+03	3.107016E-16	4.351324E-18
6.410000E+03	3.119730E-16	4.366242E-18
6.420000E+03	3.137483E-16	4.388274E-18
6.430000E+03	3.158970E-16	4.415583E-18
6.440000E+03	3.182580E-16	4.445909E-18
6.450000E+03	3.206772E-16	4.477096E-18
6.460000E+03	3.229987E-16	4.506967E-18
6.470000E+03	3.250891E-16	4.533665E-18
6.480000E+03	3.268441E-16	4.555743E-18
6.490000E+03	3.281923E-16	4.572214E-18
6.500000E+03	3.291143E-16	4.582814E-18
6.510000E+03	3.296246E-16	4.587755E-18
6.520000E+03	3.297845E-16	4.587898E-18
6.530000E+03	3.296974E-16	4.584686E-18
6.540000E+03	3.294911E-16	4.579897E-18
6.550000E+03	3.293066E-16	4.575493E-18
6.560000E+03	3.292818E-16	4.573387E-18
6.570000E+03	3.295415E-16	4.575309E-18
6.580000E+03	3.301609E-16	4.582298E-18
6.590000E+03	3.311861E-16	4.594986E-18
6.600000E+03	3.325941E-16	4.613050E-18
6.610000E+03	3.343233E-16	4.635629E-18
6.620000E+03	3.362624E-16	4.661180E-18
6.630000E+03	3.382674E-16	4.687703E-18
6.640000E+03	3.401612E-16	4.712744E-18
6.650000E+03	3.417658E-16	4.733841E-18
6.660000E+03	3.428869E-16	4.748306E-18
6.670000E+03	3.433700E-16	4.754003E-18
6.680000E+03	3.430750E-16	4.749000E-18
6.690000E+03	3.419048E-16	4.731958E-18
6.700000E+03	3.398064E-16	4.702149E-18
6.710000E+03	3.367729E-16	4.659482E-18
6.720000E+03	3.328410E-16	4.604468E-18
6.730000E+03	3.280900E-16	4.538208E-18
6.740000E+03	3.226208E-16	4.462095E-18
6.750000E+03	3.165725E-16	4.378055E-18
6.760000E+03	3.100892E-16	4.288077E-18
6.770000E+03	3.033262E-16	4.194307E-18
6.780000E+03	2.964397E-16	4.098901E-18
6.790000E+03	2.895811E-16	4.003948E-18
6.800000E+03	2.828930E-16	3.911416E-18
6.810000E+03	2.765105E-16	3.823168E-18
6.820000E+03	2.705497E-16	3.740806E-18
6.830000E+03	2.651183E-16	3.665817E-18
6.840000E+03	2.603132E-16	3.599535E-18
6.850000E+03	2.562207E-16	3.543154E-18
6.860000E+03	2.529185E-16	3.497750E-18
6.870000E+03	2.504758E-16	3.464276E-18
6.880000E+03	2.489533E-16	3.443577E-18
6.890000E+03	2.484054E-16	3.436409E-18
6.900000E+03	2.488688E-16	3.443282E-18
6.910000E+03	2.503802E-16	3.464712E-18
6.920000E+03	2.529510E-16	3.500865E-18
6.930000E+03	2.565874E-16	3.551834E-18
6.940000E+03	2.612638E-16	3.617278E-18
6.950000E+03	2.669290E-16	3.696497E-18
6.960000E+03	2.734967E-16	3.788313E-18
6.970000E+03	2.808398E-16	3.890975E-18
6.980000E+03	2.887857E-16	4.002105E-18
6.990000E+03	2.971166E-16	4.118696E-18
7.000000E+03	3.055743E-16	4.237180E-18
7.010000E+03	3.138710E-16	4.353573E-18
7.020000E+03	3.217041E-16	4.463681E-18
7.030000E+03	3.287775E-16	4.563394E-18
7.040000E+03	3.348232E-16	4.648985E-18
7.050000E+03	3.396255E-16	4.717451E-18
7.060000E+03	3.430224E-16	4.766522E-18
7.070000E+03	3.449405E-16	4.795161E-18
7.080000E+03	3.453869E-16	4.803443E-18
7.090000E+03	3.444366E-16	4.792385E-18
7.100000E+03	3.422306E-16	4.763927E-18
7.110000E+03	3.389750E-16	4.720912E-18
7.120000E+03	3.348971E-16	4.666486E-18
7.130000E+03	3.302451E-16	4.604087E-18
7.140000E+03	3.252675E-16	4.537171E-18
7.150000E+03	3.201986E-16	4.468993E-18
7.160000E+03	3.152472E-16	4.402467E-18
7.170000E+03	3.105927E-16	4.340098E-18
7.180000E+03	3.063643E-16	4.283698E-18
7.190000E+03	3.026656E-16	4.234727E-18
7.200000E+03	2.995484E-16	4.193921E-18
7.210000E+03	2.970344E-16	4.161598E-18
7.220000E+03	2.951023E-16	4.137479E-18
7.230000E+03	2.937065E-16	4.120939E-18
7.240000E+03	2.927778E-16	4.111023E-18
7.250000E+03	2.922339E-16	4.106591E-18
7.260000E+03	2.919750E-16	4.106252E-18
7.270000E+03	2.919037E-16	4.108647E-18
7.280000E+03	2.919207E-16	4.112385E-18
7.290000E+03	2.919256E-16	4.116055E-18
7.300000E+03	2.918488E-16	4.118674E-18
7.310000E+03	2.916206E-16	4.119259E-18
7.320000E+03	2.911895E-16	4.117077E-18
7.330000E+03	2.905310E-16	4.111771E-18
7.340000E+03	2.896355E-16	4.103200E-18
7.350000E+03	2.885080E-16	4.091425E-18
7.360000E+03	2.871800E-16	4.076881E-18
7.370000E+03	2.856845E-16	4.060030E-18
7.380000E+03	2.840671E-16	4.041513E-18
7.390000E+03	2.823827E-16	4.022105E-18
7.400000E+03	2.806771E-16	4.002456E-18
7.410000E+03	2.790058E-16	3.983357E-18
7.420000E+03	2.774204E-16	3.965547E-18
7.430000E+03	2.759589E-16	3.949573E-18
7.440000E+03	2.746563E-16	3.935944E-18
7.450000E+03	2.735438E-16	3.925116E-18
7.460000E+03	2.726347E-16	3.917291E-18
7.470000E+03	2.719459E-16	3.912723E-18
7.480000E+03	2.714873E-16	3.911570E-18
7.490000E+03	2.712506E-16	3.913726E-18
7.500000E+03	2.712313E-16	3.919142E-18
7.510000E+03	2.714143E-16	3.927613E-18
7.520000E+03	2.717738E-16	3.938782E-18
7.530000E+03	2.722814E-16	3.952249E-18
7.540000E+03	2.729062E-16	3.967579E-18
7.550000E+03	2.736057E-16	3.984159E-18
7.560000E+03	2.743374E-16	4.001381E-18
7.570000E+03	2.750580E-16	4.018608E-18
7.580000E+03	2.757251E-16	4.035220E-18
7.590000E+03	2.762989E-16	4.050628E-18
7.600000E+03	2.767448E-16	4.064316E-18
7.610000E+03	2.770311E-16	4.075806E-18
7.620000E+03	2.771450E-16	4.084895E-18
7.630000E+03	2.770817E-16	4.091495E-18
7.640000E+03	2.768558E-16	4.095807E-18
7.650000E+03	2.764846E-16	4.098068E-18
7.660000E+03	2.759848E-16	4.098517E-18
7.670000E+03	2.753794E-16	4.097477E-18
7.680000E+03	2.746943E-16	4.095326E-18
7.690000E+03	2.739453E-16	4.092288E-18
7.700000E+03	2.731477E-16	4.088583E-18
7.710000E+03	2.723145E-16	4.084400E-18
7.720000E+03	2.714455E-16	4.079727E-18
7.730000E+03	2.705415E-16	4.074573E-18
7.740000E+03	2.695904E-16	4.068748E-18
7.750000E+03	2.685798E-16	4.062055E-18
7.760000E+03	2.674976E-16	4.054306E-18
