#wls	flux	fluxerr
1.600000E+03	1.388600E-17	1.103093E-18
1.640000E+03	1.414041E-17	1.116024E-18
1.680000E+03	1.440568E-17	1.129380E-18
1.720000E+03	1.468748E-17	1.143576E-18
1.760000E+03	1.498391E-17	1.158426E-18
1.800000E+03	1.529574E-17	1.173952E-18
1.840000E+03	1.562661E-17	1.190391E-18
1.880000E+03	1.597772E-17	1.207788E-18
1.920000E+03	1.635051E-17	1.226199E-18
1.960000E+03	1.674667E-17	1.245696E-18
2.000000E+03	1.716817E-17	1.266363E-18
2.040000E+03	1.762034E-17	1.288526E-18
2.080000E+03	1.810911E-17	1.312535E-18
2.120000E+03	1.863174E-17	1.338102E-18
2.160000E+03	1.919814E-17	1.365843E-18
2.200000E+03	1.981275E-17	1.395956E-18
2.240000E+03	2.048046E-17	1.428659E-18
2.280000E+03	2.120668E-17	1.464184E-18
2.320000E+03	2.200416E-17	1.503247E-18
2.360000E+03	2.287607E-17	1.545872E-18
2.400000E+03	2.383283E-17	1.592553E-18
2.440000E+03	2.488545E-17	1.643786E-18
2.480000E+03	2.603762E-17	1.699547E-18
2.520000E+03	2.730834E-17	1.760781E-18
2.560000E+03	2.869686E-17	1.827104E-18
2.600000E+03	3.022166E-17	1.899336E-18
2.640000E+03	3.188364E-17	1.977136E-18
2.680000E+03	3.369882E-17	2.061073E-18
2.720000E+03	3.566275E-17	2.150418E-18
2.760000E+03	3.778005E-17	2.244985E-18
2.800000E+03	4.004508E-17	2.343960E-18
2.840000E+03	4.244417E-17	2.446078E-18
2.880000E+03	4.495328E-17	2.549527E-18
2.920000E+03	4.754605E-17	2.652447E-18
2.960000E+03	5.016425E-17	2.751326E-18
3.000000E+03	5.274710E-17	2.842734E-18
3.010000E+03	5.337569E-17	2.863799E-18
3.020000E+03	5.399745E-17	2.884157E-18
3.030000E+03	5.460481E-17	2.903411E-18
3.040000E+03	5.520157E-17	2.921771E-18
3.050000E+03	5.578572E-17	2.939137E-18
3.060000E+03	5.634938E-17	2.955105E-18
3.070000E+03	5.689613E-17	2.969875E-18
3.080000E+03	5.742369E-17	2.983342E-18
3.090000E+03	5.792977E-17	2.995399E-18
3.100000E+03	5.840618E-17	3.005641E-18
3.110000E+03	5.885626E-17	3.014260E-18
3.120000E+03	5.928334E-17	3.021444E-18
3.130000E+03	5.967345E-17	3.026502E-18
3.140000E+03	6.002990E-17	3.029629E-18
3.150000E+03	6.035041E-17	3.030734E-18
3.160000E+03	6.063846E-17	3.030018E-18
3.170000E+03	6.088079E-17	3.026847E-18
3.180000E+03	6.108725E-17	3.021742E-18
3.190000E+03	6.125132E-17	3.014409E-18
3.200000E+03	6.137313E-17	3.004888E-18
3.210000E+03	6.145402E-17	2.993276E-18
3.220000E+03	6.150231E-17	2.980007E-18
3.230000E+03	6.152243E-17	2.965321E-18
3.240000E+03	6.150997E-17	2.949027E-18
3.250000E+03	6.148859E-17	2.932281E-18
3.260000E+03	6.145142E-17	2.914764E-18
3.270000E+03	6.142362E-17	2.897675E-18
3.280000E+03	6.140463E-17	2.880982E-18
3.290000E+03	6.140913E-17	2.865363E-18
3.300000E+03	6.144610E-17	2.851219E-18
3.310000E+03	6.151892E-17	2.838679E-18
3.320000E+03	6.164483E-17	2.828509E-18
3.330000E+03	6.182071E-17	2.820526E-18
3.340000E+03	6.206195E-17	2.815388E-18
3.350000E+03	6.236404E-17	2.812842E-18
3.360000E+03	6.274088E-17	2.813464E-18
3.370000E+03	6.319158E-17	2.817157E-18
3.380000E+03	6.372406E-17	2.824214E-18
3.390000E+03	6.433154E-17	2.834273E-18
3.400000E+03	6.502953E-17	2.847953E-18
3.410000E+03	6.580428E-17	2.864585E-18
3.420000E+03	6.666816E-17	2.884645E-18
3.430000E+03	6.760356E-17	2.907304E-18
3.440000E+03	6.861837E-17	2.932844E-18
3.450000E+03	6.969948E-17	2.960645E-18
3.460000E+03	7.083150E-17	2.990005E-18
3.470000E+03	7.200615E-17	3.020538E-18
3.480000E+03	7.321284E-17	3.051767E-18
3.490000E+03	7.442473E-17	3.082557E-18
3.500000E+03	7.563370E-17	3.112570E-18
3.510000E+03	7.681978E-17	3.140992E-18
3.520000E+03	7.797155E-17	3.167378E-18
3.530000E+03	7.908685E-17	3.191670E-18
3.540000E+03	8.015808E-17	3.213591E-18
3.550000E+03	8.119033E-17	3.233381E-18
3.560000E+03	8.218552E-17	3.251148E-18
3.570000E+03	8.314073E-17	3.266806E-18
3.580000E+03	8.406570E-17	3.280769E-18
3.590000E+03	8.494858E-17	3.292603E-18
3.600000E+03	8.579351E-17	3.302501E-18
3.610000E+03	8.658314E-17	3.309833E-18
3.620000E+03	8.731721E-17	3.314633E-18
3.630000E+03	8.798072E-17	3.316383E-18
3.640000E+03	8.856849E-17	3.314946E-18
3.650000E+03	8.906770E-17	3.309908E-18
3.660000E+03	8.947692E-17	3.301288E-18
3.670000E+03	8.978835E-17	3.288874E-18
3.680000E+03	9.001046E-17	3.273055E-18
3.690000E+03	9.013698E-17	3.253677E-18
3.700000E+03	9.017801E-17	3.231181E-18
3.710000E+03	9.014670E-17	3.206104E-18
3.720000E+03	9.004719E-17	3.178651E-18
3.730000E+03	8.990448E-17	3.149756E-18
3.740000E+03	8.973970E-17	3.120188E-18
3.750000E+03	8.957122E-17	3.090603E-18
3.760000E+03	8.944259E-17	3.062495E-18
3.770000E+03	8.938267E-17	3.036817E-18
3.780000E+03	8.943625E-17	3.015025E-18
3.790000E+03	8.964356E-17	2.998378E-18
3.800000E+03	9.005741E-17	2.988510E-18
3.810000E+03	9.071572E-17	2.986509E-18
3.820000E+03	9.166941E-17	2.993848E-18
3.830000E+03	9.295537E-17	3.011496E-18
3.840000E+03	9.460984E-17	3.040359E-18
3.850000E+03	9.666715E-17	3.081249E-18
3.860000E+03	9.914764E-17	3.134501E-18
3.870000E+03	1.020671E-16	3.200288E-18
3.880000E+03	1.054358E-16	3.278594E-18
3.890000E+03	1.092490E-16	3.368932E-18
3.900000E+03	1.134856E-16	3.470333E-18
3.910000E+03	1.181184E-16	3.581653E-18
3.920000E+03	1.231024E-16	3.701250E-18
3.930000E+03	1.283740E-16	3.826976E-18
3.940000E+03	1.338702E-16	3.956764E-18
3.950000E+03	1.395013E-16	4.087842E-18
3.960000E+03	1.451851E-16	4.217738E-18
3.970000E+03	1.508335E-16	4.343901E-18
3.980000E+03	1.563612E-16	4.463945E-18
3.990000E+03	1.616878E-16	4.575714E-18
4.000000E+03	1.667403E-16	4.677335E-18
4.010000E+03	1.714485E-16	4.767089E-18
4.020000E+03	1.757660E-16	4.843978E-18
4.030000E+03	1.796366E-16	4.906785E-18
4.040000E+03	1.830310E-16	4.955067E-18
4.050000E+03	1.859286E-16	4.988644E-18
4.060000E+03	1.883193E-16	5.007633E-18
4.070000E+03	1.902198E-16	5.012859E-18
4.080000E+03	1.916566E-16	5.005390E-18
4.090000E+03	1.926594E-16	4.986342E-18
4.100000E+03	1.932867E-16	4.957540E-18
4.110000E+03	1.935825E-16	4.920378E-18
4.120000E+03	1.936110E-16	4.876721E-18
4.130000E+03	1.934157E-16	4.827856E-18
4.140000E+03	1.930508E-16	4.775284E-18
4.150000E+03	1.925570E-16	4.720135E-18
4.160000E+03	1.919710E-16	4.663394E-18
4.170000E+03	1.913385E-16	4.606236E-18
4.180000E+03	1.906833E-16	4.549271E-18
4.190000E+03	1.900347E-16	4.493214E-18
4.200000E+03	1.894179E-16	4.438664E-18
4.210000E+03	1.888510E-16	4.386033E-18
4.220000E+03	1.883580E-16	4.335854E-18
4.230000E+03	1.879502E-16	4.288353E-18
4.240000E+03	1.876526E-16	4.244052E-18
4.250000E+03	1.874793E-16	4.203220E-18
4.260000E+03	1.874611E-16	4.166482E-18
4.270000E+03	1.876081E-16	4.133985E-18
4.280000E+03	1.879390E-16	4.106066E-18
4.290000E+03	1.884548E-16	4.082660E-18
4.300000E+03	1.891411E-16	4.063380E-18
4.310000E+03	1.899733E-16	4.047634E-18
4.320000E+03	1.909000E-16	4.034282E-18
4.330000E+03	1.918631E-16	4.022089E-18
4.340000E+03	1.927957E-16	4.009671E-18
4.350000E+03	1.936220E-16	3.995505E-18
4.360000E+03	1.942648E-16	3.978092E-18
4.370000E+03	1.946543E-16	3.956123E-18
4.380000E+03	1.947323E-16	3.928562E-18
4.390000E+03	1.944634E-16	3.894859E-18
4.400000E+03	1.938738E-16	3.855696E-18
4.410000E+03	1.930326E-16	3.812582E-18
4.420000E+03	1.920351E-16	3.767493E-18
4.430000E+03	1.909887E-16	3.722580E-18
4.440000E+03	1.899981E-16	3.679859E-18
4.450000E+03	1.891685E-16	3.641295E-18
4.460000E+03	1.886000E-16	3.608709E-18
4.470000E+03	1.883838E-16	3.583711E-18
4.480000E+03	1.886065E-16	3.567791E-18
4.490000E+03	1.893436E-16	3.562207E-18
4.500000E+03	1.906503E-16	3.567807E-18
4.510000E+03	1.925720E-16	3.585255E-18
4.520000E+03	1.951176E-16	3.614527E-18
4.530000E+03	1.982598E-16	3.654938E-18
4.540000E+03	2.019471E-16	3.705384E-18
4.550000E+03	2.060710E-16	3.763739E-18
4.560000E+03	2.104986E-16	3.827479E-18
4.570000E+03	2.150665E-16	3.893573E-18
4.580000E+03	2.195920E-16	3.958695E-18
4.590000E+03	2.239000E-16	4.019706E-18
4.600000E+03	2.278130E-16	4.073477E-18
4.610000E+03	2.311967E-16	4.117688E-18
4.620000E+03	2.339474E-16	4.150594E-18
4.630000E+03	2.359973E-16	4.171108E-18
4.640000E+03	2.373336E-16	4.179120E-18
4.650000E+03	2.379713E-16	4.175006E-18
4.660000E+03	2.379429E-16	4.159437E-18
4.670000E+03	2.373059E-16	4.133507E-18
4.680000E+03	2.361098E-16	4.098157E-18
4.690000E+03	2.344056E-16	4.054336E-18
4.700000E+03	2.322273E-16	4.002687E-18
4.710000E+03	2.296176E-16	3.944000E-18
4.720000E+03	2.265977E-16	3.878680E-18
4.730000E+03	2.232078E-16	3.807457E-18
4.740000E+03	2.194774E-16	3.730868E-18
4.750000E+03	2.154504E-16	3.649695E-18
4.760000E+03	2.111742E-16	3.564765E-18
4.770000E+03	2.067012E-16	3.476983E-18
4.780000E+03	2.020876E-16	3.387310E-18
4.790000E+03	1.973948E-16	3.296780E-18
4.800000E+03	1.926842E-16	3.206419E-18
4.810000E+03	1.880185E-16	3.117257E-18
4.820000E+03	1.834715E-16	3.030501E-18
4.830000E+03	1.791143E-16	2.947292E-18
4.840000E+03	1.750266E-16	2.868898E-18
4.850000E+03	1.712885E-16	2.796571E-18
4.860000E+03	1.679804E-16	2.731553E-18
4.870000E+03	1.651840E-16	2.675077E-18
4.880000E+03	1.629728E-16	2.628230E-18
4.890000E+03	1.614235E-16	2.592120E-18
4.900000E+03	1.606012E-16	2.567650E-18
4.910000E+03	1.605697E-16	2.555676E-18
4.920000E+03	1.613839E-16	2.556890E-18
4.930000E+03	1.630796E-16	2.571666E-18
4.940000E+03	1.656814E-16	2.600179E-18
4.950000E+03	1.691721E-16	2.641938E-18
4.960000E+03	1.735005E-16	2.695925E-18
4.970000E+03	1.785585E-16	2.760246E-18
4.980000E+03	1.841921E-16	2.832334E-18
4.990000E+03	1.901924E-16	2.908826E-18
5.000000E+03	1.963289E-16	2.986094E-18
5.010000E+03	2.023438E-16	3.060176E-18
5.020000E+03	2.080037E-16	3.127566E-18
5.030000E+03	2.130985E-16	3.185193E-18
5.040000E+03	2.174720E-16	3.230865E-18
5.050000E+03	2.210332E-16	3.263420E-18
5.060000E+03	2.237511E-16	3.282614E-18
5.070000E+03	2.256620E-16	3.289204E-18
5.080000E+03	2.268380E-16	3.284465E-18
5.090000E+03	2.273917E-16	3.270232E-18
5.100000E+03	2.274410E-16	3.248375E-18
5.110000E+03	2.271039E-16	3.220729E-18
5.120000E+03	2.264877E-16	3.188931E-18
5.130000E+03	2.256779E-16	3.154280E-18
5.140000E+03	2.247371E-16	3.117717E-18
5.150000E+03	2.237148E-16	3.079984E-18
5.160000E+03	2.226443E-16	3.041579E-18
5.170000E+03	2.215469E-16	3.002826E-18
5.180000E+03	2.204447E-16	2.964054E-18
5.190000E+03	2.193562E-16	2.925530E-18
5.200000E+03	2.183007E-16	2.887530E-18
5.210000E+03	2.172960E-16	2.850297E-18
5.220000E+03	2.163653E-16	2.814143E-18
5.230000E+03	2.155244E-16	2.779270E-18
5.240000E+03	2.147903E-16	2.745894E-18
5.250000E+03	2.141693E-16	2.714084E-18
5.260000E+03	2.136634E-16	2.683855E-18
5.270000E+03	2.132667E-16	2.655124E-18
5.280000E+03	2.129655E-16	2.627714E-18
5.290000E+03	2.127350E-16	2.601323E-18
5.300000E+03	2.125461E-16	2.575606E-18
5.310000E+03	2.123664E-16	2.550192E-18
5.320000E+03	2.121560E-16	2.524641E-18
5.330000E+03	2.118768E-16	2.498545E-18
5.340000E+03	2.114975E-16	2.471599E-18
5.350000E+03	2.109972E-16	2.443629E-18
5.360000E+03	2.103591E-16	2.414518E-18
5.370000E+03	2.095746E-16	2.384246E-18
5.380000E+03	2.086440E-16	2.352898E-18
5.390000E+03	2.075744E-16	2.320632E-18
5.400000E+03	2.063827E-16	2.287710E-18
5.410000E+03	2.050887E-16	2.254417E-18
5.420000E+03	2.037407E-16	2.221340E-18
5.430000E+03	2.024015E-16	2.189201E-18
5.440000E+03	2.011591E-16	2.158973E-18
5.450000E+03	2.001211E-16	2.131804E-18
5.460000E+03	1.994019E-16	2.108886E-18
5.470000E+03	1.991133E-16	2.091350E-18
5.480000E+03	1.993328E-16	2.079942E-18
5.490000E+03	2.000870E-16	2.074876E-18
5.500000E+03	2.013268E-16	2.075578E-18
5.510000E+03	2.029338E-16	2.080746E-18
5.520000E+03	2.047137E-16	2.088309E-18
5.530000E+03	2.064362E-16	2.095878E-18
5.540000E+03	2.078592E-16	2.100981E-18
5.550000E+03	2.087633E-16	2.101416E-18
5.560000E+03	2.089829E-16	2.095544E-18
5.570000E+03	2.084103E-16	2.082317E-18
5.580000E+03	2.070223E-16	2.061533E-18
5.590000E+03	2.048594E-16	2.033614E-18
5.600000E+03	2.020228E-16	1.999570E-18
5.610000E+03	1.986443E-16	1.960693E-18
5.620000E+03	1.948672E-16	1.918373E-18
5.630000E+03	1.908126E-16	1.873768E-18
5.640000E+03	1.865813E-16	1.827825E-18
5.650000E+03	1.822444E-16	1.781198E-18
5.660000E+03	1.778522E-16	1.734334E-18
5.670000E+03	1.734440E-16	1.687575E-18
5.680000E+03	1.690821E-16	1.641486E-18
5.690000E+03	1.648546E-16	1.596885E-18
5.700000E+03	1.608885E-16	1.554959E-18
5.710000E+03	1.573478E-16	1.517247E-18
5.720000E+03	1.544246E-16	1.485548E-18
5.730000E+03	1.523210E-16	1.461739E-18
5.740000E+03	1.512329E-16	1.447622E-18
5.750000E+03	1.513453E-16	1.444870E-18
5.760000E+03	1.528150E-16	1.454866E-18
5.770000E+03	1.557748E-16	1.478742E-18
5.780000E+03	1.603316E-16	1.517358E-18
5.790000E+03	1.665564E-16	1.571213E-18
5.800000E+03	1.744835E-16	1.640438E-18
5.810000E+03	1.840904E-16	1.724613E-18
5.820000E+03	1.952782E-16	1.822592E-18
5.830000E+03	2.078550E-16	1.932364E-18
5.840000E+03	2.215091E-16	2.050822E-18
5.850000E+03	2.357992E-16	2.173705E-18
5.860000E+03	2.501579E-16	2.295659E-18
5.870000E+03	2.639304E-16	2.410625E-18
5.880000E+03	2.764214E-16	2.512301E-18
5.890000E+03	2.869695E-16	2.594830E-18
5.900000E+03	2.950352E-16	2.653598E-18
5.910000E+03	3.002521E-16	2.685671E-18
5.920000E+03	3.024765E-16	2.690196E-18
5.930000E+03	3.017763E-16	2.668254E-18
5.940000E+03	2.984093E-16	2.622606E-18
5.950000E+03	2.927853E-16	2.557306E-18
5.960000E+03	2.853860E-16	2.476965E-18
5.970000E+03	2.767203E-16	2.386330E-18
5.980000E+03	2.672850E-16	2.289936E-18
5.990000E+03	2.575188E-16	2.191713E-18
6.000000E+03	2.477942E-16	2.094932E-18
6.010000E+03	2.384074E-16	2.002133E-18
6.020000E+03	2.295794E-16	1.915155E-18
6.030000E+03	2.214602E-16	1.835198E-18
6.040000E+03	2.141456E-16	1.762981E-18
6.050000E+03	2.076792E-16	1.698773E-18
6.060000E+03	2.020736E-16	1.642582E-18
6.070000E+03	1.973097E-16	1.594163E-18
6.080000E+03	1.933601E-16	1.553216E-18
6.090000E+03	1.901837E-16	1.519343E-18
6.100000E+03	1.877396E-16	1.492163E-18
6.110000E+03	1.859807E-16	1.471268E-18
6.120000E+03	1.848632E-16	1.456295E-18
6.130000E+03	1.843492E-16	1.446948E-18
6.140000E+03	1.844018E-16	1.442960E-18
6.150000E+03	1.850000E-16	1.444204E-18
6.160000E+03	1.861411E-16	1.450720E-18
6.170000E+03	1.878258E-16	1.462591E-18
6.180000E+03	1.900767E-16	1.480090E-18
6.190000E+03	1.929032E-16	1.503412E-18
6.200000E+03	1.963132E-16	1.532762E-18
6.210000E+03	2.002814E-16	1.568111E-18
6.220000E+03	2.047441E-16	1.609153E-18
6.230000E+03	2.095891E-16	1.655176E-18
6.240000E+03	2.146549E-16	1.704996E-18
6.250000E+03	2.197722E-16	1.757333E-18
6.260000E+03	2.247828E-16	1.810949E-18
6.270000E+03	2.295233E-16	1.864513E-18
6.280000E+03	2.338212E-16	1.916555E-18
6.290000E+03	2.375150E-16	1.965624E-18
6.300000E+03	2.404678E-16	2.010391E-18
6.310000E+03	2.425954E-16	2.049903E-18
6.320000E+03	2.438790E-16	2.083704E-18
6.330000E+03	2.443577E-16	2.111809E-18
6.340000E+03	2.441303E-16	2.134746E-18
6.350000E+03	2.433394E-16	2.153463E-18
6.360000E+03	2.421472E-16	2.169129E-18
6.370000E+03	2.407165E-16	2.182985E-18
6.380000E+03	2.392025E-16	2.196281E-18
6.390000E+03	2.377333E-16	2.210080E-18
6.400000E+03	2.364015E-16	2.225182E-18
6.410000E+03	2.352725E-16	2.242173E-18
6.420000E+03	2.343667E-16	2.261245E-18
6.430000E+03	2.336731E-16	2.282294E-18
6.440000E+03	2.331497E-16	2.304914E-18
6.450000E+03	2.327290E-16	2.328425E-18
6.460000E+03	2.323274E-16	2.351958E-18
6.470000E+03	2.318484E-16	2.374472E-18
6.480000E+03	2.311934E-16	2.394865E-18
6.490000E+03	2.302811E-16	2.412174E-18
6.500000E+03	2.290504E-16	2.425614E-18
6.510000E+03	2.274753E-16	2.434757E-18
6.520000E+03	2.255593E-16	2.439486E-18
6.530000E+03	2.233571E-16	2.440254E-18
6.540000E+03	2.209526E-16	2.437864E-18
6.550000E+03	2.184555E-16	2.433452E-18
6.560000E+03	2.159878E-16	2.428343E-18
6.570000E+03	2.136673E-16	2.423866E-18
6.580000E+03	2.115918E-16	2.421174E-18
6.590000E+03	2.098288E-16	2.421105E-18
6.600000E+03	2.083998E-16	2.423989E-18
6.610000E+03	2.072801E-16	2.429615E-18
6.620000E+03	2.063985E-16	2.437213E-18
6.630000E+03	2.056468E-16	2.445543E-18
6.640000E+03	2.048851E-16	2.452952E-18
6.650000E+03	2.039551E-16	2.457514E-18
6.660000E+03	2.027059E-16	2.457354E-18
6.670000E+03	2.009940E-16	2.450646E-18
6.680000E+03	1.987095E-16	2.435950E-18
6.690000E+03	1.957776E-16	2.412237E-18
6.700000E+03	1.921778E-16	2.379154E-18
6.710000E+03	1.879276E-16	2.336826E-18
6.720000E+03	1.831002E-16	2.286100E-18
6.730000E+03	1.777990E-16	2.228229E-18
6.740000E+03	1.721592E-16	2.164901E-18
6.750000E+03	1.663283E-16	2.097992E-18
6.760000E+03	1.604560E-16	2.029437E-18
6.770000E+03	1.546844E-16	1.961101E-18
6.780000E+03	1.491429E-16	1.894703E-18
6.790000E+03	1.439388E-16	1.831692E-18
6.800000E+03	1.391629E-16	1.773306E-18
6.810000E+03	1.348912E-16	1.720597E-18
6.820000E+03	1.311849E-16	1.674418E-18
6.830000E+03	1.280945E-16	1.635471E-18
6.840000E+03	1.256704E-16	1.604446E-18
6.850000E+03	1.239543E-16	1.581903E-18
6.860000E+03	1.229943E-16	1.568467E-18
6.870000E+03	1.228360E-16	1.564705E-18
6.880000E+03	1.235283E-16	1.571208E-18
6.890000E+03	1.251243E-16	1.588588E-18
6.900000E+03	1.276743E-16	1.617400E-18
6.910000E+03	1.312295E-16	1.658174E-18
6.920000E+03	1.358382E-16	1.711370E-18
6.930000E+03	1.415357E-16	1.777251E-18
6.940000E+03	1.483444E-16	1.855884E-18
6.950000E+03	1.562661E-16	1.947045E-18
6.960000E+03	1.652692E-16	2.050067E-18
6.970000E+03	1.752763E-16	2.163692E-18
6.980000E+03	1.861710E-16	2.286179E-18
6.990000E+03	1.977622E-16	2.414880E-18
7.000000E+03	2.098070E-16	2.546553E-18
7.010000E+03	2.219930E-16	2.677175E-18
7.020000E+03	2.339448E-16	2.802067E-18
7.030000E+03	2.452608E-16	2.916361E-18
7.040000E+03	2.555184E-16	3.015106E-18
7.050000E+03	2.643230E-16	3.093852E-18
7.060000E+03	2.713431E-16	3.149074E-18
7.070000E+03	2.763477E-16	3.178577E-18
7.080000E+03	2.792343E-16	3.181781E-18
7.090000E+03	2.800423E-16	3.159803E-18
7.100000E+03	2.789454E-16	3.115295E-18
7.110000E+03	2.762398E-16	3.052229E-18
7.120000E+03	2.723116E-16	2.975464E-18
7.130000E+03	2.675864E-16	2.890121E-18
7.140000E+03	2.625029E-16	2.801272E-18
7.150000E+03	2.574755E-16	2.713511E-18
7.160000E+03	2.528680E-16	2.630698E-18
7.170000E+03	2.489739E-16	2.555760E-18
7.180000E+03	2.460182E-16	2.490766E-18
7.190000E+03	2.441397E-16	2.436784E-18
7.200000E+03	2.434040E-16	2.394069E-18
7.210000E+03	2.437990E-16	2.362082E-18
7.220000E+03	2.452503E-16	2.339684E-18
7.230000E+03	2.476151E-16	2.325140E-18
7.240000E+03	2.506874E-16	2.316222E-18
7.250000E+03	2.542096E-16	2.310363E-18
7.260000E+03	2.578949E-16	2.304906E-18
7.270000E+03	2.614131E-16	2.297002E-18
7.280000E+03	2.644475E-16	2.284139E-18
7.290000E+03	2.666879E-16	2.264061E-18
7.300000E+03	2.678687E-16	2.235088E-18
7.310000E+03	2.677841E-16	2.196183E-18
7.320000E+03	2.663162E-16	2.147135E-18
7.330000E+03	2.634253E-16	2.088402E-18
7.340000E+03	2.591784E-16	2.021265E-18
7.350000E+03	2.537093E-16	1.947442E-18
7.360000E+03	2.472290E-16	1.869117E-18
7.370000E+03	2.399848E-16	1.788591E-18
7.380000E+03	2.322466E-16	1.708166E-18
7.390000E+03	2.242799E-16	1.629949E-18
7.400000E+03	2.163265E-16	1.555732E-18
7.410000E+03	2.085895E-16	1.486925E-18
7.420000E+03	2.012241E-16	1.424514E-18
7.430000E+03	1.943443E-16	1.369154E-18
7.440000E+03	1.880179E-16	1.321156E-18
7.450000E+03	1.822739E-16	1.280565E-18
7.460000E+03	1.771216E-16	1.247300E-18
7.470000E+03	1.725500E-16	1.221161E-18
7.480000E+03	1.685486E-16	1.201955E-18
7.490000E+03	1.651066E-16	1.189439E-18
7.500000E+03	1.622198E-16	1.183437E-18
7.510000E+03	1.598884E-16	1.183848E-18
7.520000E+03	1.581214E-16	1.190690E-18
7.530000E+03	1.569238E-16	1.204004E-18
7.540000E+03	1.562907E-16	1.223808E-18
7.550000E+03	1.562002E-16	1.250028E-18
7.560000E+03	1.565952E-16	1.282337E-18
7.570000E+03	1.573802E-16	1.320085E-18
7.580000E+03	1.584166E-16	1.362205E-18
7.590000E+03	1.595206E-16	1.407139E-18
7.600000E+03	1.604841E-16	1.452955E-18
7.610000E+03	1.611179E-16	1.497705E-18
7.620000E+03	1.613172E-16	1.540047E-18
7.630000E+03	1.611156E-16	1.579883E-18
7.640000E+03	1.606403E-16	1.618072E-18
7.650000E+03	1.600459E-16	1.655891E-18
7.660000E+03	1.594734E-16	1.694641E-18
7.670000E+03	1.590278E-16	1.735393E-18
7.680000E+03	1.587650E-16	1.778799E-18
7.690000E+03	1.587058E-16	1.825187E-18
7.700000E+03	1.588261E-16	1.874386E-18
7.710000E+03	1.590802E-16	1.925950E-18
7.720000E+03	1.593963E-16	1.979059E-18
7.730000E+03	1.596947E-16	2.032706E-18
7.740000E+03	1.598775E-16	2.085558E-18
7.750000E+03	1.598519E-16	2.136223E-18
7.760000E+03	1.595279E-16	2.183229E-18
