#wls	flux	fluxerr
1.592167E+03	3.287827E-16	2.139918E-18
1.631971E+03	3.327513E-16	2.165353E-18
1.671775E+03	3.329736E-16	2.166408E-18
1.711579E+03	3.289037E-16	2.139544E-18
1.751383E+03	3.202062E-16	2.082595E-18
1.791187E+03	3.064280E-16	1.992631E-18
1.830992E+03	2.875587E-16	1.869602E-18
1.870796E+03	2.638609E-16	1.715230E-18
1.910600E+03	2.361629E-16	1.534915E-18
1.950404E+03	2.058524E-16	1.337688E-18
1.990208E+03	1.750543E-16	1.137361E-18
2.030012E+03	1.465268E-16	9.518539E-19
2.069817E+03	1.231598E-16	7.999266E-19
2.109621E+03	1.062758E-16	6.901516E-19
2.149425E+03	9.515266E-17	6.178182E-19
2.189229E+03	8.909349E-17	5.783835E-19
2.229033E+03	8.867369E-17	5.755667E-19
2.268837E+03	9.555200E-17	6.201151E-19
2.308641E+03	1.103848E-16	7.162656E-19
2.348446E+03	1.324819E-16	8.595167E-19
2.388250E+03	1.612805E-16	1.046197E-18
2.428054E+03	1.963602E-16	1.273560E-18
2.467858E+03	2.370197E-16	1.537041E-18
2.507662E+03	2.822083E-16	1.829813E-18
2.547466E+03	3.312248E-16	2.147318E-18
2.587271E+03	3.852438E-16	2.497160E-18
2.627075E+03	4.458071E-16	2.889321E-18
2.666879E+03	5.125728E-16	3.321566E-18
2.706683E+03	5.808816E-16	3.763695E-18
2.746487E+03	6.448401E-16	4.177524E-18
2.786291E+03	7.002939E-16	4.536157E-18
2.826096E+03	7.449614E-16	4.824841E-18
2.865900E+03	7.779467E-16	5.037805E-18
2.905704E+03	7.996096E-16	5.177410E-18
2.945508E+03	8.116221E-16	5.254509E-18
2.985312E+03	8.164519E-16	5.285101E-18
2.995263E+03	8.168821E-16	5.287718E-18
3.005214E+03	8.170912E-16	5.288904E-18
3.015165E+03	8.171438E-16	5.289078E-18
3.025116E+03	8.170902E-16	5.288565E-18
3.035067E+03	8.170289E-16	5.288003E-18
3.045019E+03	8.170275E-16	5.287829E-18
3.054970E+03	8.171360E-16	5.288367E-18
3.064921E+03	8.174121E-16	5.289990E-18
3.074872E+03	8.178930E-16	5.292938E-18
3.084823E+03	8.186611E-16	5.297746E-18
3.094774E+03	8.197193E-16	5.304431E-18
3.104725E+03	8.211778E-16	5.313707E-18
3.114676E+03	8.230487E-16	5.325651E-18
3.124627E+03	8.254521E-16	5.341041E-18
3.134578E+03	8.284128E-16	5.360035E-18
3.144529E+03	8.320436E-16	5.383365E-18
3.154480E+03	8.364463E-16	5.411688E-18
3.164431E+03	8.416949E-16	5.445483E-18
3.174382E+03	8.479345E-16	5.485688E-18
3.184333E+03	8.552697E-16	5.532978E-18
3.194284E+03	8.638605E-16	5.588389E-18
3.204235E+03	8.738933E-16	5.653125E-18
3.214186E+03	8.855611E-16	5.728435E-18
3.224137E+03	8.991132E-16	5.815928E-18
3.234088E+03	9.148233E-16	5.917377E-18
3.244039E+03	9.330184E-16	6.034893E-18
3.253990E+03	9.541087E-16	6.171129E-18
3.263941E+03	9.785688E-16	6.329153E-18
3.273892E+03	1.006968E-15	6.512649E-18
3.283843E+03	1.040017E-15	6.726200E-18
3.293795E+03	1.078541E-15	6.975154E-18
3.303746E+03	1.123542E-15	7.265977E-18
3.313697E+03	1.176112E-15	7.605729E-18
3.323648E+03	1.237522E-15	8.002637E-18
3.333599E+03	1.308916E-15	8.464078E-18
3.343550E+03	1.391178E-15	8.995769E-18
3.353501E+03	1.484195E-15	9.596980E-18
3.363452E+03	1.586582E-15	1.025874E-17
3.373403E+03	1.695548E-15	1.096300E-17
3.383354E+03	1.807080E-15	1.168382E-17
3.393305E+03	1.916731E-15	1.239243E-17
3.401654E+03	1.390854E-15	8.992221E-18
3.404987E+03	1.401215E-15	9.059124E-18
3.408331E+03	1.401967E-15	9.063903E-18
3.411665E+03	1.446916E-15	9.354421E-18
3.415008E+03	1.475178E-15	9.537048E-18
3.418342E+03	1.514736E-15	9.792705E-18
3.421675E+03	1.561723E-15	1.009638E-17
3.425019E+03	1.619261E-15	1.046826E-17
3.428353E+03	1.660271E-15	1.073329E-17
3.431686E+03	1.719162E-15	1.111390E-17
3.435030E+03	1.790771E-15	1.157673E-17
3.438363E+03	1.865871E-15	1.206212E-17
3.441697E+03	1.928579E-15	1.246739E-17
3.445040E+03	2.013339E-15	1.301521E-17
3.448374E+03	2.078551E-15	1.343665E-17
3.451718E+03	2.136524E-15	1.381129E-17
3.455051E+03	2.199961E-15	1.422124E-17
3.458385E+03	2.256797E-15	1.458852E-17
3.461728E+03	2.311187E-15	1.493997E-17
3.465062E+03	2.344642E-15	1.515610E-17
3.468395E+03	2.379727E-15	1.538276E-17
3.471739E+03	2.414852E-15	1.560966E-17
3.475073E+03	2.445767E-15	1.580936E-17
3.478406E+03	2.470772E-15	1.597085E-17
3.481750E+03	2.535972E-15	1.639215E-17
3.485083E+03	2.567929E-15	1.659857E-17
3.488427E+03	2.619721E-15	1.693319E-17
3.491761E+03	2.642839E-15	1.708247E-17
3.495094E+03	2.664068E-15	1.721953E-17
3.498438E+03	2.699922E-15	1.745112E-17
3.501771E+03	2.711870E-15	1.752820E-17
3.505105E+03	2.721011E-15	1.758713E-17
3.508448E+03	2.730278E-15	1.764687E-17
3.511782E+03	2.772041E-15	1.791664E-17
3.515126E+03	2.784235E-15	1.799530E-17
3.518459E+03	2.777756E-15	1.795327E-17
3.521793E+03	2.765995E-15	1.787709E-17
3.525136E+03	2.755577E-15	1.780960E-17
3.528470E+03	2.740915E-15	1.771469E-17
3.531804E+03	2.725047E-15	1.761198E-17
3.535147E+03	2.708201E-15	1.750296E-17
3.538481E+03	2.689552E-15	1.738228E-17
3.541814E+03	2.672673E-15	1.727304E-17
3.545158E+03	2.659772E-15	1.718951E-17
3.548491E+03	2.625828E-15	1.696999E-17
3.551835E+03	2.599848E-15	1.680195E-17
3.555169E+03	2.579654E-15	1.667130E-17
3.558502E+03	2.540087E-15	1.641545E-17
3.561846E+03	2.498023E-15	1.614347E-17
3.565179E+03	2.469231E-15	1.595726E-17
3.568513E+03	2.426709E-15	1.568233E-17
3.571856E+03	2.406214E-15	1.554976E-17
3.575190E+03	2.397862E-15	1.549565E-17
3.578524E+03	2.371653E-15	1.532615E-17
3.581867E+03	2.372198E-15	1.532954E-17
3.585201E+03	2.392477E-15	1.546045E-17
3.588544E+03	2.393137E-15	1.546459E-17
3.591878E+03	2.384334E-15	1.540757E-17
3.595212E+03	2.383809E-15	1.540405E-17
3.598555E+03	2.369123E-15	1.530902E-17
3.601889E+03	2.354891E-15	1.521692E-17
3.605222E+03	2.351123E-15	1.519245E-17
3.608566E+03	2.354284E-15	1.521275E-17
3.611899E+03	2.396701E-15	1.548670E-17
3.615243E+03	2.405733E-15	1.554493E-17
3.618577E+03	2.429387E-15	1.569764E-17
3.621910E+03	2.460141E-15	1.589623E-17
3.625254E+03	2.495177E-15	1.612248E-17
3.628587E+03	2.519966E-15	1.628252E-17
3.631921E+03	2.575021E-15	1.663811E-17
3.635264E+03	2.632019E-15	1.700625E-17
3.638598E+03	2.690947E-15	1.738686E-17
3.641932E+03	2.739344E-15	1.769942E-17
3.645275E+03	2.802397E-15	1.810667E-17
3.648609E+03	2.841170E-15	1.835703E-17
3.651952E+03	2.886795E-15	1.865166E-17
3.655286E+03	2.945963E-15	1.903379E-17
3.658620E+03	2.990733E-15	1.932289E-17
3.661963E+03	3.037748E-15	1.962649E-17
3.665297E+03	3.075707E-15	1.987157E-17
3.668630E+03	3.124595E-15	2.018727E-17
3.671974E+03	3.172155E-15	2.049437E-17
3.675307E+03	3.205883E-15	2.071211E-17
3.678641E+03	3.221756E-15	2.081449E-17
3.681985E+03	3.229160E-15	2.086215E-17
3.685318E+03	3.226811E-15	2.084681E-17
3.688662E+03	3.229544E-15	2.086429E-17
3.691995E+03	3.219027E-15	2.079618E-17
3.695329E+03	3.193681E-15	2.063227E-17
3.698673E+03	3.166280E-15	2.045508E-17
3.702006E+03	3.137333E-15	2.026791E-17
3.705340E+03	3.111259E-15	2.009931E-17
3.708683E+03	3.073825E-15	1.985732E-17
3.712017E+03	3.023104E-15	1.952950E-17
3.715360E+03	2.958450E-15	1.911167E-17
3.718694E+03	2.893087E-15	1.868928E-17
3.722028E+03	2.820873E-15	1.822263E-17
3.725371E+03	2.735713E-15	1.767236E-17
3.728705E+03	2.650493E-15	1.712171E-17
3.732038E+03	2.573976E-15	1.662729E-17
3.735382E+03	2.487505E-15	1.606858E-17
3.738716E+03	2.395880E-15	1.547659E-17
3.742049E+03	2.309914E-15	1.492116E-17
3.745393E+03	2.219664E-15	1.433806E-17
3.748726E+03	2.137520E-15	1.380734E-17
3.752070E+03	2.048491E-15	1.323215E-17
3.755403E+03	1.957028E-15	1.264125E-17
3.758737E+03	1.867076E-15	1.206012E-17
3.762081E+03	1.784177E-15	1.152455E-17
3.765414E+03	1.706763E-15	1.102442E-17
3.768748E+03	1.635732E-15	1.056554E-17
3.772091E+03	1.576905E-15	1.018548E-17
3.775425E+03	1.536194E-15	9.922440E-18
3.778759E+03	1.494745E-15	9.654645E-18
3.782102E+03	1.465941E-15	9.468523E-18
3.785436E+03	1.447506E-15	9.349377E-18
3.788779E+03	1.430629E-15	9.240300E-18
3.792113E+03	1.430495E-15	9.239362E-18
3.795446E+03	1.441651E-15	9.311344E-18
3.798790E+03	1.456373E-15	9.406357E-18
3.802124E+03	1.477151E-15	9.540485E-18
3.805457E+03	1.518401E-15	9.806833E-18
3.808801E+03	1.565002E-15	1.010773E-17
3.812134E+03	1.621394E-15	1.047187E-17
3.815478E+03	1.678191E-15	1.083861E-17
3.818811E+03	1.729724E-15	1.117135E-17
3.822145E+03	1.801465E-15	1.163460E-17
3.825489E+03	1.875762E-15	1.211435E-17
3.828822E+03	1.952854E-15	1.261214E-17
3.832156E+03	2.039908E-15	1.317426E-17
3.835499E+03	2.134128E-15	1.378265E-17
3.838833E+03	2.227300E-15	1.438427E-17
3.842167E+03	2.315188E-15	1.495175E-17
3.845510E+03	2.409132E-15	1.555834E-17
3.848844E+03	2.504806E-15	1.617608E-17
3.852187E+03	2.596584E-15	1.676866E-17
3.855521E+03	2.689927E-15	1.737133E-17
3.858854E+03	2.777048E-15	1.793382E-17
3.862198E+03	2.866324E-15	1.851022E-17
3.865532E+03	2.946869E-15	1.903022E-17
3.868865E+03	3.021873E-15	1.951443E-17
3.872209E+03	3.094714E-15	1.998467E-17
3.875542E+03	3.162959E-15	2.042522E-17
3.878876E+03	3.224198E-15	2.082053E-17
3.882219E+03	3.285965E-15	2.121923E-17
3.885553E+03	3.340840E-15	2.157344E-17
3.888897E+03	3.391735E-15	2.190193E-17
3.892230E+03	3.435354E-15	2.218343E-17
3.895564E+03	3.482109E-15	2.248518E-17
3.898907E+03	3.529021E-15	2.278794E-17
3.902241E+03	3.571793E-15	2.306396E-17
3.905575E+03	3.618633E-15	2.336624E-17
3.908918E+03	3.664288E-15	2.366088E-17
3.912252E+03	3.706706E-15	2.393460E-17
3.915595E+03	3.750868E-15	2.421958E-17
3.918929E+03	3.792115E-15	2.448574E-17
3.922262E+03	3.832136E-15	2.474397E-17
3.925606E+03	3.870776E-15	2.499329E-17
3.928940E+03	3.905283E-15	2.521592E-17
3.932273E+03	3.942271E-15	2.545456E-17
3.935617E+03	3.975908E-15	2.567156E-17
3.938950E+03	4.014732E-15	2.592205E-17
3.942284E+03	4.049502E-15	2.614636E-17
3.945628E+03	4.075183E-15	2.631199E-17
3.948961E+03	4.102293E-15	2.648684E-17
3.952305E+03	4.126251E-15	2.664134E-17
3.955638E+03	4.148464E-15	2.678457E-17
3.958972E+03	4.165339E-15	2.689333E-17
3.962315E+03	4.182025E-15	2.700086E-17
3.965649E+03	4.194437E-15	2.708081E-17
3.968983E+03	4.197922E-15	2.710312E-17
3.972326E+03	4.197290E-15	2.709885E-17
3.975660E+03	4.200958E-15	2.712233E-17
3.978993E+03	4.197706E-15	2.710115E-17
3.982337E+03	4.191078E-15	2.705817E-17
3.985671E+03	4.185708E-15	2.702331E-17
3.989014E+03	4.175553E-15	2.695755E-17
3.992348E+03	4.158895E-15	2.684982E-17
3.995681E+03	4.137469E-15	2.671131E-17
3.999025E+03	4.110398E-15	2.653635E-17
4.002358E+03	4.077004E-15	2.632058E-17
4.005692E+03	4.041835E-15	2.609336E-17
4.009036E+03	3.998581E-15	2.581393E-17
4.012369E+03	3.952267E-15	2.551477E-17
4.015703E+03	3.899991E-15	2.517711E-17
4.019046E+03	3.843860E-15	2.481457E-17
4.022380E+03	3.796714E-15	2.451005E-17
4.025723E+03	3.748192E-15	2.419664E-17
4.029057E+03	3.699139E-15	2.387982E-17
4.032391E+03	3.654450E-15	2.359116E-17
4.035734E+03	3.607317E-15	2.328674E-17
4.039068E+03	3.556721E-15	2.295996E-17
4.042401E+03	3.512106E-15	2.267180E-17
4.045745E+03	3.468696E-15	2.239142E-17
4.049079E+03	3.422174E-15	2.209096E-17
4.052422E+03	3.374349E-15	2.178209E-17
4.055756E+03	3.327962E-15	2.148251E-17
4.059089E+03	3.287166E-15	2.121902E-17
4.062433E+03	3.244177E-15	2.094138E-17
4.065766E+03	3.206702E-15	2.069934E-17
4.069100E+03	3.175141E-15	2.049547E-17
4.072444E+03	3.146643E-15	2.031138E-17
4.075777E+03	3.120289E-15	2.014113E-17
4.079111E+03	3.087315E-15	1.992816E-17
4.082454E+03	3.057958E-15	1.973853E-17
4.085788E+03	3.029297E-15	1.955340E-17
4.089131E+03	2.997815E-15	1.935006E-17
4.092465E+03	2.972677E-15	1.918768E-17
4.095799E+03	2.951735E-15	1.905237E-17
4.099142E+03	2.929076E-15	1.890599E-17
4.102476E+03	2.910526E-15	1.878614E-17
4.105809E+03	2.895568E-15	1.868947E-17
4.109153E+03	2.879912E-15	1.858829E-17
4.112487E+03	2.864174E-15	1.848659E-17
4.115820E+03	2.850392E-15	1.839752E-17
4.119164E+03	2.837664E-15	1.831524E-17
4.122497E+03	2.828648E-15	1.825693E-17
4.125841E+03	2.822179E-15	1.821506E-17
4.129174E+03	2.815838E-15	1.817402E-17
4.132508E+03	2.810935E-15	1.814226E-17
4.135852E+03	2.806931E-15	1.811629E-17
4.139185E+03	2.807336E-15	1.811879E-17
4.142519E+03	2.802963E-15	1.809045E-17
4.145862E+03	2.801916E-15	1.808358E-17
4.149196E+03	2.807449E-15	1.811917E-17
4.152540E+03	2.812697E-15	1.815292E-17
4.155873E+03	2.818660E-15	1.819129E-17
4.159207E+03	2.827043E-15	1.824528E-17
4.162550E+03	2.837299E-15	1.831135E-17
4.165884E+03	2.847816E-15	1.837911E-17
4.169217E+03	2.858699E-15	1.844923E-17
4.172561E+03	2.876176E-15	1.856190E-17
4.175895E+03	2.893551E-15	1.867392E-17
4.179228E+03	2.911307E-15	1.878839E-17
4.182572E+03	2.929169E-15	1.890354E-17
4.185905E+03	2.948725E-15	1.902963E-17
4.189249E+03	2.971042E-15	1.917353E-17
4.192582E+03	2.994495E-15	1.932476E-17
4.195916E+03	3.019855E-15	1.948830E-17
4.199260E+03	3.045425E-15	1.965319E-17
4.202593E+03	3.072993E-15	1.983097E-17
4.205927E+03	3.101143E-15	2.001251E-17
4.209270E+03	3.129216E-15	2.019355E-17
4.212604E+03	3.160247E-15	2.039367E-17
4.215938E+03	3.193392E-15	2.060743E-17
4.219281E+03	3.228951E-15	2.083678E-17
4.222615E+03	3.266047E-15	2.107603E-17
4.225958E+03	3.302974E-15	2.131419E-17
4.229292E+03	3.339036E-15	2.154677E-17
4.232625E+03	3.378658E-15	2.180231E-17
4.235969E+03	3.413485E-15	2.202691E-17
4.239303E+03	3.444733E-15	2.222842E-17
4.242636E+03	3.477699E-15	2.244101E-17
4.245980E+03	3.509115E-15	2.264359E-17
4.249313E+03	3.537020E-15	2.282352E-17
4.252657E+03	3.560938E-15	2.297772E-17
4.255991E+03	3.584415E-15	2.312907E-17
4.259324E+03	3.605328E-15	2.326387E-17
4.262668E+03	3.625127E-15	2.339149E-17
4.266001E+03	3.646409E-15	2.352867E-17
4.269335E+03	3.662485E-15	2.363227E-17
4.272678E+03	3.674029E-15	2.370661E-17
4.276012E+03	3.677125E-15	2.372645E-17
4.279346E+03	3.678180E-15	2.373312E-17
4.282689E+03	3.675540E-15	2.371594E-17
4.286023E+03	3.671032E-15	2.368671E-17
4.289366E+03	3.660474E-15	2.361845E-17
4.292700E+03	3.648328E-15	2.353994E-17
4.296034E+03	3.628451E-15	2.341155E-17
4.299377E+03	3.601812E-15	2.323953E-17
4.302711E+03	3.574149E-15	2.306091E-17
4.306044E+03	3.541464E-15	2.284989E-17
4.309388E+03	3.501899E-15	2.259448E-17
4.312721E+03	3.459251E-15	2.231918E-17
4.316055E+03	3.414010E-15	2.202716E-17
4.319399E+03	3.368820E-15	2.173547E-17
4.322732E+03	3.327690E-15	2.146998E-17
4.326076E+03	3.281044E-15	2.116890E-17
4.329409E+03	3.229857E-15	2.083852E-17
4.332743E+03	3.181180E-15	2.052435E-17
4.336086E+03	3.133651E-15	2.021759E-17
4.339420E+03	3.087078E-15	1.991700E-17
4.342754E+03	3.042552E-15	1.962962E-17
4.346097E+03	3.000976E-15	1.936127E-17
4.349431E+03	2.962073E-15	1.911017E-17
4.352774E+03	2.926352E-15	1.887960E-17
4.356108E+03	2.897252E-15	1.869176E-17
4.359442E+03	2.873222E-15	1.853662E-17
4.362785E+03	2.854863E-15	1.841807E-17
4.366119E+03	2.838862E-15	1.831474E-17
4.369452E+03	2.823861E-15	1.821787E-17
4.372796E+03	2.813388E-15	1.815020E-17
4.376129E+03	2.808322E-15	1.811741E-17
4.379463E+03	2.809345E-15	1.812391E-17
4.382807E+03	2.813327E-15	1.814950E-17
4.386140E+03	2.820463E-15	1.819543E-17
4.389484E+03	2.833199E-15	1.827750E-17
4.392817E+03	2.844392E-15	1.834960E-17
4.396151E+03	2.858738E-15	1.844205E-17
4.399494E+03	2.877804E-15	1.856495E-17
4.402828E+03	2.899437E-15	1.870440E-17
4.406162E+03	2.922756E-15	1.885473E-17
4.409505E+03	2.946882E-15	1.901026E-17
4.412839E+03	2.974163E-15	1.918615E-17
4.416172E+03	3.005285E-15	1.938681E-17
4.419516E+03	3.035649E-15	1.958258E-17
4.422850E+03	3.069072E-15	1.979807E-17
4.426193E+03	3.105262E-15	2.003142E-17
4.429527E+03	3.141184E-15	2.026304E-17
4.432860E+03	3.180853E-15	2.051883E-17
4.436204E+03	3.220551E-15	2.077479E-17
4.439537E+03	3.259100E-15	2.102335E-17
4.442871E+03	3.301693E-15	2.129799E-17
4.446215E+03	3.346765E-15	2.158862E-17
4.449548E+03	3.391181E-15	2.187501E-17
4.452892E+03	3.431120E-15	2.213253E-17
4.456225E+03	3.472754E-15	2.240097E-17
4.459559E+03	3.516476E-15	2.268288E-17
4.462903E+03	3.558760E-15	2.295551E-17
4.466236E+03	3.600289E-15	2.322326E-17
4.469570E+03	3.641848E-15	2.349122E-17
4.472913E+03	3.683440E-15	2.375938E-17
4.476247E+03	3.726337E-15	2.403595E-17
4.479580E+03	3.767794E-15	2.430323E-17
4.482924E+03	3.805752E-15	2.454794E-17
4.486258E+03	3.845503E-15	2.480422E-17
4.489601E+03	3.880970E-15	2.503286E-17
4.492935E+03	3.913125E-15	2.524014E-17
4.496268E+03	3.944523E-15	2.544253E-17
4.499612E+03	3.973987E-15	2.563244E-17
4.502946E+03	4.002788E-15	2.581807E-17
4.506279E+03	4.023656E-15	2.595254E-17
4.509623E+03	4.043273E-15	2.607894E-17
4.512956E+03	4.064188E-15	2.621371E-17
4.516290E+03	4.079717E-15	2.631374E-17
4.519633E+03	4.093893E-15	2.640504E-17
4.522967E+03	4.105135E-15	2.647741E-17
4.526311E+03	4.109609E-15	2.650614E-17
4.529644E+03	4.112815E-15	2.652668E-17
4.532978E+03	4.116822E-15	2.655240E-17
4.536321E+03	4.115628E-15	2.654456E-17
4.539655E+03	4.108631E-15	2.649930E-17
4.542988E+03	4.094550E-15	2.640836E-17
4.546332E+03	4.077422E-15	2.629775E-17
4.549666E+03	4.061179E-15	2.619287E-17
4.553009E+03	4.042181E-15	2.607021E-17
4.556343E+03	4.021405E-15	2.593608E-17
4.559676E+03	3.996486E-15	2.577524E-17
4.563020E+03	3.972453E-15	2.562012E-17
4.566354E+03	3.946143E-15	2.545031E-17
4.569687E+03	3.918743E-15	2.527347E-17
4.573031E+03	3.894103E-15	2.511444E-17
4.576364E+03	3.869256E-15	2.495408E-17
4.579698E+03	3.840750E-15	2.477011E-17
4.583041E+03	3.809075E-15	2.456571E-17
4.586375E+03	3.774224E-15	2.434083E-17
4.589719E+03	3.736991E-15	2.410059E-17
4.593052E+03	3.695686E-15	2.383409E-17
4.596386E+03	3.650902E-15	2.354516E-17
4.599729E+03	3.604419E-15	2.324528E-17
4.603063E+03	3.555933E-15	2.293248E-17
4.606397E+03	3.503367E-15	2.259337E-17
4.609740E+03	3.444440E-15	2.221324E-17
4.613074E+03	3.384293E-15	2.182525E-17
4.616407E+03	3.326197E-15	2.145049E-17
4.619751E+03	3.268271E-15	2.107683E-17
4.623084E+03	3.211405E-15	2.071001E-17
4.626428E+03	3.154114E-15	2.034045E-17
4.629762E+03	3.096593E-15	1.996941E-17
4.633095E+03	3.042514E-15	1.962058E-17
4.636439E+03	2.990194E-15	1.928309E-17
4.639772E+03	2.940426E-15	1.896206E-17
4.643106E+03	2.894802E-15	1.866776E-17
4.646449E+03	2.850049E-15	1.837907E-17
4.649783E+03	2.805171E-15	1.808958E-17
4.653127E+03	2.763549E-15	1.782110E-17
4.656460E+03	2.726874E-15	1.758451E-17
4.659794E+03	2.692366E-15	1.736191E-17
4.663137E+03	2.657344E-15	1.713599E-17
4.666471E+03	2.627375E-15	1.694266E-17
4.669805E+03	2.601470E-15	1.677553E-17
4.673148E+03	2.579038E-15	1.663081E-17
4.676482E+03	2.558682E-15	1.649947E-17
4.679815E+03	2.537518E-15	1.636292E-17
4.683159E+03	2.519633E-15	1.624752E-17
4.686492E+03	2.504825E-15	1.615197E-17
4.689836E+03	2.487419E-15	1.603965E-17
4.693170E+03	2.472694E-15	1.594463E-17
4.696503E+03	2.463247E-15	1.588365E-17
4.699847E+03	2.453997E-15	1.582393E-17
4.703180E+03	2.446936E-15	1.577834E-17
4.706514E+03	2.442967E-15	1.575267E-17
4.709858E+03	2.442193E-15	1.574761E-17
4.713191E+03	2.445414E-15	1.576831E-17
4.716525E+03	2.448136E-15	1.578580E-17
4.719868E+03	2.454561E-15	1.582716E-17
4.723202E+03	2.462088E-15	1.587563E-17
4.726545E+03	2.471521E-15	1.593638E-17
4.729879E+03	2.482960E-15	1.601007E-17
4.733213E+03	2.494003E-15	1.608121E-17
4.736556E+03	2.505857E-15	1.615757E-17
4.739890E+03	2.517213E-15	1.623073E-17
4.743223E+03	2.529077E-15	1.630716E-17
4.746567E+03	2.541952E-15	1.639011E-17
4.749900E+03	2.555433E-15	1.647697E-17
4.753234E+03	2.565112E-15	1.653930E-17
4.756578E+03	2.574195E-15	1.659780E-17
4.759911E+03	2.584084E-15	1.666149E-17
4.763255E+03	2.597995E-15	1.675112E-17
4.766588E+03	2.611409E-15	1.683754E-17
4.769922E+03	2.628345E-15	1.694667E-17
4.773266E+03	2.644087E-15	1.704810E-17
4.776599E+03	2.657224E-15	1.713273E-17
4.779933E+03	2.669664E-15	1.721287E-17
4.783276E+03	2.680303E-15	1.728140E-17
4.786610E+03	2.690945E-15	1.734994E-17
4.789953E+03	2.699584E-15	1.740557E-17
4.793287E+03	2.706514E-15	1.745018E-17
4.796621E+03	2.711032E-15	1.747924E-17
4.799964E+03	2.713540E-15	1.749534E-17
4.803298E+03	2.714839E-15	1.750365E-17
4.806631E+03	2.714626E-15	1.750221E-17
4.809975E+03	2.711292E-15	1.748064E-17
4.813309E+03	2.708759E-15	1.746424E-17
4.816642E+03	2.707939E-15	1.745889E-17
4.819986E+03	2.706213E-15	1.744769E-17
4.823319E+03	2.704785E-15	1.743842E-17
4.826663E+03	2.705479E-15	1.744282E-17
4.829996E+03	2.710007E-15	1.747195E-17
4.833330E+03	2.714537E-15	1.750109E-17
4.836674E+03	2.722002E-15	1.754915E-17
4.840007E+03	2.731894E-15	1.761286E-17
4.843341E+03	2.746138E-15	1.770463E-17
4.846684E+03	2.767167E-15	1.784013E-17
4.850018E+03	2.794882E-15	1.801874E-17
