#wls	flux	fluxerr
1.592167E+03	1.415153E-16	6.186988E-18
1.631971E+03	1.425456E-16	6.173062E-18
1.671775E+03	1.423966E-16	6.107324E-18
1.711579E+03	1.409886E-16	5.987914E-18
1.751383E+03	1.382422E-16	5.813130E-18
1.791187E+03	1.340915E-16	5.581986E-18
1.830992E+03	1.284822E-16	5.294096E-18
1.870796E+03	1.214070E-16	4.951084E-18
1.910600E+03	1.129667E-16	4.558954E-18
1.950404E+03	1.032601E-16	4.123439E-18
1.990208E+03	9.248790E-17	3.654126E-18
2.030012E+03	8.106624E-17	3.168651E-18
2.069817E+03	6.970648E-17	2.695337E-18
2.109621E+03	5.953647E-17	2.277216E-18
2.149425E+03	5.172043E-17	1.956803E-18
2.189229E+03	4.685159E-17	1.753326E-18
2.229033E+03	4.497142E-17	1.664659E-18
2.268837E+03	4.608664E-17	1.687397E-18
2.308641E+03	5.020024E-17	1.818049E-18
2.348446E+03	5.741768E-17	2.056858E-18
2.388250E+03	6.812914E-17	2.414060E-18
2.428054E+03	8.284646E-17	2.903618E-18
2.467858E+03	1.019751E-16	3.535090E-18
2.507662E+03	1.254468E-16	4.301241E-18
2.547466E+03	1.520974E-16	5.157840E-18
2.587271E+03	1.789849E-16	6.002825E-18
2.627075E+03	2.014704E-16	6.682248E-18
2.666879E+03	2.169677E-16	7.116316E-18
2.706683E+03	2.258752E-16	7.325766E-18
2.746487E+03	2.294918E-16	7.359539E-18
2.786291E+03	2.292299E-16	7.268219E-18
2.826096E+03	2.262790E-16	7.093314E-18
2.865900E+03	2.216176E-16	6.868055E-18
2.905704E+03	2.160429E-16	6.618697E-18
2.945508E+03	2.104044E-16	6.371939E-18
2.985312E+03	2.054523E-16	6.150321E-18
2.995263E+03	2.044027E-16	6.101185E-18
3.005214E+03	2.034790E-16	6.056020E-18
3.015165E+03	2.026781E-16	6.014706E-18
3.025116E+03	2.020160E-16	5.977683E-18
3.035067E+03	2.015149E-16	5.945571E-18
3.045019E+03	2.011961E-16	5.918956E-18
3.054970E+03	2.010768E-16	5.898299E-18
3.064921E+03	2.011712E-16	5.883962E-18
3.074872E+03	2.015098E-16	5.876778E-18
3.084823E+03	2.020945E-16	5.876743E-18
3.094774E+03	2.029440E-16	5.884334E-18
3.104725E+03	2.040936E-16	5.900508E-18
3.114676E+03	2.055510E-16	5.925409E-18
3.124627E+03	2.073556E-16	5.960093E-18
3.134578E+03	2.095343E-16	6.005244E-18
3.144529E+03	2.121018E-16	6.061192E-18
3.154480E+03	2.151052E-16	6.129183E-18
3.164431E+03	2.185946E-16	6.210533E-18
3.174382E+03	2.225784E-16	6.305362E-18
3.184333E+03	2.271284E-16	6.415577E-18
3.194284E+03	2.322587E-16	6.541443E-18
3.204235E+03	2.380641E-16	6.685479E-18
3.214186E+03	2.445651E-16	6.848099E-18
3.224137E+03	2.518160E-16	7.030651E-18
3.234088E+03	2.599063E-16	7.235455E-18
3.244039E+03	2.688625E-16	7.463043E-18
3.253990E+03	2.787785E-16	7.715811E-18
3.263941E+03	2.896974E-16	7.994725E-18
3.273892E+03	3.016955E-16	8.301650E-18
3.283843E+03	3.148084E-16	8.637316E-18
3.293795E+03	3.291027E-16	9.003284E-18
3.303746E+03	3.446376E-16	9.400900E-18
3.313697E+03	3.614195E-16	9.830055E-18
3.323648E+03	3.794798E-16	1.029132E-17
3.333599E+03	3.988100E-16	1.078417E-17
3.343550E+03	4.193779E-16	1.130747E-17
3.353501E+03	4.411496E-16	1.186002E-17
3.363452E+03	4.640395E-16	1.243927E-17
3.373403E+03	4.879310E-16	1.304186E-17
3.383354E+03	5.127017E-16	1.366432E-17
3.393305E+03	5.381695E-16	1.430163E-17
3.403256E+03	5.641755E-16	1.494945E-17
3.413207E+03	5.904038E-16	1.559933E-17
3.423158E+03	6.166126E-16	1.624487E-17
3.433109E+03	6.424798E-16	1.687766E-17
3.443060E+03	6.675975E-16	1.748711E-17
3.453011E+03	6.915724E-16	1.806314E-17
3.462962E+03	7.141022E-16	1.859818E-17
3.472913E+03	7.350155E-16	1.908812E-17
3.482864E+03	7.544868E-16	1.953788E-17
3.492815E+03	7.725548E-16	1.994879E-17
3.502766E+03	7.894382E-16	2.032683E-17
3.512717E+03	8.053226E-16	2.067706E-17
3.522668E+03	8.205137E-16	2.100753E-17
3.532620E+03	8.352584E-16	2.132474E-17
3.542571E+03	8.498899E-16	2.163728E-17
3.552522E+03	8.647469E-16	2.195382E-17
3.562473E+03	8.802631E-16	2.228530E-17
3.572424E+03	8.967583E-16	2.263968E-17
3.582375E+03	9.146130E-16	2.302636E-17
3.592326E+03	9.340383E-16	2.345036E-17
3.602277E+03	9.551224E-16	2.391356E-17
3.612228E+03	9.776584E-16	2.441049E-17
3.622179E+03	1.001302E-15	2.493227E-17
3.632130E+03	1.025196E-15	2.545743E-17
3.642081E+03	1.048289E-15	2.595987E-17
3.652032E+03	1.069149E-15	2.640441E-17
3.661983E+03	1.086181E-15	2.675225E-17
3.671934E+03	1.097683E-15	2.696233E-17
3.681885E+03	1.102300E-15	2.700260E-17
3.691836E+03	1.098975E-15	2.684855E-17
3.701787E+03	1.087383E-15	2.649390E-17
3.711738E+03	1.067955E-15	2.595066E-17
3.721689E+03	1.041944E-15	2.525077E-17
3.731640E+03	1.011238E-15	2.444108E-17
3.741591E+03	9.782294E-16	2.358015E-17
3.751542E+03	9.454045E-16	2.272816E-17
3.761493E+03	9.152548E-16	2.194478E-17
3.771444E+03	8.900397E-16	2.128351E-17
3.781396E+03	8.716976E-16	2.078959E-17
3.791347E+03	8.617864E-16	2.049877E-17
3.801298E+03	8.616642E-16	2.044165E-17
3.811249E+03	8.723419E-16	2.064030E-17
3.821200E+03	8.947513E-16	2.111469E-17
3.831151E+03	9.296451E-16	2.188034E-17
3.841102E+03	9.776698E-16	2.295015E-17
3.851053E+03	1.039314E-15	2.433313E-17
3.861004E+03	1.114814E-15	2.603232E-17
3.870955E+03	1.204082E-15	2.804323E-17
3.880906E+03	1.306661E-15	3.035272E-17
3.890857E+03	1.421501E-15	3.293415E-17
3.900808E+03	1.546918E-15	3.574646E-17
3.910759E+03	1.680564E-15	3.873370E-17
3.920710E+03	1.819382E-15	4.182423E-17
3.930661E+03	1.959615E-15	4.493107E-17
3.940612E+03	2.096953E-15	4.795555E-17
3.950563E+03	2.226846E-15	5.079450E-17
3.960514E+03	2.344628E-15	5.334321E-17
3.970465E+03	2.446004E-15	5.550643E-17
3.980416E+03	2.527342E-15	5.720498E-17
3.990367E+03	2.586076E-15	5.838447E-17
4.000318E+03	2.621007E-15	5.902192E-17
4.010269E+03	2.632416E-15	5.912782E-17
4.020221E+03	2.621801E-15	5.873981E-17
4.030172E+03	2.591873E-15	5.792222E-17
4.040123E+03	2.546318E-15	5.676056E-17
4.050074E+03	2.489095E-15	5.534543E-17
4.060025E+03	2.424323E-15	5.377013E-17
4.069976E+03	2.356019E-15	5.212475E-17
4.079927E+03	2.287707E-15	5.048761E-17
4.089878E+03	2.222422E-15	4.892548E-17
4.099829E+03	2.162616E-15	4.749164E-17
4.109780E+03	2.110090E-15	4.622462E-17
4.119731E+03	2.066217E-15	4.515320E-17
4.129682E+03	2.031844E-15	4.429446E-17
4.139633E+03	2.007365E-15	4.365541E-17
4.149584E+03	1.992805E-15	4.323506E-17
4.159535E+03	1.987976E-15	4.302777E-17
4.169486E+03	1.992284E-15	4.301926E-17
4.179437E+03	2.005004E-15	4.319254E-17
4.189388E+03	2.025154E-15	4.352528E-17
4.199339E+03	2.051652E-15	4.399323E-17
4.209290E+03	2.083198E-15	4.456770E-17
4.219241E+03	2.118558E-15	4.522171E-17
4.229192E+03	2.156275E-15	4.592378E-17
4.239143E+03	2.194961E-15	4.664418E-17
4.249094E+03	2.233167E-15	4.735217E-17
4.259045E+03	2.269613E-15	4.802084E-17
4.268997E+03	2.302931E-15	4.862164E-17
4.278948E+03	2.331990E-15	4.913131E-17
4.288899E+03	2.355731E-15	4.952826E-17
4.298850E+03	2.373304E-15	4.979543E-17
4.308801E+03	2.383844E-15	4.991561E-17
4.318752E+03	2.386780E-15	4.987782E-17
4.328703E+03	2.381475E-15	4.966978E-17
4.338654E+03	2.367538E-15	4.928439E-17
4.348605E+03	2.345359E-15	4.873081E-17
4.358556E+03	2.316324E-15	4.803876E-17
4.368507E+03	2.282827E-15	4.725853E-17
4.378458E+03	2.248224E-15	4.645988E-17
4.388409E+03	2.216246E-15	4.571979E-17
4.398360E+03	2.190511E-15	4.511242E-17
4.408311E+03	2.174074E-15	4.469981E-17
4.418262E+03	2.169030E-15	4.452396E-17
4.428213E+03	2.176687E-15	4.461043E-17
4.438164E+03	2.197517E-15	4.496762E-17
4.448115E+03	2.231310E-15	4.558994E-17
4.458066E+03	2.277241E-15	4.645938E-17
4.468017E+03	2.333917E-15	4.754647E-17
4.477968E+03	2.399402E-15	4.881092E-17
4.487919E+03	2.471253E-15	5.020241E-17
4.497870E+03	2.546585E-15	5.166191E-17
4.507822E+03	2.622154E-15	5.312344E-17
4.517773E+03	2.694592E-15	5.451893E-17
4.527724E+03	2.760650E-15	5.578299E-17
4.537675E+03	2.817358E-15	5.685622E-17
4.547626E+03	2.862428E-15	5.769322E-17
4.557577E+03	2.894364E-15	5.826475E-17
4.567528E+03	2.912587E-15	5.856013E-17
4.577479E+03	2.917596E-15	5.859029E-17
4.587430E+03	2.910607E-15	5.838055E-17
4.597381E+03	2.893684E-15	5.797302E-17
4.607332E+03	2.869111E-15	5.741406E-17
4.617283E+03	2.839401E-15	5.675429E-17
4.627234E+03	2.806948E-15	5.604180E-17
4.637185E+03	2.773677E-15	5.531506E-17
4.647136E+03	2.741090E-15	5.460402E-17
4.657087E+03	2.710063E-15	5.392594E-17
4.667038E+03	2.680837E-15	5.328543E-17
4.676989E+03	2.653176E-15	5.267765E-17
4.686940E+03	2.626425E-15	5.208944E-17
4.696891E+03	2.599639E-15	5.150193E-17
4.706842E+03	2.571804E-15	5.089504E-17
4.716793E+03	2.542126E-15	5.025306E-17
4.726744E+03	2.510018E-15	4.956449E-17
4.736695E+03	2.475383E-15	4.882753E-17
4.746646E+03	2.438587E-15	4.804950E-17
4.756598E+03	2.400490E-15	4.724744E-17
4.766549E+03	2.362413E-15	4.644738E-17
4.776500E+03	2.325929E-15	4.568018E-17
4.786451E+03	2.292814E-15	4.498054E-17
4.796402E+03	2.265005E-15	4.438621E-17
4.806353E+03	2.244453E-15	4.393498E-17
4.816304E+03	2.232987E-15	4.366216E-17
4.826255E+03	2.232341E-15	4.360099E-17
4.836206E+03	2.244027E-15	4.378025E-17
4.846157E+03	2.269225E-15	4.422212E-17
4.856108E+03	2.308721E-15	4.494098E-17
4.866059E+03	2.362749E-15	4.594039E-17
4.876010E+03	2.430838E-15	4.721026E-17
4.885961E+03	2.511634E-15	4.872330E-17
4.895912E+03	2.602886E-15	5.043506E-17
4.905863E+03	2.701227E-15	5.227959E-17
4.915814E+03	2.802474E-15	5.417554E-17
4.925765E+03	2.901661E-15	5.602678E-17
4.935716E+03	2.993686E-15	5.773501E-17
4.945667E+03	3.073634E-15	5.920605E-17
4.955618E+03	3.137459E-15	6.036284E-17
4.965569E+03	3.182460E-15	6.115460E-17
4.975520E+03	3.207500E-15	6.156081E-17
4.985471E+03	3.213080E-15	6.159250E-17
4.995423E+03	3.201114E-15	6.128770E-17
5.005374E+03	3.174692E-15	6.070676E-17
5.015325E+03	3.137403E-15	5.991925E-17
5.025276E+03	3.093159E-15	5.900066E-17
5.035227E+03	3.045649E-15	5.802174E-17
5.045178E+03	2.998121E-15	5.704459E-17
5.055129E+03	2.953353E-15	5.612205E-17
5.065080E+03	2.913521E-15	5.529524E-17
5.075031E+03	2.880252E-15	5.459469E-17
5.084982E+03	2.854682E-15	5.404150E-17
5.094933E+03	2.837504E-15	5.364822E-17
5.104884E+03	2.829170E-15	5.342284E-17
5.114835E+03	2.829656E-15	5.336431E-17
5.124786E+03	2.838827E-15	5.346952E-17
5.134737E+03	2.856235E-15	5.372946E-17
5.144688E+03	2.881295E-15	5.413259E-17
5.154639E+03	2.913196E-15	5.466324E-17
5.164590E+03	2.951052E-15	5.530437E-17
5.174541E+03	2.993818E-15	5.603609E-17
5.184492E+03	3.040448E-15	5.683857E-17
5.194443E+03	3.089830E-15	5.769090E-17
5.204394E+03	3.140813E-15	5.857152E-17
5.214345E+03	3.192312E-15	5.946019E-17
5.224296E+03	3.243198E-15	6.033602E-17
5.234248E+03	3.292297E-15	6.117733E-17
5.244199E+03	3.338455E-15	6.196298E-17
5.254150E+03	3.380438E-15	6.267037E-17
5.264101E+03	3.416966E-15	6.327623E-17
5.274052E+03	3.446719E-15	6.375658E-17
5.284003E+03	3.468471E-15	6.408935E-17
5.293954E+03	3.481199E-15	6.425624E-17
5.303905E+03	3.484100E-15	6.424310E-17
5.313856E+03	3.476859E-15	6.404479E-17
5.323807E+03	3.459622E-15	6.366464E-17
5.333758E+03	3.433205E-15	6.311829E-17
5.343709E+03	3.398977E-15	6.243141E-17
5.353660E+03	3.358892E-15	6.164029E-17
5.363611E+03	3.315497E-15	6.079194E-17
5.373562E+03	3.271577E-15	5.993756E-17
5.383513E+03	3.230058E-15	5.913075E-17
5.393464E+03	3.193819E-15	5.842406E-17
5.403415E+03	3.165034E-15	5.785699E-17
5.413366E+03	3.144871E-15	5.745049E-17
5.423317E+03	3.133069E-15	5.719949E-17
5.433268E+03	3.128427E-15	5.708172E-17
5.443219E+03	3.129210E-15	5.706533E-17
5.453170E+03	3.133605E-15	5.711702E-17
5.463121E+03	3.139708E-15	5.720195E-17
5.473072E+03	3.145694E-15	5.728676E-17
5.483024E+03	3.149863E-15	5.734042E-17
5.492975E+03	3.150551E-15	5.733262E-17
5.502926E+03	3.146117E-15	5.723347E-17
5.512877E+03	3.135216E-15	5.701854E-17
5.522828E+03	3.116556E-15	5.666431E-17
5.532779E+03	3.089001E-15	5.615014E-17
5.542730E+03	3.051643E-15	5.545953E-17
5.552681E+03	3.003591E-15	5.457625E-17
5.562632E+03	2.944315E-15	5.349064E-17
5.572583E+03	2.873488E-15	5.219674E-17
5.582534E+03	2.791431E-15	5.070028E-17
5.592485E+03	2.699202E-15	4.902039E-17
5.602436E+03	2.598765E-15	4.719265E-17
5.612387E+03	2.493026E-15	4.526969E-17
5.622338E+03	2.385693E-15	4.331872E-17
5.632289E+03	2.281026E-15	4.141692E-17
5.642240E+03	2.183410E-15	3.964382E-17
5.652191E+03	2.097117E-15	3.807684E-17
5.662142E+03	2.025857E-15	3.678324E-17
5.672093E+03	1.972854E-15	3.582148E-17
5.682044E+03	1.940594E-15	3.523666E-17
5.691995E+03	1.930946E-15	3.506271E-17
5.701946E+03	1.945280E-15	3.532449E-17
5.711897E+03	1.984359E-15	3.603591E-17
5.721849E+03	2.048469E-15	3.720222E-17
5.731800E+03	2.137173E-15	3.881551E-17
5.741751E+03	2.249218E-15	4.085315E-17
5.751702E+03	2.382326E-15	4.327380E-17
5.761653E+03	2.533031E-15	4.601462E-17
5.771604E+03	2.696667E-15	4.899086E-17
5.781555E+03	2.867405E-15	5.209672E-17
5.791506E+03	3.038662E-15	5.521255E-17
5.801457E+03	3.203569E-15	5.821358E-17
5.811408E+03	3.355574E-15	6.098067E-17
5.821359E+03	3.489026E-15	6.341107E-17
5.831310E+03	3.599636E-15	6.542669E-17
5.841261E+03	3.684731E-15	6.697888E-17
5.851212E+03	3.743289E-15	6.804890E-17
5.861163E+03	3.775734E-15	6.864435E-17
5.871114E+03	3.783759E-15	6.879589E-17
5.881065E+03	3.769863E-15	6.854886E-17
5.891016E+03	3.736972E-15	6.795633E-17
5.900967E+03	3.688382E-15	6.707823E-17
5.910918E+03	3.627269E-15	6.597223E-17
5.920869E+03	3.556661E-15	6.469335E-17
5.930820E+03	3.479411E-15	6.329349E-17
5.940771E+03	3.398011E-15	6.181797E-17
5.950722E+03	3.314714E-15	6.030777E-17
5.960673E+03	3.231365E-15	5.879645E-17
5.970625E+03	3.149612E-15	5.731407E-17
5.980576E+03	3.070781E-15	5.588473E-17
5.990527E+03	2.995918E-15	5.452756E-17
6.000478E+03	2.925733E-15	5.325546E-17
6.010429E+03	2.860781E-15	5.207864E-17
6.020380E+03	2.801218E-15	5.099995E-17
6.030331E+03	2.747036E-15	5.001930E-17
6.040282E+03	2.697826E-15	4.912933E-17
6.050233E+03	2.653027E-15	4.831985E-17
6.060184E+03	2.611716E-15	4.757411E-17
6.070135E+03	2.572851E-15	4.687318E-17
6.080086E+03	2.535241E-15	4.619541E-17
6.090037E+03	2.497591E-15	4.551721E-17
6.099988E+03	2.458613E-15	4.481517E-17
6.109939E+03	2.417116E-15	4.406754E-17
6.119890E+03	2.372111E-15	4.325632E-17
6.129841E+03	2.322860E-15	4.236798E-17
6.139792E+03	2.268933E-15	4.139466E-17
6.149743E+03	2.210227E-15	4.033441E-17
6.159694E+03	2.147036E-15	3.919253E-17
6.169645E+03	2.079992E-15	3.798042E-17
6.179596E+03	2.010138E-15	3.671710E-17
6.189547E+03	1.938803E-15	3.542673E-17
6.199498E+03	1.867657E-15	3.413978E-17
6.209450E+03	1.798585E-15	3.289066E-17
6.219401E+03	1.733643E-15	3.171696E-17
6.229352E+03	1.674919E-15	3.065698E-17
6.239303E+03	1.624494E-15	2.974890E-17
6.249254E+03	1.584275E-15	2.902787E-17
6.259205E+03	1.555957E-15	2.852523E-17
6.269156E+03	1.541002E-15	2.826817E-17
6.279107E+03	1.540520E-15	2.827751E-17
6.289058E+03	1.555282E-15	2.856796E-17
6.299009E+03	1.585583E-15	2.914561E-17
6.308960E+03	1.631168E-15	3.000652E-17
6.318911E+03	1.691155E-15	3.113525E-17
6.328862E+03	1.763768E-15	3.249992E-17
6.338813E+03	1.846325E-15	3.405189E-17
6.348764E+03	1.935182E-15	3.572470E-17
6.358715E+03	2.025855E-15	3.743608E-17
6.368666E+03	2.113337E-15	3.909388E-17
6.378617E+03	2.192583E-15	4.060477E-17
6.388568E+03	2.259183E-15	4.188679E-17
6.398519E+03	2.309966E-15	4.288054E-17
6.408470E+03	2.343481E-15	4.355807E-17
6.418421E+03	2.360194E-15	4.392684E-17
6.428372E+03	2.362379E-15	4.402796E-17
6.438323E+03	2.353733E-15	4.392922E-17
6.448274E+03	2.338900E-15	4.371646E-17
6.458226E+03	2.322811E-15	4.348133E-17
6.468177E+03	2.310325E-15	4.331471E-17
6.478128E+03	2.305918E-15	4.330083E-17
6.488079E+03	2.313477E-15	4.351343E-17
6.498030E+03	2.335849E-15	4.400716E-17
6.507981E+03	2.374309E-15	4.480744E-17
6.517932E+03	2.428274E-15	4.590475E-17
6.527883E+03	2.495958E-15	4.726679E-17
6.537834E+03	2.574865E-15	4.884759E-17
6.547785E+03	2.662024E-15	5.059185E-17
6.557736E+03	2.753897E-15	5.243307E-17
6.567687E+03	2.846827E-15	5.430203E-17
6.577638E+03	2.936986E-15	5.612565E-17
6.587589E+03	3.020798E-15	5.783522E-17
6.597540E+03	3.095172E-15	5.937071E-17
6.607491E+03	3.157728E-15	6.068534E-17
6.617442E+03	3.206867E-15	6.174696E-17
6.627393E+03	3.241688E-15	6.253667E-17
6.637344E+03	3.262011E-15	6.304930E-17
6.647295E+03	3.268276E-15	6.329167E-17
6.657246E+03	3.261103E-15	6.327415E-17
6.667197E+03	3.241417E-15	6.301312E-17
6.677148E+03	3.210178E-15	6.252577E-17
6.687099E+03	3.168177E-15	6.182614E-17
6.697051E+03	3.116330E-15	6.093083E-17
6.707002E+03	3.055303E-15	5.985170E-17
6.716953E+03	2.985859E-15	5.860264E-17
6.726904E+03	2.908951E-15	5.720136E-17
6.736855E+03	2.825570E-15	5.566650E-17
6.746806E+03	2.737095E-15	5.402451E-17
6.756757E+03	2.645155E-15	5.230703E-17
6.766708E+03	2.551658E-15	5.055145E-17
6.776659E+03	2.458716E-15	4.879952E-17
6.786610E+03	2.368570E-15	4.709586E-17
6.796561E+03	2.283339E-15	4.548301E-17
6.806512E+03	2.205120E-15	4.400334E-17
6.816463E+03	2.135665E-15	4.269266E-17
6.826414E+03	2.076437E-15	4.158121E-17
6.836365E+03	2.028538E-15	4.069219E-17
6.846316E+03	1.992697E-15	4.004144E-17
6.856267E+03	1.969297E-15	3.963792E-17
6.866218E+03	1.958297E-15	3.948205E-17
6.876169E+03	1.959315E-15	3.956733E-17
6.886120E+03	1.971618E-15	3.988011E-17
6.896071E+03	1.994008E-15	4.039719E-17
6.906022E+03	2.025011E-15	4.108958E-17
6.915973E+03	2.062699E-15	4.191882E-17
6.925924E+03	2.104852E-15	4.284030E-17
6.935875E+03	2.149019E-15	4.380440E-17
6.945827E+03	2.192648E-15	4.475909E-17
6.955778E+03	2.233278E-15	4.565396E-17
6.965729E+03	2.268592E-15	4.644122E-17
6.975680E+03	2.296770E-15	4.708302E-17
6.985631E+03	2.316530E-15	4.755240E-17
6.995582E+03	2.327111E-15	4.783296E-17
7.005533E+03	2.328451E-15	4.792266E-17
7.015484E+03	2.321143E-15	4.783293E-17
7.025435E+03	2.306134E-15	4.758269E-17
7.035386E+03	2.284826E-15	4.720029E-17
7.045337E+03	2.258793E-15	4.671785E-17
7.055288E+03	2.229636E-15	4.616823E-17
7.065239E+03	2.198930E-15	4.558389E-17
7.075190E+03	2.168123E-15	4.499483E-17
7.085141E+03	2.138377E-15	4.442523E-17
7.095092E+03	2.110628E-15	4.389469E-17
7.105043E+03	2.085546E-15	4.341734E-17
7.114994E+03	2.063578E-15	4.300271E-17
7.124945E+03	2.044845E-15	4.265358E-17
7.134896E+03	2.029365E-15	4.237054E-17
7.144847E+03	2.016931E-15	4.214951E-17
7.154798E+03	2.007307E-15	4.198576E-17
7.164749E+03	2.000024E-15	4.186966E-17
7.174700E+03	1.994716E-15	4.179369E-17
7.184652E+03	1.990913E-15	4.174813E-17
7.194603E+03	1.988218E-15	4.172476E-17
7.204554E+03	1.986179E-15	4.171419E-17
7.214505E+03	1.984488E-15	4.170997E-17
7.224456E+03	1.982833E-15	4.170560E-17
7.234407E+03	1.981023E-15	4.169708E-17
7.244358E+03	1.978862E-15	4.168033E-17
7.254309E+03	1.976259E-15	4.165344E-17
7.264260E+03	1.973069E-15	4.161338E-17
7.274211E+03	1.969261E-15	4.155951E-17
7.284162E+03	1.964792E-15	4.149092E-17
7.294113E+03	1.959595E-15	4.140622E-17
7.304064E+03	1.953642E-15	4.130484E-17
7.314015E+03	1.946941E-15	4.118697E-17
7.323966E+03	1.939417E-15	4.105105E-17
7.333917E+03	1.931097E-15	4.089765E-17
7.343868E+03	1.921954E-15	4.072624E-17
7.353819E+03	1.912038E-15	4.053791E-17
7.363770E+03	1.901318E-15	4.033200E-17
7.373721E+03	1.889865E-15	4.011009E-17
7.383672E+03	1.877699E-15	3.987261E-17
7.393623E+03	1.864878E-15	3.962084E-17
7.403574E+03	1.851467E-15	3.935617E-17
7.413525E+03	1.837562E-15	3.908070E-17
7.423476E+03	1.823177E-15	3.879478E-17
7.433428E+03	1.808475E-15	3.850189E-17
7.443379E+03	1.793478E-15	3.820255E-17
7.453330E+03	1.778299E-15	3.789925E-17
7.463281E+03	1.763032E-15	3.759400E-17
7.473232E+03	1.747803E-15	3.728957E-17
7.483183E+03	1.732695E-15	3.698778E-17
7.493134E+03	1.717858E-15	3.669187E-17
7.503085E+03	1.703421E-15	3.640469E-17
7.513036E+03	1.689521E-15	3.612922E-17
7.522987E+03	1.676293E-15	3.586843E-17
7.532938E+03	1.663866E-15	3.562513E-17
7.542889E+03	1.652372E-15	3.540228E-17
7.552840E+03	1.641871E-15	3.520122E-17
7.562791E+03	1.632445E-15	3.502382E-17
7.572742E+03	1.624091E-15	3.487013E-17
7.582693E+03	1.616835E-15	3.474078E-17
7.592644E+03	1.610648E-15	3.463530E-17
7.602595E+03	1.605486E-15	3.455284E-17
7.612546E+03	1.601291E-15	3.449224E-17
7.622497E+03	1.597995E-15	3.445220E-17
7.632448E+03	1.595524E-15	3.443119E-17
7.642399E+03	1.593798E-15	3.442765E-17
7.652350E+03	1.592753E-15	3.444029E-17
7.662301E+03	1.592238E-15	3.446596E-17
7.672253E+03	1.592190E-15	3.450341E-17
7.682204E+03	1.592451E-15	3.454932E-17
7.692155E+03	1.592872E-15	3.460054E-17
7.702106E+03	1.593281E-15	3.465345E-17
7.712057E+03	1.593493E-15	3.470410E-17
7.722008E+03	1.593313E-15	3.474829E-17
