#wls	flux	fluxerr
1.592167E+03	1.782535E-16	8.094021E-18
1.631971E+03	1.805890E-16	8.097430E-18
1.671775E+03	1.813490E-16	8.028004E-18
1.711579E+03	1.803991E-16	7.882669E-18
1.751383E+03	1.775299E-16	7.655453E-18
1.791187E+03	1.726717E-16	7.346833E-18
1.830992E+03	1.657214E-16	6.956031E-18
1.870796E+03	1.567569E-16	6.489987E-18
1.910600E+03	1.459466E-16	5.959142E-18
1.950404E+03	1.335745E-16	5.378132E-18
1.990208E+03	1.200070E-16	4.764179E-18
2.030012E+03	1.056607E-16	4.135562E-18
2.069817E+03	9.107304E-17	3.514204E-18
2.109621E+03	7.754726E-17	2.949913E-18
2.149425E+03	6.713729E-17	2.517766E-18
2.189229E+03	6.089223E-17	2.251335E-18
2.229033E+03	5.888751E-17	2.146654E-18
2.268837E+03	6.110383E-17	2.196437E-18
2.308641E+03	6.763231E-17	2.397627E-18
2.348446E+03	7.881100E-17	2.755862E-18
2.388250E+03	9.532699E-17	3.288439E-18
2.428054E+03	1.180706E-16	4.018582E-18
2.467858E+03	1.478757E-16	4.966291E-18
2.507662E+03	1.850557E-16	6.133138E-18
2.547466E+03	2.283177E-16	7.467909E-18
2.587271E+03	2.731387E-16	8.817593E-18
2.627075E+03	3.116734E-16	9.931084E-18
2.666879E+03	3.395432E-16	1.067923E-17
2.706683E+03	3.577946E-16	1.110812E-17
2.746487E+03	3.686085E-16	1.129652E-17
2.786291E+03	3.736409E-16	1.130356E-17
2.826096E+03	3.741826E-16	1.117467E-17
2.865900E+03	3.712398E-16	1.094473E-17
2.905704E+03	3.658835E-16	1.064891E-17
2.945508E+03	3.593539E-16	1.032555E-17
2.985312E+03	3.529125E-16	1.001173E-17
2.995263E+03	3.515040E-16	9.940072E-18
3.005214E+03	3.502064E-16	9.871944E-18
3.015165E+03	3.490646E-16	9.808578E-18
3.025116E+03	3.481068E-16	9.750723E-18
3.035067E+03	3.473727E-16	9.699436E-18
3.045019E+03	3.468808E-16	9.655180E-18
3.054970E+03	3.467024E-16	9.619871E-18
3.064921E+03	3.468638E-16	9.594158E-18
3.074872E+03	3.473567E-16	9.577724E-18
3.084823E+03	3.482525E-16	9.572443E-18
3.094774E+03	3.495880E-16	9.579222E-18
3.104725E+03	3.514042E-16	9.599067E-18
3.114676E+03	3.537471E-16	9.633108E-18
3.124627E+03	3.566680E-16	9.682604E-18
3.134578E+03	3.602242E-16	9.748966E-18
3.144529E+03	3.644985E-16	9.834269E-18
3.154480E+03	3.695630E-16	9.940276E-18
3.164431E+03	3.754802E-16	1.006848E-17
3.174382E+03	3.823779E-16	1.022208E-17
3.184333E+03	3.903397E-16	1.040308E-17
3.194284E+03	3.994800E-16	1.061427E-17
3.204235E+03	4.099457E-16	1.085926E-17
3.214186E+03	4.218992E-16	1.114205E-17
3.224137E+03	4.354616E-16	1.146545E-17
3.234088E+03	4.508477E-16	1.183477E-17
3.244039E+03	4.682309E-16	1.225411E-17
3.253990E+03	4.878630E-16	1.272960E-17
3.263941E+03	5.099500E-16	1.326609E-17
3.273892E+03	5.347306E-16	1.386924E-17
3.283843E+03	5.624747E-16	1.454542E-17
3.293795E+03	5.934316E-16	1.530043E-17
3.303746E+03	6.278673E-16	1.614039E-17
3.313697E+03	6.659753E-16	1.706953E-17
3.323648E+03	7.079885E-16	1.809303E-17
3.333599E+03	7.540006E-16	1.921244E-17
3.343550E+03	8.040805E-16	2.042869E-17
3.353501E+03	8.581343E-16	2.173858E-17
3.363452E+03	9.160759E-16	2.313913E-17
3.373403E+03	9.775271E-16	2.462005E-17
3.383354E+03	1.042065E-15	2.617006E-17
3.393305E+03	1.109122E-15	2.777439E-17
3.403256E+03	1.177931E-15	2.941345E-17
3.413207E+03	1.247542E-15	3.106332E-17
3.423158E+03	1.316836E-15	3.269622E-17
3.433109E+03	1.384437E-15	3.427822E-17
3.443060E+03	1.448821E-15	3.577220E-17
3.453011E+03	1.508286E-15	3.713704E-17
3.462962E+03	1.561678E-15	3.834557E-17
3.472913E+03	1.608290E-15	3.938181E-17
3.482864E+03	1.648039E-15	4.024522E-17
3.492815E+03	1.681220E-15	4.094444E-17
3.502766E+03	1.708194E-15	4.148965E-17
3.512717E+03	1.729557E-15	4.189657E-17
3.522668E+03	1.745964E-15	4.218217E-17
3.532620E+03	1.758336E-15	4.236968E-17
3.542571E+03	1.767777E-15	4.248646E-17
3.552522E+03	1.775867E-15	4.257097E-17
3.562473E+03	1.784418E-15	4.266682E-17
3.572424E+03	1.795473E-15	4.282272E-17
3.582375E+03	1.811326E-15	4.309278E-17
3.592326E+03	1.834186E-15	4.352856E-17
3.602277E+03	1.866037E-15	4.417581E-17
3.612228E+03	1.908209E-15	4.506436E-17
3.622179E+03	1.961211E-15	4.620450E-17
3.632130E+03	2.024210E-15	4.757486E-17
3.642081E+03	2.094728E-15	4.911568E-17
3.652032E+03	2.168205E-15	5.071919E-17
3.661983E+03	2.238278E-15	5.223646E-17
3.671934E+03	2.296820E-15	5.347886E-17
3.681885E+03	2.335396E-15	5.425242E-17
3.691836E+03	2.346681E-15	5.439052E-17
3.701787E+03	2.325860E-15	5.378616E-17
3.711738E+03	2.272146E-15	5.242614E-17
3.721689E+03	2.189149E-15	5.039857E-17
3.731640E+03	2.084112E-15	4.787419E-17
3.741591E+03	1.966774E-15	4.507944E-17
3.751542E+03	1.847585E-15	4.225501E-17
3.761493E+03	1.736220E-15	3.962173E-17
3.771444E+03	1.640604E-15	3.735881E-17
3.781396E+03	1.566688E-15	3.559900E-17
3.791347E+03	1.518576E-15	3.443203E-17
3.801298E+03	1.499044E-15	3.391689E-17
3.811249E+03	1.509895E-15	3.409015E-17
3.821200E+03	1.552383E-15	3.497567E-17
3.831151E+03	1.627236E-15	3.658534E-17
3.841102E+03	1.734707E-15	3.892033E-17
3.851053E+03	1.874137E-15	4.196138E-17
3.861004E+03	2.043786E-15	4.566525E-17
3.870955E+03	2.240500E-15	4.995759E-17
3.880906E+03	2.459837E-15	5.473601E-17
3.890857E+03	2.695902E-15	5.986666E-17
3.900808E+03	2.941897E-15	6.519683E-17
3.910759E+03	3.190275E-15	7.055848E-17
3.920710E+03	3.433128E-15	7.577694E-17
3.930661E+03	3.662622E-15	8.068060E-17
3.940612E+03	3.870794E-15	8.509641E-17
3.950563E+03	4.050363E-15	8.886755E-17
3.960514E+03	4.194646E-15	9.185165E-17
3.970465E+03	4.298230E-15	9.393509E-17
3.980416E+03	4.357694E-15	9.504867E-17
3.990367E+03	4.371822E-15	9.517161E-17
4.000318E+03	4.342345E-15	9.434734E-17
4.010269E+03	4.273404E-15	9.267114E-17
4.020221E+03	4.171529E-15	9.028927E-17
4.030172E+03	4.044839E-15	8.738116E-17
4.040123E+03	3.901942E-15	8.413537E-17
4.050074E+03	3.751440E-15	8.073890E-17
4.060025E+03	3.600984E-15	7.735692E-17
4.069976E+03	3.457007E-15	7.412723E-17
4.079927E+03	3.324503E-15	7.115582E-17
4.089878E+03	3.207053E-15	6.851774E-17
4.099829E+03	3.106904E-15	6.625909E-17
4.109780E+03	3.025421E-15	6.440682E-17
4.119731E+03	2.962953E-15	6.296617E-17
4.129682E+03	2.919300E-15	6.193075E-17
4.139633E+03	2.893632E-15	6.128088E-17
4.149584E+03	2.884864E-15	6.099167E-17
4.159535E+03	2.891628E-15	6.103248E-17
4.169486E+03	2.912388E-15	6.136935E-17
4.179437E+03	2.945544E-15	6.196727E-17
4.189388E+03	2.989609E-15	6.279385E-17
4.199339E+03	3.042914E-15	6.381314E-17
4.209290E+03	3.103931E-15	6.499243E-17
4.219241E+03	3.170843E-15	6.629314E-17
4.229192E+03	3.241658E-15	6.767336E-17
4.239143E+03	3.313864E-15	6.908058E-17
4.249094E+03	3.384448E-15	7.045219E-17
4.259045E+03	3.449687E-15	7.171120E-17
4.268997E+03	3.505327E-15	7.276998E-17
4.278948E+03	3.547025E-15	7.353955E-17
4.288899E+03	3.570403E-15	7.393056E-17
4.298850E+03	3.572080E-15	7.387467E-17
4.308801E+03	3.549987E-15	7.333094E-17
4.318752E+03	3.503955E-15	7.229760E-17
4.328703E+03	3.435902E-15	7.081587E-17
4.338654E+03	3.349873E-15	6.897042E-17
4.348605E+03	3.252286E-15	6.689420E-17
4.358556E+03	3.151074E-15	6.475063E-17
4.368507E+03	3.054592E-15	6.271115E-17
4.378458E+03	2.970426E-15	6.093078E-17
4.388409E+03	2.904812E-15	5.953631E-17
4.398360E+03	2.862173E-15	5.861705E-17
4.408311E+03	2.845312E-15	5.822908E-17
4.418262E+03	2.855464E-15	5.839633E-17
4.428213E+03	2.892820E-15	5.912141E-17
4.438164E+03	2.956522E-15	6.038567E-17
4.448115E+03	3.044894E-15	6.215392E-17
4.458066E+03	3.155322E-15	6.437198E-17
4.468017E+03	3.284258E-15	6.696680E-17
4.477968E+03	3.427036E-15	6.984277E-17
4.487919E+03	3.578183E-15	7.288804E-17
4.497870E+03	3.731329E-15	7.597277E-17
4.507822E+03	3.879611E-15	7.895728E-17
4.517773E+03	4.016182E-15	8.170239E-17
4.527724E+03	4.134544E-15	8.407630E-17
4.537675E+03	4.229152E-15	8.596667E-17
4.547626E+03	4.295959E-15	8.729177E-17
4.557577E+03	4.332468E-15	8.800139E-17
4.567528E+03	4.338277E-15	8.808791E-17
4.577479E+03	4.314571E-15	8.757590E-17
4.587430E+03	4.264319E-15	8.652607E-17
4.597381E+03	4.191803E-15	8.502567E-17
4.607332E+03	4.102339E-15	8.318279E-17
4.617283E+03	4.001615E-15	8.111297E-17
4.627234E+03	3.895410E-15	7.893336E-17
4.637185E+03	3.788887E-15	7.674858E-17
4.647136E+03	3.686198E-15	7.464261E-17
4.657087E+03	3.590326E-15	7.267568E-17
4.667038E+03	3.502979E-15	7.088214E-17
4.676989E+03	3.424684E-15	6.927237E-17
4.686940E+03	3.355001E-15	6.783728E-17
4.696891E+03	3.292846E-15	6.655467E-17
4.706842E+03	3.236870E-15	6.539710E-17
4.716793E+03	3.185783E-15	6.433835E-17
4.726744E+03	3.138724E-15	6.336085E-17
4.736695E+03	3.095314E-15	6.245684E-17
4.746646E+03	3.055682E-15	6.162883E-17
4.756598E+03	3.020412E-15	6.088844E-17
4.766549E+03	2.990272E-15	6.025103E-17
4.776500E+03	2.966205E-15	5.973540E-17
4.786451E+03	2.949193E-15	5.936111E-17
4.796402E+03	2.940390E-15	5.915113E-17
4.806353E+03	2.941078E-15	5.913095E-17
4.816304E+03	2.952708E-15	5.932935E-17
4.826255E+03	2.976921E-15	5.977884E-17
4.836206E+03	3.015327E-15	6.051122E-17
4.846157E+03	3.069287E-15	6.155314E-17
4.856108E+03	3.139416E-15	6.291620E-17
4.866059E+03	3.225251E-15	6.459038E-17
4.876010E+03	3.324561E-15	6.653020E-17
4.885961E+03	3.433111E-15	6.865023E-17
4.895912E+03	3.544635E-15	7.082471E-17
4.905863E+03	3.651107E-15	7.289308E-17
4.915814E+03	3.743934E-15	7.468401E-17
4.925765E+03	3.814874E-15	7.603383E-17
4.935716E+03	3.857993E-15	7.682537E-17
4.945667E+03	3.870405E-15	7.700265E-17
4.955618E+03	3.853222E-15	7.658944E-17
4.965569E+03	3.810994E-15	7.567778E-17
4.975520E+03	3.750764E-15	7.440892E-17
4.985471E+03	3.680774E-15	7.294737E-17
4.995423E+03	3.609045E-15	7.145260E-17
5.005374E+03	3.542342E-15	7.005870E-17
5.015325E+03	3.485453E-15	6.886004E-17
5.025276E+03	3.441084E-15	6.790953E-17
5.035227E+03	3.410004E-15	6.722162E-17
5.045178E+03	3.391354E-15	6.677861E-17
5.055129E+03	3.383315E-15	6.654399E-17
5.065080E+03	3.383662E-15	6.647338E-17
5.075031E+03	3.390319E-15	6.652556E-17
5.084982E+03	3.401815E-15	6.667131E-17
5.094933E+03	3.417583E-15	6.689924E-17
5.104884E+03	3.437849E-15	6.721356E-17
5.114835E+03	3.463674E-15	6.763473E-17
5.124786E+03	3.496540E-15	6.819129E-17
5.134737E+03	3.537867E-15	6.891049E-17
5.144688E+03	3.588846E-15	6.981493E-17
5.154639E+03	3.649959E-15	7.091336E-17
5.164590E+03	3.720936E-15	7.219986E-17
5.174541E+03	3.800593E-15	7.365087E-17
5.184492E+03	3.886883E-15	7.522621E-17
5.194443E+03	3.977186E-15	7.687487E-17
5.204394E+03	4.068412E-15	7.853705E-17
5.214345E+03	4.157433E-15	8.015252E-17
5.224296E+03	4.241134E-15	8.166163E-17
5.234248E+03	4.316836E-15	8.301344E-17
5.244199E+03	4.382294E-15	8.416559E-17
5.254150E+03	4.435574E-15	8.508199E-17
5.264101E+03	4.475302E-15	8.573733E-17
5.274052E+03	4.500422E-15	8.611262E-17
5.284003E+03	4.510369E-15	8.619830E-17
5.293954E+03	4.505154E-15	8.599577E-17
5.303905E+03	4.485316E-15	8.551656E-17
5.313856E+03	4.452146E-15	8.478638E-17
5.323807E+03	4.407594E-15	8.384334E-17
5.333758E+03	4.354284E-15	8.273815E-17
5.343709E+03	4.295087E-15	8.152593E-17
5.353660E+03	4.232990E-15	8.026376E-17
5.363611E+03	4.170613E-15	7.900148E-17
5.373562E+03	4.110288E-15	7.778333E-17
5.383513E+03	4.053816E-15	7.664323E-17
5.393464E+03	4.002483E-15	7.560530E-17
5.403415E+03	3.956943E-15	7.468154E-17
5.413366E+03	3.917058E-15	7.386897E-17
5.423317E+03	3.881825E-15	7.314835E-17
5.433268E+03	3.849654E-15	7.248947E-17
5.443219E+03	3.819130E-15	7.186530E-17
5.453170E+03	3.789076E-15	7.125349E-17
5.463121E+03	3.758620E-15	7.063739E-17
5.473072E+03	3.727303E-15	7.000823E-17
5.483024E+03	3.695035E-15	6.936413E-17
5.492975E+03	3.661747E-15	6.870366E-17
5.502926E+03	3.627372E-15	6.802539E-17
5.512877E+03	3.591478E-15	6.732108E-17
5.522828E+03	3.553470E-15	6.657943E-17
5.532779E+03	3.512384E-15	6.578228E-17
5.542730E+03	3.466893E-15	6.490468E-17
5.552681E+03	3.415300E-15	6.391482E-17
5.562632E+03	3.355671E-15	6.277646E-17
5.572583E+03	3.285973E-15	6.145160E-17
5.582534E+03	3.204586E-15	5.990997E-17
5.592485E+03	3.110840E-15	5.813912E-17
5.602436E+03	3.005303E-15	5.614970E-17
5.612387E+03	2.890367E-15	5.398647E-17
5.622338E+03	2.770048E-15	5.172440E-17
5.632289E+03	2.649923E-15	4.946761E-17
5.642240E+03	2.536344E-15	4.733448E-17
5.652191E+03	2.435768E-15	4.544530E-17
5.662142E+03	2.354193E-15	4.391169E-17
5.672093E+03	2.296602E-15	4.282622E-17
5.682044E+03	2.266823E-15	4.225981E-17
5.691995E+03	2.267277E-15	4.225720E-17
5.701946E+03	2.299157E-15	4.284009E-17
5.711897E+03	2.362219E-15	4.400341E-17
5.721849E+03	2.454662E-15	4.571316E-17
5.731800E+03	2.573190E-15	4.790744E-17
5.741751E+03	2.712876E-15	5.049411E-17
5.751702E+03	2.867376E-15	5.335471E-17
5.761653E+03	3.029281E-15	5.635112E-17
5.771604E+03	3.190674E-15	5.933589E-17
5.781555E+03	3.343980E-15	6.216815E-17
5.791506E+03	3.482464E-15	6.472275E-17
5.801457E+03	3.601067E-15	6.690590E-17
5.811408E+03	3.696484E-15	6.865648E-17
5.821359E+03	3.767357E-15	6.994966E-17
5.831310E+03	3.813888E-15	7.078959E-17
5.841261E+03	3.837599E-15	7.120498E-17
5.851212E+03	3.840739E-15	7.123794E-17
5.861163E+03	3.826055E-15	7.093987E-17
5.871114E+03	3.796380E-15	7.036360E-17
5.881065E+03	3.754454E-15	6.956030E-17
5.891016E+03	3.702966E-15	6.858002E-17
5.900967E+03	3.644424E-15	6.746947E-17
5.910918E+03	3.581016E-15	6.626934E-17
5.920869E+03	3.514814E-15	6.501814E-17
5.930820E+03	3.447629E-15	6.374948E-17
5.940771E+03	3.380879E-15	6.248963E-17
5.950722E+03	3.315838E-15	6.126222E-17
5.960673E+03	3.253365E-15	6.008312E-17
5.970625E+03	3.194231E-15	5.896658E-17
5.980576E+03	3.138934E-15	5.792177E-17
5.990527E+03	3.087869E-15	5.695595E-17
6.000478E+03	3.041441E-15	5.607658E-17
6.010429E+03	3.000006E-15	5.529015E-17
6.020380E+03	2.963684E-15	5.459885E-17
6.030331E+03	2.932531E-15	5.400365E-17
6.040282E+03	2.906112E-15	5.349651E-17
6.050233E+03	2.883502E-15	5.306039E-17
6.060184E+03	2.863148E-15	5.266670E-17
6.070135E+03	2.842991E-15	5.227761E-17
6.080086E+03	2.820456E-15	5.184589E-17
6.090037E+03	2.792895E-15	5.132299E-17
6.099988E+03	2.757920E-15	5.066520E-17
6.109939E+03	2.713629E-15	4.983776E-17
6.119890E+03	2.659207E-15	4.882592E-17
6.129841E+03	2.594747E-15	4.763154E-17
6.139792E+03	2.521412E-15	4.627614E-17
6.149743E+03	2.441181E-15	4.479607E-17
6.159694E+03	2.356363E-15	4.323375E-17
6.169645E+03	2.269302E-15	4.163216E-17
6.179596E+03	2.182098E-15	4.002978E-17
6.189547E+03	2.096508E-15	3.845873E-17
6.199498E+03	2.013950E-15	3.694496E-17
6.209450E+03	1.935648E-15	3.551080E-17
6.219401E+03	1.862998E-15	3.418177E-17
6.229352E+03	1.797531E-15	3.298593E-17
6.239303E+03	1.741277E-15	3.196045E-17
6.249254E+03	1.696545E-15	3.114781E-17
6.259205E+03	1.665850E-15	3.059427E-17
6.269156E+03	1.651762E-15	3.034732E-17
6.279107E+03	1.656602E-15	3.044998E-17
6.289058E+03	1.682334E-15	3.093895E-17
6.299009E+03	1.730235E-15	3.183854E-17
6.308960E+03	1.800797E-15	3.315875E-17
6.318911E+03	1.893343E-15	3.488832E-17
6.328862E+03	2.005710E-15	3.698874E-17
6.338813E+03	2.133946E-15	3.938852E-17
6.348764E+03	2.272239E-15	4.198174E-17
6.358715E+03	2.413126E-15	4.463163E-17
6.368666E+03	2.548133E-15	4.718222E-17
6.378617E+03	2.668915E-15	4.947925E-17
6.388568E+03	2.768294E-15	5.138916E-17
6.398519E+03	2.841641E-15	5.282483E-17
6.408470E+03	2.887220E-15	5.375211E-17
6.418421E+03	2.906572E-15	5.419746E-17
6.428372E+03	2.903798E-15	5.423510E-17
6.438323E+03	2.884970E-15	5.397643E-17
6.448274E+03	2.857067E-15	5.355041E-17
6.458226E+03	2.827287E-15	5.309106E-17
6.468177E+03	2.802436E-15	5.272591E-17
6.478128E+03	2.788558E-15	5.256916E-17
6.488079E+03	2.790454E-15	5.271257E-17
6.498030E+03	2.811261E-15	5.321712E-17
6.507981E+03	2.851228E-15	5.408973E-17
6.517932E+03	2.907961E-15	5.528715E-17
6.527883E+03	2.977224E-15	5.673075E-17
6.537834E+03	3.054021E-15	5.832671E-17
6.547785E+03	3.133233E-15	5.997805E-17
6.557736E+03	3.209959E-15	6.159104E-17
6.567687E+03	3.279928E-15	6.308319E-17
6.577638E+03	3.339857E-15	6.439023E-17
6.587589E+03	3.387577E-15	6.546877E-17
6.597540E+03	3.422109E-15	6.629800E-17
6.607491E+03	3.443574E-15	6.687827E-17
6.617442E+03	3.452793E-15	6.722354E-17
6.627393E+03	3.451141E-15	6.735869E-17
6.637344E+03	3.440061E-15	6.731023E-17
6.647295E+03	3.420887E-15	6.710272E-17
6.657246E+03	3.394468E-15	6.675151E-17
6.667197E+03	3.361434E-15	6.626774E-17
6.677148E+03	3.321931E-15	6.565315E-17
6.687099E+03	3.275776E-15	6.490302E-17
6.697051E+03	3.222761E-15	6.401202E-17
6.707002E+03	3.162683E-15	6.297500E-17
6.716953E+03	3.095564E-15	6.179120E-17
6.726904E+03	3.021741E-15	6.046622E-17
6.736855E+03	2.942127E-15	5.901727E-17
6.746806E+03	2.857924E-15	5.746764E-17
6.756757E+03	2.770930E-15	5.585279E-17
6.766708E+03	2.683096E-15	5.421173E-17
6.776659E+03	2.596709E-15	5.259064E-17
6.786610E+03	2.513952E-15	5.103404E-17
6.796561E+03	2.436917E-15	4.958503E-17
6.806512E+03	2.367447E-15	4.828198E-17
6.816463E+03	2.307083E-15	4.715750E-17
6.826414E+03	2.256883E-15	4.623452E-17
6.836365E+03	2.217632E-15	4.553057E-17
6.846316E+03	2.189599E-15	4.505269E-17
6.856267E+03	2.172668E-15	4.479995E-17
6.866218E+03	2.166307E-15	4.476279E-17
6.876169E+03	2.169607E-15	4.492374E-17
6.886120E+03	2.181174E-15	4.525504E-17
6.896071E+03	2.199403E-15	4.572432E-17
6.906022E+03	2.222333E-15	4.629146E-17
6.915973E+03	2.247842E-15	4.691263E-17
6.925924E+03	2.273883E-15	4.754526E-17
6.935875E+03	2.298422E-15	4.814673E-17
6.945827E+03	2.319710E-15	4.868000E-17
6.955778E+03	2.336355E-15	4.911544E-17
6.965729E+03	2.347363E-15	4.943145E-17
6.975680E+03	2.352302E-15	4.961831E-17
6.985631E+03	2.351069E-15	4.967312E-17
6.995582E+03	2.343940E-15	4.960109E-17
7.005533E+03	2.331571E-15	4.941551E-17
7.015484E+03	2.314796E-15	4.913361E-17
7.025435E+03	2.294582E-15	4.877551E-17
7.035386E+03	2.271907E-15	4.836177E-17
7.045337E+03	2.247804E-15	4.791424E-17
7.055288E+03	2.223196E-15	4.745253E-17
7.065239E+03	2.198887E-15	4.699388E-17
7.075190E+03	2.175511E-15	4.655191E-17
7.085141E+03	2.153613E-15	4.613844E-17
7.095092E+03	2.133514E-15	4.576054E-17
7.105043E+03	2.115446E-15	4.542339E-17
7.114994E+03	2.099465E-15	4.512837E-17
7.124945E+03	2.085500E-15	4.487415E-17
7.134896E+03	2.073346E-15	4.465652E-17
7.144847E+03	2.062770E-15	4.447061E-17
7.154798E+03	2.053578E-15	4.431236E-17
7.164749E+03	2.045439E-15	4.417476E-17
7.174700E+03	2.038125E-15	4.405299E-17
7.184652E+03	2.031538E-15	4.394499E-17
7.194603E+03	2.025512E-15	4.384727E-17
7.204554E+03	2.020103E-15	4.376113E-17
7.214505E+03	2.015301E-15	4.368640E-17
7.224456E+03	2.011251E-15	4.362630E-17
7.234407E+03	2.008081E-15	4.358366E-17
7.244358E+03	2.005927E-15	4.356158E-17
7.254309E+03	2.004802E-15	4.356037E-17
7.264260E+03	2.004663E-15	4.357922E-17
7.274211E+03	2.005368E-15	4.361508E-17
7.284162E+03	2.006713E-15	4.366360E-17
7.294113E+03	2.008379E-15	4.371793E-17
7.304064E+03	2.009965E-15	4.376936E-17
7.314015E+03	2.011112E-15	4.381016E-17
7.323966E+03	2.011434E-15	4.383192E-17
7.333917E+03	2.010565E-15	4.382676E-17
7.343868E+03	2.008181E-15	4.378760E-17
7.353819E+03	2.004041E-15	4.370929E-17
7.363770E+03	1.997900E-15	4.358647E-17
7.373721E+03	1.989621E-15	4.341624E-17
7.383672E+03	1.979234E-15	4.319930E-17
7.393623E+03	1.966725E-15	4.293538E-17
7.403574E+03	1.952336E-15	4.262981E-17
7.413525E+03	1.936296E-15	4.228772E-17
7.423476E+03	1.918937E-15	4.191638E-17
7.433428E+03	1.900693E-15	4.152535E-17
7.443379E+03	1.882080E-15	4.112602E-17
7.453330E+03	1.863523E-15	4.072774E-17
7.463281E+03	1.845494E-15	4.034093E-17
7.473232E+03	1.828444E-15	3.997553E-17
7.483183E+03	1.812634E-15	3.963737E-17
7.493134E+03	1.798367E-15	3.933316E-17
7.503085E+03	1.785708E-15	3.906446E-17
7.513036E+03	1.774695E-15	3.883217E-17
7.522987E+03	1.765348E-15	3.863688E-17
7.532938E+03	1.757453E-15	3.847400E-17
7.542889E+03	1.750875E-15	3.834069E-17
7.552840E+03	1.745438E-15	3.823324E-17
7.562791E+03	1.740837E-15	3.814504E-17
7.572742E+03	1.736875E-15	3.807193E-17
7.582693E+03	1.733212E-15	3.800658E-17
7.592644E+03	1.729588E-15	3.794335E-17
7.602595E+03	1.725849E-15	3.787901E-17
7.612546E+03	1.721786E-15	3.780906E-17
7.622497E+03	1.717375E-15	3.773304E-17
7.632448E+03	1.712751E-15	3.765405E-17
7.642399E+03	1.708094E-15	3.757611E-17
7.652350E+03	1.703711E-15	3.750613E-17
7.662301E+03	1.699851E-15	3.744965E-17
7.672253E+03	1.696737E-15	3.741177E-17
7.682204E+03	1.694524E-15	3.739603E-17
7.692155E+03	1.693159E-15	3.740144E-17
7.702106E+03	1.692510E-15	3.742525E-17
7.712057E+03	1.692210E-15	3.745950E-17
7.722008E+03	1.691928E-15	3.749702E-17
