#wls	flux	fluxerr
1.600000E+03	3.540205E-17	3.015750E-18
1.640000E+03	3.588345E-17	3.037491E-18
1.680000E+03	3.638077E-17	3.059620E-18
1.720000E+03	3.691468E-17	3.083813E-18
1.760000E+03	3.744277E-17	3.106466E-18
1.800000E+03	3.800996E-17	3.131262E-18
1.840000E+03	3.857197E-17	3.154483E-18
1.880000E+03	3.914815E-17	3.177683E-18
1.920000E+03	3.971927E-17	3.199258E-18
1.960000E+03	4.030639E-17	3.220872E-18
2.000000E+03	4.089217E-17	3.241090E-18
2.040000E+03	4.147403E-17	3.259684E-18
2.080000E+03	4.206471E-17	3.277626E-18
2.120000E+03	4.266516E-17	3.294940E-18
2.160000E+03	4.327725E-17	3.311720E-18
2.200000E+03	4.390279E-17	3.328048E-18
2.240000E+03	4.456910E-17	3.345915E-18
2.280000E+03	4.524672E-17	3.363010E-18
2.320000E+03	4.595598E-17	3.380770E-18
2.360000E+03	4.667209E-17	3.397285E-18
2.400000E+03	4.740517E-17	3.413234E-18
2.440000E+03	4.812101E-17	3.426107E-18
2.480000E+03	4.880853E-17	3.435133E-18
2.520000E+03	4.945486E-17	3.439457E-18
2.560000E+03	5.004733E-17	3.438282E-18
2.600000E+03	5.056334E-17	3.430187E-18
2.640000E+03	5.100948E-17	3.415790E-18
2.680000E+03	5.137360E-17	3.394456E-18
2.720000E+03	5.167368E-17	3.367564E-18
2.760000E+03	5.191088E-17	3.335354E-18
2.800000E+03	5.212473E-17	3.300500E-18
2.840000E+03	5.233570E-17	3.264342E-18
2.880000E+03	5.257631E-17	3.228888E-18
2.920000E+03	5.286886E-17	3.195401E-18
2.960000E+03	5.325206E-17	3.166033E-18
3.000000E+03	5.375845E-17	3.142420E-18
3.010000E+03	5.390465E-17	3.137393E-18
3.020000E+03	5.405277E-17	3.132361E-18
3.030000E+03	5.421948E-17	3.128285E-18
3.040000E+03	5.439617E-17	3.124657E-18
3.050000E+03	5.458259E-17	3.121453E-18
3.060000E+03	5.477046E-17	3.118196E-18
3.070000E+03	5.497571E-17	3.115787E-18
3.080000E+03	5.518989E-17	3.113735E-18
3.090000E+03	5.542049E-17	3.112454E-18
3.100000E+03	5.565137E-17	3.111030E-18
3.110000E+03	5.589767E-17	3.110305E-18
3.120000E+03	5.615112E-17	3.109808E-18
3.130000E+03	5.641871E-17	3.109918E-18
3.140000E+03	5.669216E-17	3.110172E-18
3.150000E+03	5.697086E-17	3.110529E-18
3.160000E+03	5.726143E-17	3.111347E-18
3.170000E+03	5.756288E-17	3.112561E-18
3.180000E+03	5.787421E-17	3.114111E-18
3.190000E+03	5.819431E-17	3.115927E-18
3.200000E+03	5.851500E-17	3.117568E-18
3.210000E+03	5.884220E-17	3.119347E-18
3.220000E+03	5.918155E-17	3.121555E-18
3.230000E+03	5.951778E-17	3.123382E-18
3.240000E+03	5.986318E-17	3.125472E-18
3.250000E+03	6.020932E-17	3.127380E-18
3.260000E+03	6.055462E-17	3.129023E-18
3.270000E+03	6.089740E-17	3.130316E-18
3.280000E+03	6.124242E-17	3.131505E-18
3.290000E+03	6.158766E-17	3.132485E-18
3.300000E+03	6.192471E-17	3.132831E-18
3.310000E+03	6.225794E-17	3.132769E-18
3.320000E+03	6.258520E-17	3.132195E-18
3.330000E+03	6.290434E-17	3.131008E-18
3.340000E+03	6.321318E-17	3.129107E-18
3.350000E+03	6.350364E-17	3.126101E-18
3.360000E+03	6.378571E-17	3.122498E-18
3.370000E+03	6.405729E-17	3.118200E-18
3.380000E+03	6.430484E-17	3.112563E-18
3.390000E+03	6.453848E-17	3.106093E-18
3.400000E+03	6.475680E-17	3.098737E-18
3.410000E+03	6.495328E-17	3.090195E-18
3.420000E+03	6.513310E-17	3.080734E-18
3.430000E+03	6.529104E-17	3.070122E-18
3.440000E+03	6.543882E-17	3.058925E-18
3.450000E+03	6.557285E-17	3.046987E-18
3.460000E+03	6.569599E-17	3.034452E-18
3.470000E+03	6.581231E-17	3.021517E-18
3.480000E+03	6.592795E-17	3.008469E-18
3.490000E+03	6.605895E-17	2.996038E-18
3.500000E+03	6.621379E-17	2.984592E-18
3.510000E+03	6.641171E-17	2.974977E-18
3.520000E+03	6.666783E-17	2.967830E-18
3.530000E+03	6.699335E-17	2.963600E-18
3.540000E+03	6.740924E-17	2.963150E-18
3.550000E+03	6.793659E-17	2.967327E-18
3.560000E+03	6.858326E-17	2.976381E-18
3.570000E+03	6.937522E-17	2.991332E-18
3.580000E+03	7.032518E-17	3.012603E-18
3.590000E+03	7.145482E-17	3.040985E-18
3.600000E+03	7.277717E-17	3.076879E-18
3.610000E+03	7.431411E-17	3.121042E-18
3.620000E+03	7.607881E-17	3.173844E-18
3.630000E+03	7.809765E-17	3.236189E-18
3.640000E+03	8.037924E-17	3.308219E-18
3.650000E+03	8.294975E-17	3.390783E-18
3.660000E+03	8.582157E-17	3.484143E-18
3.670000E+03	8.901549E-17	3.588887E-18
3.680000E+03	9.254218E-17	3.705173E-18
3.690000E+03	9.642042E-17	3.833471E-18
3.700000E+03	1.006579E-16	3.973793E-18
3.710000E+03	1.052754E-16	4.126657E-18
3.720000E+03	1.102718E-16	4.291699E-18
3.730000E+03	1.156644E-16	4.469281E-18
3.740000E+03	1.214532E-16	4.659070E-18
3.750000E+03	1.276417E-16	4.860881E-18
3.760000E+03	1.342389E-16	5.074722E-18
3.770000E+03	1.412420E-16	5.300157E-18
3.780000E+03	1.486613E-16	5.537241E-18
3.790000E+03	1.565043E-16	5.785908E-18
3.800000E+03	1.647819E-16	6.046224E-18
3.810000E+03	1.735038E-16	6.318187E-18
3.820000E+03	1.827057E-16	6.602736E-18
3.830000E+03	1.924102E-16	6.900302E-18
3.840000E+03	2.026533E-16	7.211762E-18
3.850000E+03	2.134768E-16	7.538170E-18
3.860000E+03	2.249352E-16	7.880977E-18
3.870000E+03	2.370690E-16	8.241093E-18
3.880000E+03	2.499336E-16	8.619905E-18
3.890000E+03	2.635615E-16	9.017951E-18
3.900000E+03	2.779918E-16	9.435970E-18
3.910000E+03	2.932290E-16	9.873498E-18
3.920000E+03	3.092746E-16	1.032996E-17
3.930000E+03	3.260841E-16	1.080329E-17
3.940000E+03	3.436145E-16	1.129150E-17
3.950000E+03	3.617399E-16	1.178995E-17
3.960000E+03	3.803702E-16	1.229533E-17
3.970000E+03	3.993381E-16	1.280192E-17
3.980000E+03	4.184832E-16	1.330444E-17
3.990000E+03	4.376528E-16	1.379799E-17
4.000000E+03	4.566891E-16	1.427772E-17
4.010000E+03	4.754364E-16	1.473898E-17
4.020000E+03	4.937719E-16	1.517831E-17
4.030000E+03	5.116094E-16	1.559350E-17
4.040000E+03	5.288556E-16	1.598223E-17
4.050000E+03	5.454305E-16	1.634263E-17
4.060000E+03	5.613003E-16	1.667434E-17
4.070000E+03	5.763863E-16	1.697567E-17
4.080000E+03	5.905991E-16	1.724472E-17
4.090000E+03	6.038630E-16	1.748006E-17
4.100000E+03	6.160756E-16	1.767956E-17
4.110000E+03	6.271117E-16	1.784057E-17
4.120000E+03	6.368627E-16	1.796099E-17
4.130000E+03	6.452204E-16	1.803885E-17
4.140000E+03	6.521490E-16	1.807427E-17
4.150000E+03	6.575984E-16	1.806700E-17
4.160000E+03	6.616166E-16	1.801950E-17
4.170000E+03	6.642732E-16	1.793476E-17
4.180000E+03	6.657597E-16	1.781892E-17
4.190000E+03	6.662776E-16	1.767824E-17
4.200000E+03	6.661277E-16	1.752134E-17
4.210000E+03	6.656306E-16	1.735712E-17
4.220000E+03	6.651521E-16	1.719530E-17
4.230000E+03	6.650731E-16	1.704570E-17
4.240000E+03	6.657592E-16	1.691740E-17
4.250000E+03	6.675679E-16	1.681897E-17
4.260000E+03	6.708314E-16	1.675806E-17
4.270000E+03	6.758031E-16	1.674011E-17
4.280000E+03	6.826565E-16	1.676841E-17
4.290000E+03	6.915413E-16	1.684556E-17
4.300000E+03	7.024392E-16	1.697004E-17
4.310000E+03	7.152692E-16	1.713887E-17
4.320000E+03	7.298048E-16	1.734573E-17
4.330000E+03	7.457003E-16	1.758170E-17
4.340000E+03	7.624727E-16	1.783496E-17
4.350000E+03	7.795018E-16	1.809089E-17
4.360000E+03	7.960135E-16	1.833178E-17
4.370000E+03	8.111453E-16	1.853849E-17
4.380000E+03	8.239501E-16	1.869052E-17
4.390000E+03	8.334539E-16	1.876737E-17
4.400000E+03	8.393592E-16	1.876423E-17
4.410000E+03	8.420967E-16	1.869257E-17
4.420000E+03	8.421682E-16	1.856508E-17
4.430000E+03	8.400887E-16	1.839432E-17
4.440000E+03	8.364118E-16	1.819336E-17
4.450000E+03	8.316724E-16	1.797446E-17
4.460000E+03	8.263800E-16	1.774902E-17
4.470000E+03	8.210022E-16	1.752722E-17
4.480000E+03	8.159630E-16	1.731804E-17
4.490000E+03	8.116419E-16	1.712921E-17
4.500000E+03	8.083212E-16	1.696621E-17
4.510000E+03	8.062434E-16	1.683360E-17
4.520000E+03	8.055316E-16	1.673338E-17
4.530000E+03	8.062190E-16	1.666567E-17
4.540000E+03	8.082487E-16	1.662876E-17
4.550000E+03	8.114956E-16	1.661958E-17
4.560000E+03	8.157112E-16	1.663266E-17
4.570000E+03	8.206049E-16	1.666174E-17
4.580000E+03	8.258071E-16	1.669910E-17
4.590000E+03	8.309274E-16	1.673672E-17
4.600000E+03	8.355478E-16	1.676616E-17
4.610000E+03	8.392357E-16	1.677878E-17
4.620000E+03	8.416098E-16	1.676709E-17
4.630000E+03	8.423532E-16	1.672497E-17
4.640000E+03	8.412047E-16	1.664746E-17
4.650000E+03	8.379969E-16	1.653147E-17
4.660000E+03	8.326776E-16	1.637622E-17
4.670000E+03	8.253079E-16	1.618312E-17
4.680000E+03	8.160548E-16	1.595563E-17
4.690000E+03	8.052063E-16	1.569952E-17
4.700000E+03	7.931523E-16	1.542244E-17
4.710000E+03	7.803608E-16	1.513349E-17
4.720000E+03	7.673671E-16	1.484299E-17
4.730000E+03	7.547661E-16	1.456226E-17
4.740000E+03	7.431444E-16	1.430242E-17
4.750000E+03	7.330872E-16	1.407440E-17
4.760000E+03	7.251606E-16	1.388871E-17
4.770000E+03	7.198487E-16	1.375420E-17
4.780000E+03	7.175600E-16	1.367820E-17
4.790000E+03	7.186398E-16	1.366677E-17
4.800000E+03	7.233042E-16	1.372349E-17
4.810000E+03	7.316652E-16	1.384992E-17
4.820000E+03	7.437200E-16	1.404545E-17
4.830000E+03	7.593032E-16	1.430639E-17
4.840000E+03	7.781016E-16	1.462632E-17
4.850000E+03	7.996526E-16	1.499605E-17
4.860000E+03	8.233691E-16	1.540415E-17
4.870000E+03	8.485245E-16	1.583668E-17
4.880000E+03	8.742934E-16	1.627797E-17
4.890000E+03	8.998310E-16	1.671213E-17
4.900000E+03	9.242742E-16	1.712311E-17
4.910000E+03	9.468434E-16	1.749654E-17
4.920000E+03	9.668674E-16	1.782019E-17
4.930000E+03	9.838336E-16	1.808492E-17
4.940000E+03	9.974225E-16	1.828521E-17
4.950000E+03	1.007493E-15	1.841889E-17
4.960000E+03	1.014078E-15	1.848702E-17
4.970000E+03	1.017364E-15	1.849348E-17
4.980000E+03	1.017633E-15	1.844384E-17
4.990000E+03	1.015231E-15	1.834478E-17
5.000000E+03	1.010525E-15	1.820337E-17
5.010000E+03	1.003898E-15	1.802682E-17
5.020000E+03	9.956745E-16	1.782129E-17
5.030000E+03	9.861651E-16	1.759260E-17
5.040000E+03	9.756376E-16	1.734576E-17
5.050000E+03	9.643461E-16	1.708550E-17
5.060000E+03	9.525142E-16	1.681593E-17
5.070000E+03	9.403956E-16	1.654166E-17
5.080000E+03	9.282257E-16	1.626692E-17
5.090000E+03	9.162812E-16	1.599661E-17
5.100000E+03	9.048213E-16	1.573524E-17
5.110000E+03	8.941163E-16	1.548745E-17
5.120000E+03	8.844418E-16	1.525789E-17
5.130000E+03	8.760284E-16	1.505036E-17
5.140000E+03	8.690637E-16	1.486787E-17
5.150000E+03	8.636725E-16	1.471227E-17
5.160000E+03	8.599499E-16	1.458488E-17
5.170000E+03	8.578896E-16	1.448527E-17
5.180000E+03	8.574278E-16	1.441203E-17
5.190000E+03	8.584502E-16	1.436294E-17
5.200000E+03	8.607848E-16	1.433483E-17
5.210000E+03	8.642240E-16	1.432400E-17
5.220000E+03	8.685482E-16	1.432661E-17
5.230000E+03	8.735316E-16	1.433879E-17
5.240000E+03	8.789384E-16	1.435660E-17
5.250000E+03	8.845592E-16	1.437657E-17
5.260000E+03	8.902276E-16	1.439604E-17
5.270000E+03	8.957801E-16	1.441242E-17
5.280000E+03	9.011005E-16	1.442396E-17
5.290000E+03	9.060907E-16	1.442923E-17
5.300000E+03	9.106848E-16	1.442736E-17
5.310000E+03	9.148163E-16	1.441748E-17
5.320000E+03	9.184400E-16	1.439909E-17
5.330000E+03	9.215366E-16	1.437213E-17
5.340000E+03	9.240733E-16	1.433630E-17
5.350000E+03	9.260110E-16	1.429124E-17
5.360000E+03	9.273234E-16	1.423682E-17
5.370000E+03	9.280082E-16	1.417325E-17
5.380000E+03	9.280537E-16	1.410062E-17
5.390000E+03	9.274424E-16	1.401892E-17
5.400000E+03	9.262208E-16	1.392913E-17
5.410000E+03	9.244106E-16	1.383180E-17
5.420000E+03	9.220952E-16	1.372844E-17
5.430000E+03	9.193573E-16	1.362047E-17
5.440000E+03	9.163159E-16	1.350985E-17
5.450000E+03	9.131248E-16	1.339900E-17
5.460000E+03	9.099517E-16	1.329049E-17
5.470000E+03	9.069735E-16	1.318699E-17
5.480000E+03	9.043994E-16	1.309156E-17
5.490000E+03	9.024380E-16	1.300721E-17
5.500000E+03	9.011984E-16	1.293531E-17
5.510000E+03	9.005470E-16	1.287370E-17
5.520000E+03	9.002731E-16	1.281913E-17
5.530000E+03	9.001939E-16	1.276882E-17
5.540000E+03	9.001492E-16	1.272035E-17
5.550000E+03	8.999890E-16	1.267147E-17
5.560000E+03	8.995687E-16	1.262003E-17
5.570000E+03	8.987988E-16	1.256471E-17
5.580000E+03	8.976195E-16	1.250458E-17
5.590000E+03	8.959657E-16	1.243866E-17
5.600000E+03	8.938447E-16	1.236702E-17
5.610000E+03	8.912701E-16	1.228976E-17
5.620000E+03	8.882564E-16	1.220703E-17
5.630000E+03	8.848580E-16	1.211952E-17
5.640000E+03	8.811200E-16	1.202778E-17
5.650000E+03	8.771089E-16	1.193265E-17
5.660000E+03	8.728746E-16	1.183474E-17
5.670000E+03	8.684669E-16	1.173466E-17
5.680000E+03	8.639523E-16	1.163324E-17
5.690000E+03	8.593801E-16	1.153107E-17
5.700000E+03	8.548090E-16	1.142886E-17
5.710000E+03	8.503006E-16	1.132735E-17
5.720000E+03	8.459103E-16	1.122722E-17
5.730000E+03	8.417059E-16	1.112929E-17
5.740000E+03	8.377580E-16	1.103439E-17
5.750000E+03	8.341303E-16	1.094328E-17
5.760000E+03	8.309029E-16	1.085691E-17
5.770000E+03	8.281285E-16	1.077588E-17
5.780000E+03	8.258872E-16	1.070111E-17
5.790000E+03	8.242104E-16	1.063290E-17
5.800000E+03	8.231602E-16	1.057193E-17
5.810000E+03	8.227543E-16	1.051829E-17
5.820000E+03	8.230212E-16	1.047223E-17
5.830000E+03	8.239590E-16	1.043358E-17
5.840000E+03	8.255586E-16	1.040211E-17
5.850000E+03	8.277877E-16	1.037729E-17
5.860000E+03	8.306141E-16	1.035859E-17
5.870000E+03	8.339659E-16	1.034503E-17
5.880000E+03	8.377811E-16	1.033575E-17
5.890000E+03	8.419756E-16	1.032964E-17
5.900000E+03	8.464464E-16	1.032540E-17
5.910000E+03	8.510909E-16	1.032177E-17
5.920000E+03	8.557952E-16	1.031739E-17
5.930000E+03	8.604651E-16	1.031118E-17
5.940000E+03	8.649986E-16	1.030199E-17
5.950000E+03	8.693097E-16	1.028893E-17
5.960000E+03	8.733594E-16	1.027168E-17
5.970000E+03	8.770940E-16	1.024976E-17
5.980000E+03	8.805330E-16	1.022362E-17
5.990000E+03	8.837038E-16	1.019375E-17
6.000000E+03	8.866677E-16	1.016107E-17
6.010000E+03	8.895264E-16	1.012694E-17
6.020000E+03	8.924193E-16	1.009314E-17
6.030000E+03	8.954927E-16	1.006149E-17
6.040000E+03	8.989082E-16	1.003396E-17
6.050000E+03	9.028510E-16	1.001274E-17
6.060000E+03	9.074815E-16	9.999720E-18
6.070000E+03	9.129476E-16	9.996630E-18
6.080000E+03	9.193626E-16	1.000480E-17
6.090000E+03	9.267825E-16	1.002496E-17
6.100000E+03	9.352118E-16	1.005726E-17
6.110000E+03	9.445798E-16	1.010113E-17
6.120000E+03	9.547126E-16	1.015491E-17
6.130000E+03	9.653285E-16	1.021593E-17
6.140000E+03	9.759900E-16	1.027992E-17
6.150000E+03	9.860910E-16	1.034098E-17
6.160000E+03	9.948001E-16	1.039099E-17
6.170000E+03	1.001096E-15	1.041996E-17
6.180000E+03	1.003715E-15	1.041551E-17
6.190000E+03	1.001248E-15	1.036379E-17
6.200000E+03	9.932908E-16	1.026135E-17
6.210000E+03	9.811459E-16	1.012216E-17
6.220000E+03	9.660945E-16	9.959698E-18
6.230000E+03	9.492805E-16	9.785627E-18
6.240000E+03	9.315887E-16	9.608743E-18
6.250000E+03	9.136950E-16	9.435647E-18
6.260000E+03	8.960401E-16	9.270521E-18
6.270000E+03	8.788721E-16	9.115577E-18
6.280000E+03	8.622323E-16	8.970916E-18
6.290000E+03	8.459971E-16	8.834934E-18
6.300000E+03	8.299514E-16	8.705065E-18
6.310000E+03	8.137680E-16	8.577535E-18
6.320000E+03	7.971231E-16	8.448531E-18
6.330000E+03	7.796796E-16	8.314010E-18
6.340000E+03	7.611652E-16	8.170517E-18
6.350000E+03	7.414003E-16	8.015480E-18
6.360000E+03	7.203610E-16	7.847935E-18
6.370000E+03	6.981900E-16	7.668690E-18
6.380000E+03	6.752128E-16	7.480597E-18
6.390000E+03	6.519908E-16	7.289238E-18
6.400000E+03	6.292466E-16	7.102234E-18
6.410000E+03	6.078731E-16	6.929473E-18
6.420000E+03	5.888735E-16	6.782554E-18
6.430000E+03	5.732723E-16	6.673876E-18
6.440000E+03	5.621263E-16	6.616837E-18
6.450000E+03	5.564418E-16	6.624899E-18
6.460000E+03	5.571829E-16	6.711649E-18
6.470000E+03	5.652794E-16	6.890962E-18
6.480000E+03	5.816425E-16	7.177219E-18
6.490000E+03	6.071755E-16	7.585453E-18
6.500000E+03	6.427759E-16	8.131378E-18
6.510000E+03	6.892796E-16	8.830683E-18
6.520000E+03	7.474574E-16	9.698946E-18
6.530000E+03	8.179209E-16	1.075034E-17
6.540000E+03	9.001544E-16	1.198459E-17
6.550000E+03	9.915846E-16	1.337347E-17
6.560000E+03	1.088440E-15	1.487066E-17
6.570000E+03	1.185946E-15	1.641336E-17
6.580000E+03	1.278732E-15	1.792694E-17
6.590000E+03	1.361498E-15	1.933383E-17
6.600000E+03	1.429667E-15	2.056284E-17
6.610000E+03	1.479951E-15	2.155810E-17
6.620000E+03	1.510731E-15	2.228575E-17
6.630000E+03	1.522032E-15	2.273515E-17
6.640000E+03	1.515335E-15	2.291763E-17
6.650000E+03	1.493187E-15	2.286180E-17
6.660000E+03	1.458702E-15	2.260702E-17
6.670000E+03	1.415104E-15	2.219664E-17
6.680000E+03	1.365516E-15	2.167490E-17
6.690000E+03	1.312530E-15	2.107984E-17
6.700000E+03	1.258286E-15	2.044418E-17
6.710000E+03	1.204350E-15	1.979281E-17
6.720000E+03	1.151775E-15	1.914334E-17
6.730000E+03	1.101298E-15	1.850885E-17
6.740000E+03	1.053344E-15	1.789772E-17
6.750000E+03	1.008175E-15	1.731582E-17
6.760000E+03	9.659456E-16	1.676741E-17
6.770000E+03	9.267593E-16	1.625593E-17
6.780000E+03	8.906459E-16	1.578362E-17
6.790000E+03	8.576438E-16	1.535288E-17
6.800000E+03	8.277499E-16	1.496538E-17
6.810000E+03	8.009266E-16	1.462216E-17
6.820000E+03	7.770944E-16	1.432343E-17
6.830000E+03	7.561164E-16	1.406826E-17
6.840000E+03	7.378265E-16	1.385508E-17
6.850000E+03	7.219909E-16	1.368088E-17
6.860000E+03	7.083460E-16	1.354193E-17
6.870000E+03	6.966095E-16	1.343391E-17
6.880000E+03	6.864770E-16	1.335188E-17
6.890000E+03	6.776321E-16	1.329046E-17
6.900000E+03	6.698117E-16	1.324509E-17
6.910000E+03	6.627949E-16	1.321188E-17
6.920000E+03	6.563885E-16	1.318735E-17
6.930000E+03	6.504880E-16	1.316967E-17
6.940000E+03	6.450379E-16	1.315797E-17
6.950000E+03	6.400310E-16	1.315233E-17
6.960000E+03	6.354821E-16	1.315324E-17
6.970000E+03	6.314257E-16	1.316166E-17
6.980000E+03	6.278965E-16	1.317853E-17
6.990000E+03	6.248876E-16	1.320395E-17
7.000000E+03	6.223693E-16	1.323751E-17
7.010000E+03	6.202871E-16	1.327825E-17
7.020000E+03	6.185323E-16	1.332401E-17
7.030000E+03	6.170140E-16	1.337297E-17
7.040000E+03	6.156005E-16	1.342234E-17
7.050000E+03	6.141937E-16	1.347001E-17
7.060000E+03	6.126948E-16	1.351382E-17
7.070000E+03	6.110466E-16	1.355247E-17
7.080000E+03	6.092089E-16	1.358500E-17
7.090000E+03	6.071600E-16	1.361089E-17
7.100000E+03	6.049122E-16	1.363035E-17
7.110000E+03	6.025101E-16	1.364433E-17
7.120000E+03	6.000006E-16	1.365387E-17
7.130000E+03	5.974554E-16	1.366059E-17
7.140000E+03	5.949559E-16	1.366637E-17
7.150000E+03	5.925869E-16	1.367321E-17
7.160000E+03	5.904294E-16	1.368305E-17
7.170000E+03	5.885540E-16	1.369762E-17
7.180000E+03	5.870163E-16	1.371832E-17
7.190000E+03	5.858514E-16	1.374610E-17
7.200000E+03	5.850616E-16	1.378113E-17
7.210000E+03	5.846395E-16	1.382335E-17
7.220000E+03	5.845421E-16	1.387187E-17
7.230000E+03	5.846924E-16	1.392495E-17
7.240000E+03	5.850129E-16	1.398081E-17
7.250000E+03	5.854080E-16	1.403721E-17
7.260000E+03	5.857740E-16	1.409169E-17
7.270000E+03	5.860364E-16	1.414248E-17
7.280000E+03	5.861305E-16	1.418799E-17
7.290000E+03	5.860043E-16	1.422694E-17
7.300000E+03	5.856347E-16	1.425875E-17
7.310000E+03	5.850236E-16	1.428344E-17
7.320000E+03	5.841735E-16	1.430105E-17
7.330000E+03	5.830810E-16	1.431148E-17
7.340000E+03	5.817600E-16	1.431505E-17
7.350000E+03	5.802111E-16	1.431179E-17
7.360000E+03	5.784226E-16	1.430138E-17
7.370000E+03	5.763988E-16	1.428394E-17
7.380000E+03	5.741366E-16	1.425940E-17
7.390000E+03	5.716289E-16	1.422757E-17
7.400000E+03	5.688852E-16	1.418871E-17
7.410000E+03	5.659431E-16	1.414376E-17
7.420000E+03	5.628059E-16	1.409282E-17
7.430000E+03	5.595332E-16	1.403742E-17
7.440000E+03	5.561682E-16	1.397866E-17
7.450000E+03	5.527736E-16	1.391817E-17
7.460000E+03	5.494204E-16	1.385778E-17
7.470000E+03	5.461773E-16	1.379929E-17
7.480000E+03	5.431326E-16	1.374499E-17
7.490000E+03	5.403542E-16	1.369669E-17
7.500000E+03	5.379261E-16	1.365660E-17
7.510000E+03	5.358890E-16	1.362585E-17
7.520000E+03	5.342776E-16	1.360542E-17
7.530000E+03	5.330804E-16	1.359511E-17
7.540000E+03	5.322725E-16	1.359438E-17
7.550000E+03	5.317897E-16	1.360169E-17
7.560000E+03	5.315377E-16	1.361471E-17
7.570000E+03	5.313956E-16	1.363040E-17
7.580000E+03	5.312166E-16	1.364508E-17
7.590000E+03	5.308323E-16	1.365444E-17
7.600000E+03	5.300603E-16	1.365383E-17
7.610000E+03	5.287309E-16	1.363889E-17
7.620000E+03	5.266757E-16	1.360524E-17
7.630000E+03	5.238167E-16	1.355086E-17
7.640000E+03	5.201158E-16	1.347472E-17
7.650000E+03	5.156505E-16	1.337879E-17
7.660000E+03	5.105450E-16	1.326625E-17
7.670000E+03	5.049872E-16	1.314197E-17
7.680000E+03	4.991977E-16	1.301168E-17
7.690000E+03	4.934086E-16	1.288147E-17
7.700000E+03	4.878529E-16	1.275747E-17
7.710000E+03	4.827255E-16	1.264484E-17
7.720000E+03	4.781978E-16	1.254818E-17
7.730000E+03	4.744106E-16	1.247132E-17
7.740000E+03	4.714356E-16	1.241628E-17
7.750000E+03	4.693378E-16	1.238496E-17
7.760000E+03	4.680842E-16	1.237665E-17
