#wls	flux	fluxerr
1.600000E+03	2.046285E-17	2.404612E-18
1.640000E+03	2.072372E-17	2.430451E-18
1.680000E+03	2.099358E-17	2.457089E-18
1.720000E+03	2.127040E-17	2.484276E-18
1.760000E+03	2.155196E-17	2.511740E-18
1.800000E+03	2.183585E-17	2.539186E-18
1.840000E+03	2.211944E-17	2.566300E-18
1.880000E+03	2.239993E-17	2.592748E-18
1.920000E+03	2.268386E-17	2.619278E-18
1.960000E+03	2.295861E-17	2.644425E-18
2.000000E+03	2.323040E-17	2.668900E-18
2.040000E+03	2.350515E-17	2.693374E-18
2.080000E+03	2.376029E-17	2.715256E-18
2.120000E+03	2.401072E-17	2.736252E-18
2.160000E+03	2.424293E-17	2.754819E-18
2.200000E+03	2.446173E-17	2.771512E-18
2.240000E+03	2.467132E-17	2.786808E-18
2.280000E+03	2.484851E-17	2.798095E-18
2.320000E+03	2.500588E-17	2.806810E-18
2.360000E+03	2.513755E-17	2.812309E-18
2.400000E+03	2.522912E-17	2.813005E-18
2.440000E+03	2.528335E-17	2.809242E-18
2.480000E+03	2.528644E-17	2.799531E-18
2.520000E+03	2.524134E-17	2.784253E-18
2.560000E+03	2.515056E-17	2.763739E-18
2.600000E+03	2.500184E-17	2.736702E-18
2.640000E+03	2.479165E-17	2.702829E-18
2.680000E+03	2.453084E-17	2.663384E-18
2.720000E+03	2.420980E-17	2.617397E-18
2.760000E+03	2.383334E-17	2.565474E-18
2.800000E+03	2.339461E-17	2.506969E-18
2.840000E+03	2.291107E-17	2.443844E-18
2.880000E+03	2.237699E-17	2.375567E-18
2.920000E+03	2.179881E-17	2.302911E-18
2.960000E+03	2.117392E-17	2.225685E-18
3.000000E+03	2.051934E-17	2.145764E-18
3.010000E+03	2.034943E-17	2.125199E-18
3.020000E+03	2.017926E-17	2.104639E-18
3.030000E+03	2.000884E-17	2.084084E-18
3.040000E+03	1.983423E-17	2.063125E-18
3.050000E+03	1.965955E-17	2.042192E-18
3.060000E+03	1.948482E-17	2.021286E-18
3.070000E+03	1.930634E-17	2.000027E-18
3.080000E+03	1.912804E-17	1.978821E-18
3.090000E+03	1.894996E-17	1.957673E-18
3.100000E+03	1.877220E-17	1.936594E-18
3.110000E+03	1.859132E-17	1.915230E-18
3.120000E+03	1.841445E-17	1.894316E-18
3.130000E+03	1.823479E-17	1.873153E-18
3.140000E+03	1.805592E-17	1.852107E-18
3.150000E+03	1.787794E-17	1.831192E-18
3.160000E+03	1.770101E-17	1.810421E-18
3.170000E+03	1.752216E-17	1.789493E-18
3.180000E+03	1.734777E-17	1.769060E-18
3.190000E+03	1.717488E-17	1.748816E-18
3.200000E+03	1.700363E-17	1.728777E-18
3.210000E+03	1.683423E-17	1.708965E-18
3.220000E+03	1.666688E-17	1.689398E-18
3.230000E+03	1.650451E-17	1.670373E-18
3.240000E+03	1.634450E-17	1.651623E-18
3.250000E+03	1.618712E-17	1.633174E-18
3.260000E+03	1.603260E-17	1.615049E-18
3.270000E+03	1.588624E-17	1.597780E-18
3.280000E+03	1.574063E-17	1.580617E-18
3.290000E+03	1.560104E-17	1.564093E-18
3.300000E+03	1.546764E-17	1.548219E-18
3.310000E+03	1.534061E-17	1.533011E-18
3.320000E+03	1.521791E-17	1.518261E-18
3.330000E+03	1.510432E-17	1.504447E-18
3.340000E+03	1.499560E-17	1.491141E-18
3.350000E+03	1.489430E-17	1.478593E-18
3.360000E+03	1.480279E-17	1.467038E-18
3.370000E+03	1.471715E-17	1.456079E-18
3.380000E+03	1.464189E-17	1.446161E-18
3.390000E+03	1.457524E-17	1.437104E-18
3.400000E+03	1.451957E-17	1.429137E-18
3.410000E+03	1.447323E-17	1.422092E-18
3.420000E+03	1.443857E-17	1.416196E-18
3.430000E+03	1.441594E-17	1.411477E-18
3.440000E+03	1.440393E-17	1.407790E-18
3.450000E+03	1.440485E-17	1.405355E-18
3.460000E+03	1.442097E-17	1.404387E-18
3.470000E+03	1.444919E-17	1.404575E-18
3.480000E+03	1.449365E-17	1.406315E-18
3.490000E+03	1.455311E-17	1.409479E-18
3.500000E+03	1.462996E-17	1.414289E-18
3.510000E+03	1.472482E-17	1.420795E-18
3.520000E+03	1.483671E-17	1.428892E-18
3.530000E+03	1.496809E-17	1.438809E-18
3.540000E+03	1.511976E-17	1.450609E-18
3.550000E+03	1.529261E-17	1.464367E-18
3.560000E+03	1.548757E-17	1.480159E-18
3.570000E+03	1.570730E-17	1.498226E-18
3.580000E+03	1.595286E-17	1.518655E-18
3.590000E+03	1.622377E-17	1.541384E-18
3.600000E+03	1.652290E-17	1.566670E-18
3.610000E+03	1.685158E-17	1.594622E-18
3.620000E+03	1.720954E-17	1.625198E-18
3.630000E+03	1.760328E-17	1.658992E-18
3.640000E+03	1.802941E-17	1.695661E-18
3.650000E+03	1.849297E-17	1.735661E-18
3.660000E+03	1.899408E-17	1.778978E-18
3.670000E+03	1.953811E-17	1.826092E-18
3.680000E+03	2.012367E-17	1.876844E-18
3.690000E+03	2.075467E-17	1.931574E-18
3.700000E+03	2.143342E-17	1.990465E-18
3.710000E+03	2.216417E-17	2.053883E-18
3.720000E+03	2.294778E-17	2.121871E-18
3.730000E+03	2.378696E-17	2.194647E-18
3.740000E+03	2.468846E-17	2.272794E-18
3.750000E+03	2.565165E-17	2.356215E-18
3.760000E+03	2.668181E-17	2.445352E-18
3.770000E+03	2.778451E-17	2.540670E-18
3.780000E+03	2.896165E-17	2.642294E-18
3.790000E+03	3.021725E-17	2.750540E-18
3.800000E+03	3.155778E-17	2.865943E-18
3.810000E+03	3.298793E-17	2.988869E-18
3.820000E+03	3.451269E-17	3.119708E-18
3.830000E+03	3.613499E-17	3.258659E-18
3.840000E+03	3.786735E-17	3.406783E-18
3.850000E+03	3.970860E-17	3.563897E-18
3.860000E+03	4.166963E-17	3.730900E-18
3.870000E+03	4.375694E-17	3.908289E-18
3.880000E+03	4.597719E-17	4.096569E-18
3.890000E+03	4.833720E-17	4.296251E-18
3.900000E+03	5.084389E-17	4.507851E-18
3.910000E+03	5.350416E-17	4.731872E-18
3.920000E+03	5.632786E-17	4.969072E-18
3.930000E+03	5.931884E-17	5.219675E-18
3.940000E+03	6.248671E-17	5.484400E-18
3.950000E+03	6.583785E-17	5.763677E-18
3.960000E+03	6.937818E-17	6.057888E-18
3.970000E+03	7.311309E-17	6.367362E-18
3.980000E+03	7.705100E-17	6.692685E-18
3.990000E+03	8.118883E-17	7.033440E-18
4.000000E+03	8.554112E-17	7.390730E-18
4.010000E+03	9.010314E-17	7.763985E-18
4.020000E+03	9.488066E-17	8.153540E-18
4.030000E+03	9.987064E-17	8.558970E-18
4.040000E+03	1.050817E-16	8.980843E-18
4.050000E+03	1.105048E-16	9.418217E-18
4.060000E+03	1.161476E-16	9.871574E-18
4.070000E+03	1.220038E-16	1.034021E-17
4.080000E+03	1.280708E-16	1.082373E-17
4.090000E+03	1.343459E-16	1.132173E-17
4.100000E+03	1.408308E-16	1.183419E-17
4.110000E+03	1.475177E-16	1.236028E-17
4.120000E+03	1.544086E-16	1.289998E-17
4.130000E+03	1.614954E-16	1.345248E-17
4.140000E+03	1.687762E-16	1.401743E-17
4.150000E+03	1.762549E-16	1.459500E-17
4.160000E+03	1.839314E-16	1.518499E-17
4.170000E+03	1.918007E-16	1.578682E-17
4.180000E+03	1.998640E-16	1.640044E-17
4.190000E+03	2.081306E-16	1.702642E-17
4.200000E+03	2.165982E-16	1.766439E-17
4.210000E+03	2.252779E-16	1.831508E-17
4.220000E+03	2.341623E-16	1.897770E-17
4.230000E+03	2.432698E-16	1.965354E-17
4.240000E+03	2.525988E-16	2.034229E-17
4.250000E+03	2.621532E-16	2.104404E-17
4.260000E+03	2.719279E-16	2.175818E-17
4.270000E+03	2.819290E-16	2.248500E-17
4.280000E+03	2.921515E-16	2.322390E-17
4.290000E+03	3.025787E-16	2.397333E-17
4.300000E+03	3.132024E-16	2.473246E-17
4.310000E+03	3.239854E-16	2.549817E-17
4.320000E+03	3.349048E-16	2.626850E-17
4.330000E+03	3.459230E-16	2.704036E-17
4.340000E+03	3.569863E-16	2.780947E-17
4.350000E+03	3.680416E-16	2.857161E-17
4.360000E+03	3.790298E-16	2.932219E-17
4.370000E+03	3.898895E-16	3.005651E-17
4.380000E+03	4.005518E-16	3.076933E-17
4.390000E+03	4.109628E-16	3.145664E-17
4.400000E+03	4.210705E-16	3.211467E-17
4.410000E+03	4.308453E-16	3.274138E-17
4.420000E+03	4.402697E-16	3.333568E-17
4.430000E+03	4.493282E-16	3.389667E-17
4.440000E+03	4.580216E-16	3.442469E-17
4.450000E+03	4.663478E-16	3.491985E-17
4.460000E+03	4.743169E-16	3.538319E-17
4.470000E+03	4.819327E-16	3.581528E-17
4.480000E+03	4.892008E-16	3.621679E-17
4.490000E+03	4.961352E-16	3.658903E-17
4.500000E+03	5.027410E-16	3.693265E-17
4.510000E+03	5.090313E-16	3.724886E-17
4.520000E+03	5.150094E-16	3.753815E-17
4.530000E+03	5.206855E-16	3.780152E-17
4.540000E+03	5.260603E-16	3.803926E-17
4.550000E+03	5.311328E-16	3.825156E-17
4.560000E+03	5.359183E-16	3.843973E-17
4.570000E+03	5.404059E-16	3.860327E-17
4.580000E+03	5.446098E-16	3.874341E-17
4.590000E+03	5.485202E-16	3.885971E-17
4.600000E+03	5.521448E-16	3.895296E-17
4.610000E+03	5.554857E-16	3.902354E-17
4.620000E+03	5.585555E-16	3.907258E-17
4.630000E+03	5.613626E-16	3.910090E-17
4.640000E+03	5.639121E-16	3.910907E-17
4.650000E+03	5.662450E-16	3.910015E-17
4.660000E+03	5.683607E-16	3.907428E-17
4.670000E+03	5.703105E-16	3.903516E-17
4.680000E+03	5.721199E-16	3.898467E-17
4.690000E+03	5.738274E-16	3.892554E-17
4.700000E+03	5.754754E-16	3.886073E-17
4.710000E+03	5.771178E-16	3.879390E-17
4.720000E+03	5.788034E-16	3.872832E-17
4.730000E+03	5.805826E-16	3.866730E-17
4.740000E+03	5.824984E-16	3.861359E-17
4.750000E+03	5.846145E-16	3.857126E-17
4.760000E+03	5.869769E-16	3.854314E-17
4.770000E+03	5.896204E-16	3.853125E-17
4.780000E+03	5.925877E-16	3.853812E-17
4.790000E+03	5.959074E-16	3.856525E-17
4.800000E+03	5.995995E-16	3.861361E-17
4.810000E+03	6.036740E-16	3.868345E-17
4.820000E+03	6.081375E-16	3.877484E-17
4.830000E+03	6.129784E-16	3.888662E-17
4.840000E+03	6.181877E-16	3.901787E-17
4.850000E+03	6.237240E-16	3.916561E-17
4.860000E+03	6.295562E-16	3.932755E-17
4.870000E+03	6.356360E-16	3.950040E-17
4.880000E+03	6.419065E-16	3.968038E-17
4.890000E+03	6.483034E-16	3.986332E-17
4.900000E+03	6.547567E-16	4.004480E-17
4.910000E+03	6.611858E-16	4.021983E-17
4.920000E+03	6.675295E-16	4.038474E-17
4.930000E+03	6.737061E-16	4.053466E-17
4.940000E+03	6.796506E-16	4.066585E-17
4.950000E+03	6.852885E-16	4.077410E-17
4.960000E+03	6.905730E-16	4.085693E-17
4.970000E+03	6.954363E-16	4.091069E-17
4.980000E+03	6.998561E-16	4.093449E-17
4.990000E+03	7.037836E-16	4.092594E-17
5.000000E+03	7.072098E-16	4.088500E-17
5.010000E+03	7.101216E-16	4.081143E-17
5.020000E+03	7.125163E-16	4.070559E-17
5.030000E+03	7.144087E-16	4.056887E-17
5.040000E+03	7.158157E-16	4.040270E-17
5.050000E+03	7.167691E-16	4.020940E-17
5.060000E+03	7.173013E-16	3.999123E-17
5.070000E+03	7.174647E-16	3.975155E-17
5.080000E+03	7.172866E-16	3.949225E-17
5.090000E+03	7.168346E-16	3.921738E-17
5.100000E+03	7.161477E-16	3.892937E-17
5.110000E+03	7.152803E-16	3.863141E-17
5.120000E+03	7.142850E-16	3.832652E-17
5.130000E+03	7.132052E-16	3.801717E-17
5.140000E+03	7.120876E-16	3.770592E-17
5.150000E+03	7.109673E-16	3.739468E-17
5.160000E+03	7.098886E-16	3.708578E-17
5.170000E+03	7.088687E-16	3.678009E-17
5.180000E+03	7.079329E-16	3.647884E-17
5.190000E+03	7.071006E-16	3.618297E-17
5.200000E+03	7.063852E-16	3.589306E-17
5.210000E+03	7.057874E-16	3.560902E-17
5.220000E+03	7.053026E-16	3.533053E-17
5.230000E+03	7.049364E-16	3.505775E-17
5.240000E+03	7.046688E-16	3.478958E-17
5.250000E+03	7.044985E-16	3.452586E-17
5.260000E+03	7.044077E-16	3.426565E-17
5.270000E+03	7.043773E-16	3.400794E-17
5.280000E+03	7.043951E-16	3.375211E-17
5.290000E+03	7.044487E-16	3.349753E-17
5.300000E+03	7.045271E-16	3.324366E-17
5.310000E+03	7.046068E-16	3.298940E-17
5.320000E+03	7.046807E-16	3.273442E-17
5.330000E+03	7.047445E-16	3.247858E-17
5.340000E+03	7.047972E-16	3.222184E-17
5.350000E+03	7.048272E-16	3.196371E-17
5.360000E+03	7.048483E-16	3.170488E-17
5.370000E+03	7.048571E-16	3.144521E-17
5.380000E+03	7.048758E-16	3.118573E-17
5.390000E+03	7.049099E-16	3.092670E-17
5.400000E+03	7.049905E-16	3.066949E-17
5.410000E+03	7.051315E-16	3.041465E-17
5.420000E+03	7.053723E-16	3.016386E-17
5.430000E+03	7.057272E-16	2.991763E-17
5.440000E+03	7.062490E-16	2.967807E-17
5.450000E+03	7.069637E-16	2.944614E-17
5.460000E+03	7.079047E-16	2.922301E-17
5.470000E+03	7.091109E-16	2.901007E-17
5.480000E+03	7.106089E-16	2.880815E-17
5.490000E+03	7.124245E-16	2.861798E-17
5.500000E+03	7.145568E-16	2.843922E-17
5.510000E+03	7.169986E-16	2.827128E-17
5.520000E+03	7.197374E-16	2.811337E-17
5.530000E+03	7.227454E-16	2.796410E-17
5.540000E+03	7.259823E-16	2.782167E-17
5.550000E+03	7.294265E-16	2.768504E-17
5.560000E+03	7.330203E-16	2.755183E-17
5.570000E+03	7.367423E-16	2.742113E-17
5.580000E+03	7.405589E-16	2.729160E-17
5.590000E+03	7.444237E-16	2.716148E-17
5.600000E+03	7.483154E-16	2.702999E-17
5.610000E+03	7.522088E-16	2.689626E-17
5.620000E+03	7.560741E-16	2.675928E-17
5.630000E+03	7.598928E-16	2.661849E-17
5.640000E+03	7.636423E-16	2.647322E-17
5.650000E+03	7.673258E-16	2.632371E-17
5.660000E+03	7.709124E-16	2.616906E-17
5.670000E+03	7.744119E-16	2.600977E-17
5.680000E+03	7.777998E-16	2.584520E-17
5.690000E+03	7.810925E-16	2.567608E-17
5.700000E+03	7.842870E-16	2.550251E-17
5.710000E+03	7.873755E-16	2.532443E-17
5.720000E+03	7.903838E-16	2.514288E-17
5.730000E+03	7.933105E-16	2.495798E-17
5.740000E+03	7.961794E-16	2.477068E-17
5.750000E+03	7.989865E-16	2.458102E-17
5.760000E+03	8.017679E-16	2.439029E-17
5.770000E+03	8.045388E-16	2.419909E-17
5.780000E+03	8.073146E-16	2.400803E-17
5.790000E+03	8.101108E-16	2.381769E-17
5.800000E+03	8.129581E-16	2.362911E-17
5.810000E+03	8.158615E-16	2.344251E-17
5.820000E+03	8.188390E-16	2.325854E-17
5.830000E+03	8.219128E-16	2.307792E-17
5.840000E+03	8.250691E-16	2.290035E-17
5.850000E+03	8.283200E-16	2.272628E-17
5.860000E+03	8.316642E-16	2.255580E-17
5.870000E+03	8.350703E-16	2.238820E-17
5.880000E+03	8.385480E-16	2.222392E-17
5.890000E+03	8.420454E-16	2.206176E-17
5.900000E+03	8.455529E-16	2.190172E-17
5.910000E+03	8.490317E-16	2.174308E-17
5.920000E+03	8.524314E-16	2.158486E-17
5.930000E+03	8.557308E-16	2.142689E-17
5.940000E+03	8.588670E-16	2.126800E-17
5.950000E+03	8.618093E-16	2.110790E-17
5.960000E+03	8.645194E-16	2.094614E-17
5.970000E+03	8.669450E-16	2.078198E-17
5.980000E+03	8.690606E-16	2.061537E-17
5.990000E+03	8.708276E-16	2.044598E-17
6.000000E+03	8.722103E-16	2.027357E-17
6.010000E+03	8.731921E-16	2.009839E-17
6.020000E+03	8.737425E-16	1.992034E-17
6.030000E+03	8.738403E-16	1.973958E-17
6.040000E+03	8.734571E-16	1.955607E-17
6.050000E+03	8.725721E-16	1.936996E-17
6.060000E+03	8.711640E-16	1.918137E-17
6.070000E+03	8.692104E-16	1.899038E-17
6.080000E+03	8.666884E-16	1.879705E-17
6.090000E+03	8.635758E-16	1.860140E-17
6.100000E+03	8.598445E-16	1.840330E-17
6.110000E+03	8.554878E-16	1.820304E-17
6.120000E+03	8.504910E-16	1.800069E-17
6.130000E+03	8.448752E-16	1.779700E-17
6.140000E+03	8.386443E-16	1.759230E-17
6.150000E+03	8.318503E-16	1.738785E-17
6.160000E+03	8.245371E-16	1.718464E-17
6.170000E+03	8.167818E-16	1.698429E-17
6.180000E+03	8.086286E-16	1.678766E-17
6.190000E+03	8.001415E-16	1.659585E-17
6.200000E+03	7.913188E-16	1.640837E-17
6.210000E+03	7.821312E-16	1.622406E-17
6.220000E+03	7.725443E-16	1.604162E-17
6.230000E+03	7.625024E-16	1.585927E-17
6.240000E+03	7.519800E-16	1.567581E-17
6.250000E+03	7.409671E-16	1.549031E-17
6.260000E+03	7.294709E-16	1.530217E-17
6.270000E+03	7.175369E-16	1.511159E-17
6.280000E+03	7.052237E-16	1.491900E-17
6.290000E+03	6.926080E-16	1.472525E-17
6.300000E+03	6.797877E-16	1.453166E-17
6.310000E+03	6.668669E-16	1.433972E-17
6.320000E+03	6.539531E-16	1.415107E-17
6.330000E+03	6.411823E-16	1.396803E-17
6.340000E+03	6.286782E-16	1.379278E-17
6.350000E+03	6.165837E-16	1.362802E-17
6.360000E+03	6.050396E-16	1.347652E-17
6.370000E+03	5.941964E-16	1.334143E-17
6.380000E+03	5.841941E-16	1.322584E-17
6.390000E+03	5.751853E-16	1.313324E-17
6.400000E+03	5.673151E-16	1.306715E-17
6.410000E+03	5.607261E-16	1.303123E-17
6.420000E+03	5.555622E-16	1.302931E-17
6.430000E+03	5.519562E-16	1.306517E-17
6.440000E+03	5.500335E-16	1.314255E-17
6.450000E+03	5.499116E-16	1.326522E-17
6.460000E+03	5.517041E-16	1.343697E-17
6.470000E+03	5.555023E-16	1.366123E-17
6.480000E+03	5.614019E-16	1.394168E-17
6.490000E+03	5.694657E-16	1.428131E-17
6.500000E+03	5.797604E-16	1.468331E-17
6.510000E+03	5.923042E-16	1.514974E-17
6.520000E+03	6.070941E-16	1.568218E-17
6.530000E+03	6.240842E-16	1.628109E-17
6.540000E+03	6.431742E-16	1.694550E-17
6.550000E+03	6.641887E-16	1.767232E-17
6.560000E+03	6.869157E-16	1.845736E-17
6.570000E+03	7.110535E-16	1.929373E-17
6.580000E+03	7.362562E-16	2.017304E-17
6.590000E+03	7.621187E-16	2.108487E-17
6.600000E+03	7.882008E-16	2.201740E-17
6.610000E+03	8.140230E-16	2.295721E-17
6.620000E+03	8.390986E-16	2.389015E-17
6.630000E+03	8.629226E-16	2.480101E-17
6.640000E+03	8.850276E-16	2.567511E-17
6.650000E+03	9.049738E-16	2.649806E-17
6.660000E+03	9.223865E-16	2.725691E-17
6.670000E+03	9.369389E-16	2.793976E-17
6.680000E+03	9.483940E-16	2.853701E-17
6.690000E+03	9.566237E-16	2.904215E-17
6.700000E+03	9.615446E-16	2.944991E-17
6.710000E+03	9.631813E-16	2.975825E-17
6.720000E+03	9.616489E-16	2.996801E-17
6.730000E+03	9.571211E-16	3.008204E-17
6.740000E+03	9.498293E-16	3.010517E-17
6.750000E+03	9.400487E-16	3.004395E-17
6.760000E+03	9.280737E-16	2.990583E-17
6.770000E+03	9.142270E-16	2.969953E-17
6.780000E+03	8.988470E-16	2.943463E-17
6.790000E+03	8.822552E-16	2.912054E-17
6.800000E+03	8.647382E-16	2.876586E-17
6.810000E+03	8.466042E-16	2.838022E-17
6.820000E+03	8.281145E-16	2.797200E-17
6.830000E+03	8.094827E-16	2.754822E-17
6.840000E+03	7.909233E-16	2.711619E-17
6.850000E+03	7.726110E-16	2.668204E-17
6.860000E+03	7.546919E-16	2.625110E-17
6.870000E+03	7.372760E-16	2.582757E-17
6.880000E+03	7.204671E-16	2.541556E-17
6.890000E+03	7.043284E-16	2.501780E-17
6.900000E+03	6.889124E-16	2.463675E-17
6.910000E+03	6.742628E-16	2.427456E-17
6.920000E+03	6.603832E-16	2.393196E-17
6.930000E+03	6.472897E-16	2.361018E-17
6.940000E+03	6.349799E-16	2.330973E-17
6.950000E+03	6.234350E-16	2.303053E-17
6.960000E+03	6.126451E-16	2.277280E-17
6.970000E+03	6.025794E-16	2.253596E-17
6.980000E+03	5.932186E-16	2.231984E-17
6.990000E+03	5.845176E-16	2.212325E-17
7.000000E+03	5.764521E-16	2.194577E-17
7.010000E+03	5.689891E-16	2.178658E-17
7.020000E+03	5.620876E-16	2.164456E-17
7.030000E+03	5.557211E-16	2.151908E-17
7.040000E+03	5.498495E-16	2.140897E-17
7.050000E+03	5.444404E-16	2.131331E-17
7.060000E+03	5.394696E-16	2.123147E-17
7.070000E+03	5.348937E-16	2.116204E-17
7.080000E+03	5.306913E-16	2.110446E-17
7.090000E+03	5.268362E-16	2.105791E-17
7.100000E+03	5.232966E-16	2.102138E-17
7.110000E+03	5.200566E-16	2.099444E-17
7.120000E+03	5.170882E-16	2.097614E-17
7.130000E+03	5.143717E-16	2.096587E-17
7.140000E+03	5.118894E-16	2.096308E-17
7.150000E+03	5.096243E-16	2.096722E-17
7.160000E+03	5.075611E-16	2.097780E-17
7.170000E+03	5.056850E-16	2.099435E-17
7.180000E+03	5.039755E-16	2.101613E-17
7.190000E+03	5.024258E-16	2.104298E-17
7.200000E+03	5.010160E-16	2.107415E-17
7.210000E+03	4.997329E-16	2.110918E-17
7.220000E+03	4.985699E-16	2.114789E-17
7.230000E+03	4.974998E-16	2.118919E-17
7.240000E+03	4.965219E-16	2.123313E-17
7.250000E+03	4.956081E-16	2.127855E-17
7.260000E+03	4.947568E-16	2.132545E-17
7.270000E+03	4.939320E-16	2.137231E-17
7.280000E+03	4.931379E-16	2.141935E-17
7.290000E+03	4.923448E-16	2.146531E-17
7.300000E+03	4.915430E-16	2.150978E-17
7.310000E+03	4.907096E-16	2.155178E-17
7.320000E+03	4.898289E-16	2.159061E-17
7.330000E+03	4.888924E-16	2.162590E-17
7.340000E+03	4.878793E-16	2.165672E-17
7.350000E+03	4.867767E-16	2.168249E-17
7.360000E+03	4.855800E-16	2.170297E-17
7.370000E+03	4.842661E-16	2.171712E-17
7.380000E+03	4.828405E-16	2.172516E-17
7.390000E+03	4.812844E-16	2.172621E-17
7.400000E+03	4.796076E-16	2.172068E-17
7.410000E+03	4.777954E-16	2.170788E-17
7.420000E+03	4.758621E-16	2.168844E-17
7.430000E+03	4.737974E-16	2.166185E-17
7.440000E+03	4.716130E-16	2.162863E-17
7.450000E+03	4.693224E-16	2.158937E-17
7.460000E+03	4.669141E-16	2.154353E-17
7.470000E+03	4.644181E-16	2.149249E-17
7.480000E+03	4.618318E-16	2.143611E-17
7.490000E+03	4.591742E-16	2.137527E-17
7.500000E+03	4.564576E-16	2.131055E-17
7.510000E+03	4.536952E-16	2.124256E-17
7.520000E+03	4.509066E-16	2.117226E-17
7.530000E+03	4.480917E-16	2.109965E-17
7.540000E+03	4.452766E-16	2.102598E-17
7.550000E+03	4.424740E-16	2.095189E-17
7.560000E+03	4.396893E-16	2.087766E-17
7.570000E+03	4.369472E-16	2.080451E-17
7.580000E+03	4.342391E-16	2.073208E-17
7.590000E+03	4.315949E-16	2.066183E-17
7.600000E+03	4.290175E-16	2.059397E-17
7.610000E+03	4.265224E-16	2.052928E-17
7.620000E+03	4.241050E-16	2.046762E-17
7.630000E+03	4.217855E-16	2.041001E-17
7.640000E+03	4.195706E-16	2.035684E-17
7.650000E+03	4.174598E-16	2.030816E-17
7.660000E+03	4.154647E-16	2.026460E-17
7.670000E+03	4.135893E-16	2.022643E-17
7.680000E+03	4.118370E-16	2.019388E-17
7.690000E+03	4.102101E-16	2.016715E-17
7.700000E+03	4.087098E-16	2.014636E-17
7.710000E+03	4.073425E-16	2.013191E-17
7.720000E+03	4.061011E-16	2.012351E-17
7.730000E+03	4.049830E-16	2.012113E-17
7.740000E+03	4.039977E-16	2.012531E-17
7.750000E+03	4.031277E-16	2.013525E-17
7.760000E+03	4.023735E-16	2.015104E-17
