#wls	flux	fluxerr
1.600000E+03	2.088958E-17	1.347252E-18
1.640000E+03	2.115151E-17	1.360433E-18
1.680000E+03	2.141218E-17	1.373345E-18
1.720000E+03	2.167899E-17	1.386455E-18
1.760000E+03	2.194974E-17	1.399614E-18
1.800000E+03	2.221252E-17	1.412056E-18
1.840000E+03	2.248378E-17	1.424823E-18
1.880000E+03	2.274175E-17	1.436527E-18
1.920000E+03	2.300255E-17	1.448187E-18
1.960000E+03	2.325358E-17	1.459002E-18
2.000000E+03	2.350107E-17	1.469362E-18
2.040000E+03	2.373215E-17	1.478462E-18
2.080000E+03	2.395264E-17	1.486666E-18
2.120000E+03	2.416797E-17	1.494313E-18
2.160000E+03	2.436474E-17	1.500574E-18
2.200000E+03	2.453875E-17	1.505199E-18
2.240000E+03	2.469461E-17	1.508480E-18
2.280000E+03	2.482755E-17	1.510137E-18
2.320000E+03	2.494125E-17	1.510403E-18
2.360000E+03	2.502178E-17	1.508451E-18
2.400000E+03	2.507244E-17	1.504500E-18
2.440000E+03	2.507975E-17	1.497768E-18
2.480000E+03	2.504698E-17	1.488482E-18
2.520000E+03	2.496168E-17	1.475939E-18
2.560000E+03	2.483495E-17	1.460840E-18
2.600000E+03	2.464809E-17	1.442127E-18
2.640000E+03	2.441263E-17	1.420529E-18
2.680000E+03	2.411909E-17	1.395547E-18
2.720000E+03	2.377268E-17	1.367541E-18
2.760000E+03	2.337251E-17	1.336518E-18
2.800000E+03	2.291878E-17	1.302552E-18
2.840000E+03	2.241829E-17	1.266091E-18
2.880000E+03	2.187274E-17	1.227290E-18
2.920000E+03	2.128993E-17	1.186644E-18
2.960000E+03	2.067334E-17	1.144397E-18
3.000000E+03	2.002782E-17	1.100869E-18
3.010000E+03	1.986264E-17	1.089832E-18
3.020000E+03	1.969819E-17	1.078858E-18
3.030000E+03	1.953049E-17	1.067728E-18
3.040000E+03	1.936370E-17	1.056671E-18
3.050000E+03	1.919785E-17	1.045689E-18
3.060000E+03	1.902920E-17	1.034579E-18
3.070000E+03	1.886170E-17	1.023555E-18
3.080000E+03	1.869541E-17	1.012621E-18
3.090000E+03	1.852682E-17	1.001588E-18
3.100000E+03	1.835971E-17	9.906588E-19
3.110000E+03	1.819071E-17	9.796527E-19
3.120000E+03	1.802686E-17	9.689495E-19
3.130000E+03	1.786142E-17	9.581861E-19
3.140000E+03	1.769795E-17	9.475532E-19
3.150000E+03	1.753336E-17	9.368853E-19
3.160000E+03	1.737424E-17	9.265351E-19
3.170000E+03	1.721437E-17	9.161696E-19
3.180000E+03	1.706011E-17	9.061277E-19
3.190000E+03	1.690551E-17	8.960912E-19
3.200000E+03	1.675379E-17	8.862322E-19
3.210000E+03	1.660802E-17	8.767106E-19
3.220000E+03	1.646256E-17	8.672289E-19
3.230000E+03	1.632329E-17	8.580955E-19
3.240000E+03	1.618484E-17	8.490270E-19
3.250000E+03	1.605287E-17	8.403198E-19
3.260000E+03	1.592747E-17	8.319769E-19
3.270000E+03	1.580359E-17	8.237323E-19
3.280000E+03	1.568916E-17	8.159988E-19
3.290000E+03	1.557675E-17	8.083873E-19
3.300000E+03	1.547161E-17	8.011695E-19
3.310000E+03	1.537390E-17	7.943509E-19
3.320000E+03	1.528143E-17	7.878167E-19
3.330000E+03	1.519910E-17	7.818171E-19
3.340000E+03	1.512022E-17	7.760053E-19
3.350000E+03	1.505190E-17	7.707445E-19
3.360000E+03	1.499209E-17	7.659259E-19
3.370000E+03	1.494103E-17	7.615592E-19
3.380000E+03	1.489901E-17	7.576563E-19
3.390000E+03	1.486632E-17	7.542283E-19
3.400000E+03	1.484329E-17	7.512888E-19
3.410000E+03	1.483229E-17	7.489542E-19
3.420000E+03	1.483160E-17	7.471332E-19
3.430000E+03	1.484161E-17	7.458422E-19
3.440000E+03	1.486667E-17	7.452954E-19
3.450000E+03	1.490320E-17	7.453073E-19
3.460000E+03	1.495169E-17	7.458988E-19
3.470000E+03	1.501644E-17	7.472797E-19
3.480000E+03	1.509602E-17	7.493722E-19
3.490000E+03	1.518907E-17	7.521036E-19
3.500000E+03	1.529993E-17	7.556831E-19
3.510000E+03	1.542917E-17	7.601318E-19
3.520000E+03	1.557373E-17	7.652928E-19
3.530000E+03	1.573989E-17	7.714667E-19
3.540000E+03	1.592282E-17	7.784101E-19
3.550000E+03	1.612887E-17	7.864253E-19
3.560000E+03	1.635705E-17	7.954547E-19
3.570000E+03	1.660645E-17	8.054462E-19
3.580000E+03	1.688173E-17	8.166157E-19
3.590000E+03	1.718213E-17	8.289166E-19
3.600000E+03	1.750878E-17	8.423927E-19
3.610000E+03	1.786473E-17	8.571797E-19
3.620000E+03	1.824946E-17	8.732405E-19
3.630000E+03	1.866621E-17	8.907182E-19
3.640000E+03	1.911650E-17	9.096710E-19
3.650000E+03	1.960191E-17	9.301603E-19
3.660000E+03	2.012420E-17	9.522540E-19
3.670000E+03	2.068514E-17	9.760210E-19
3.680000E+03	2.128866E-17	1.001629E-18
3.690000E+03	2.193489E-17	1.029066E-18
3.700000E+03	2.262802E-17	1.058510E-18
3.710000E+03	2.336845E-17	1.089958E-18
3.720000E+03	2.416273E-17	1.123696E-18
3.730000E+03	2.500950E-17	1.159636E-18
3.740000E+03	2.591576E-17	1.198080E-18
3.750000E+03	2.688250E-17	1.239047E-18
3.760000E+03	2.791296E-17	1.282658E-18
3.770000E+03	2.901497E-17	1.329246E-18
3.780000E+03	3.018557E-17	1.378641E-18
3.790000E+03	3.143539E-17	1.431299E-18
3.800000E+03	3.276635E-17	1.487270E-18
3.810000E+03	3.418278E-17	1.546714E-18
3.820000E+03	3.569177E-17	1.609913E-18
3.830000E+03	3.729571E-17	1.676931E-18
3.840000E+03	3.900225E-17	1.748069E-18
3.850000E+03	4.081409E-17	1.823400E-18
3.860000E+03	4.274215E-17	1.903363E-18
3.870000E+03	4.478682E-17	1.987921E-18
3.880000E+03	4.695966E-17	2.077531E-18
3.890000E+03	4.926706E-17	2.172417E-18
3.900000E+03	5.171249E-17	2.272669E-18
3.910000E+03	5.430234E-17	2.378501E-18
3.920000E+03	5.704960E-17	2.490414E-18
3.930000E+03	5.995464E-17	2.608349E-18
3.940000E+03	6.303086E-17	2.732814E-18
3.950000E+03	6.628179E-17	2.863880E-18
3.960000E+03	6.971779E-17	3.001909E-18
3.970000E+03	7.334207E-17	3.146953E-18
3.980000E+03	7.716107E-17	3.299195E-18
3.990000E+03	8.118903E-17	3.459150E-18
4.000000E+03	8.542456E-17	3.626657E-18
4.010000E+03	8.988189E-17	3.802219E-18
4.020000E+03	9.456300E-17	3.985811E-18
4.030000E+03	9.947355E-17	4.177562E-18
4.040000E+03	1.046235E-16	4.377779E-18
4.050000E+03	1.100137E-16	4.586374E-18
4.060000E+03	1.156489E-16	4.803431E-18
4.070000E+03	1.215438E-16	5.029435E-18
4.080000E+03	1.276932E-16	5.264046E-18
4.090000E+03	1.341065E-16	5.507518E-18
4.100000E+03	1.407881E-16	5.759908E-18
4.110000E+03	1.477424E-16	6.021250E-18
4.120000E+03	1.549735E-16	6.291584E-18
4.130000E+03	1.624913E-16	6.571162E-18
4.140000E+03	1.702884E-16	6.859542E-18
4.150000E+03	1.783744E-16	7.156974E-18
4.160000E+03	1.867596E-16	7.463715E-18
4.170000E+03	1.954416E-16	7.779524E-18
4.180000E+03	2.044240E-16	8.104384E-18
4.190000E+03	2.137101E-16	8.438272E-18
4.200000E+03	2.233020E-16	8.781122E-18
4.210000E+03	2.332016E-16	9.132842E-18
4.220000E+03	2.434167E-16	9.493581E-18
4.230000E+03	2.539315E-16	9.862558E-18
4.240000E+03	2.647500E-16	1.023978E-17
4.250000E+03	2.758661E-16	1.062484E-17
4.260000E+03	2.872705E-16	1.101723E-17
4.270000E+03	2.989418E-16	1.141599E-17
4.280000E+03	3.108696E-16	1.182057E-17
4.290000E+03	3.230214E-16	1.222960E-17
4.300000E+03	3.353750E-16	1.264214E-17
4.310000E+03	3.478840E-16	1.305633E-17
4.320000E+03	3.604930E-16	1.347000E-17
4.330000E+03	3.731642E-16	1.388170E-17
4.340000E+03	3.858153E-16	1.428834E-17
4.350000E+03	3.983804E-16	1.468748E-17
4.360000E+03	4.107655E-16	1.507571E-17
4.370000E+03	4.228755E-16	1.544964E-17
4.380000E+03	4.346057E-16	1.580560E-17
4.390000E+03	4.458453E-16	1.613974E-17
4.400000E+03	4.565396E-16	1.645035E-17
4.410000E+03	4.666849E-16	1.673755E-17
4.420000E+03	4.763031E-16	1.700241E-17
4.430000E+03	4.854001E-16	1.724539E-17
4.440000E+03	4.939945E-16	1.746742E-17
4.450000E+03	5.021168E-16	1.766982E-17
4.460000E+03	5.097695E-16	1.785291E-17
4.470000E+03	5.169953E-16	1.801842E-17
4.480000E+03	5.237980E-16	1.816670E-17
4.490000E+03	5.302207E-16	1.829946E-17
4.500000E+03	5.362669E-16	1.841700E-17
4.510000E+03	5.419595E-16	1.852031E-17
4.520000E+03	5.473295E-16	1.861062E-17
4.530000E+03	5.523888E-16	1.868851E-17
4.540000E+03	5.571576E-16	1.875480E-17
4.550000E+03	5.616372E-16	1.880971E-17
4.560000E+03	5.658564E-16	1.885434E-17
4.570000E+03	5.698251E-16	1.888916E-17
4.580000E+03	5.735355E-16	1.891405E-17
4.590000E+03	5.770253E-16	1.893038E-17
4.600000E+03	5.802880E-16	1.893805E-17
4.610000E+03	5.833448E-16	1.893787E-17
4.620000E+03	5.862005E-16	1.893009E-17
4.630000E+03	5.888789E-16	1.891559E-17
4.640000E+03	5.913963E-16	1.889497E-17
4.650000E+03	5.937618E-16	1.886860E-17
4.660000E+03	5.959954E-16	1.883719E-17
4.670000E+03	5.981178E-16	1.880147E-17
4.680000E+03	6.001514E-16	1.876217E-17
4.690000E+03	6.021193E-16	1.872008E-17
4.700000E+03	6.040459E-16	1.867596E-17
4.710000E+03	6.059476E-16	1.863036E-17
4.720000E+03	6.078566E-16	1.858426E-17
4.730000E+03	6.097890E-16	1.853815E-17
4.740000E+03	6.117675E-16	1.849271E-17
4.750000E+03	6.138131E-16	1.844854E-17
4.760000E+03	6.159446E-16	1.840616E-17
4.770000E+03	6.181778E-16	1.836601E-17
4.780000E+03	6.205252E-16	1.832841E-17
4.790000E+03	6.230029E-16	1.829375E-17
4.800000E+03	6.256078E-16	1.826190E-17
4.810000E+03	6.283471E-16	1.823299E-17
4.820000E+03	6.312230E-16	1.820701E-17
4.830000E+03	6.342183E-16	1.818341E-17
4.840000E+03	6.373326E-16	1.816211E-17
4.850000E+03	6.405463E-16	1.814250E-17
4.860000E+03	6.438352E-16	1.812385E-17
4.870000E+03	6.471712E-16	1.810533E-17
4.880000E+03	6.505439E-16	1.808664E-17
4.890000E+03	6.539185E-16	1.806679E-17
4.900000E+03	6.572578E-16	1.804478E-17
4.910000E+03	6.605375E-16	1.801995E-17
4.920000E+03	6.637250E-16	1.799147E-17
4.930000E+03	6.667810E-16	1.795832E-17
4.940000E+03	6.696881E-16	1.792012E-17
4.950000E+03	6.724163E-16	1.787615E-17
4.960000E+03	6.749308E-16	1.782560E-17
4.970000E+03	6.772140E-16	1.776811E-17
4.980000E+03	6.792515E-16	1.770346E-17
4.990000E+03	6.810185E-16	1.763112E-17
5.000000E+03	6.825159E-16	1.755127E-17
5.010000E+03	6.837342E-16	1.746382E-17
5.020000E+03	6.846684E-16	1.736879E-17
5.030000E+03	6.853178E-16	1.726634E-17
5.040000E+03	6.856994E-16	1.715704E-17
5.050000E+03	6.858201E-16	1.704121E-17
5.060000E+03	6.856827E-16	1.691907E-17
5.070000E+03	6.853211E-16	1.679160E-17
5.080000E+03	6.847434E-16	1.665911E-17
5.090000E+03	6.839730E-16	1.652231E-17
5.100000E+03	6.830350E-16	1.638191E-17
5.110000E+03	6.819408E-16	1.623827E-17
5.120000E+03	6.807297E-16	1.609243E-17
5.130000E+03	6.794126E-16	1.594470E-17
5.140000E+03	6.780137E-16	1.579573E-17
5.150000E+03	6.765558E-16	1.564609E-17
5.160000E+03	6.750528E-16	1.549616E-17
5.170000E+03	6.735241E-16	1.534641E-17
5.180000E+03	6.719800E-16	1.519710E-17
5.190000E+03	6.704422E-16	1.504874E-17
5.200000E+03	6.689168E-16	1.490149E-17
5.210000E+03	6.674079E-16	1.475544E-17
5.220000E+03	6.659308E-16	1.461094E-17
5.230000E+03	6.644792E-16	1.446785E-17
5.240000E+03	6.630653E-16	1.432645E-17
5.250000E+03	6.616865E-16	1.418667E-17
5.260000E+03	6.603460E-16	1.404859E-17
5.270000E+03	6.590398E-16	1.391212E-17
5.280000E+03	6.577700E-16	1.377732E-17
5.290000E+03	6.565391E-16	1.364422E-17
5.300000E+03	6.553496E-16	1.351290E-17
5.310000E+03	6.541918E-16	1.338314E-17
5.320000E+03	6.530767E-16	1.325519E-17
5.330000E+03	6.520035E-16	1.312902E-17
5.340000E+03	6.509798E-16	1.300479E-17
5.350000E+03	6.500081E-16	1.288256E-17
5.360000E+03	6.490933E-16	1.276241E-17
5.370000E+03	6.482560E-16	1.264475E-17
5.380000E+03	6.475123E-16	1.252987E-17
5.390000E+03	6.468614E-16	1.241775E-17
5.400000E+03	6.463316E-16	1.230891E-17
5.410000E+03	6.459473E-16	1.220378E-17
5.420000E+03	6.457291E-16	1.210271E-17
5.430000E+03	6.457006E-16	1.200608E-17
5.440000E+03	6.458945E-16	1.191446E-17
5.450000E+03	6.463396E-16	1.182830E-17
5.460000E+03	6.470740E-16	1.174822E-17
5.470000E+03	6.481315E-16	1.167473E-17
5.480000E+03	6.495482E-16	1.160839E-17
5.490000E+03	6.513760E-16	1.154998E-17
5.500000E+03	6.536370E-16	1.149978E-17
5.510000E+03	6.563083E-16	1.145724E-17
5.520000E+03	6.593451E-16	1.142145E-17
5.530000E+03	6.627167E-16	1.139172E-17
5.540000E+03	6.663738E-16	1.136708E-17
5.550000E+03	6.702882E-16	1.134694E-17
5.560000E+03	6.744269E-16	1.133064E-17
5.570000E+03	6.787520E-16	1.131746E-17
5.580000E+03	6.832405E-16	1.130695E-17
5.590000E+03	6.878581E-16	1.129849E-17
5.600000E+03	6.925861E-16	1.129172E-17
5.610000E+03	6.973878E-16	1.128603E-17
5.620000E+03	7.022487E-16	1.128114E-17
5.630000E+03	7.071498E-16	1.127674E-17
5.640000E+03	7.120675E-16	1.127245E-17
5.650000E+03	7.169872E-16	1.126803E-17
5.660000E+03	7.218892E-16	1.126318E-17
5.670000E+03	7.267704E-16	1.125786E-17
5.680000E+03	7.316078E-16	1.125174E-17
5.690000E+03	7.364022E-16	1.124484E-17
5.700000E+03	7.411416E-16	1.123701E-17
5.710000E+03	7.458156E-16	1.122811E-17
5.720000E+03	7.504297E-16	1.121827E-17
5.730000E+03	7.549693E-16	1.120729E-17
5.740000E+03	7.594424E-16	1.119532E-17
5.750000E+03	7.638361E-16	1.118221E-17
5.760000E+03	7.681529E-16	1.116804E-17
5.770000E+03	7.724030E-16	1.115299E-17
5.780000E+03	7.765672E-16	1.113683E-17
5.790000E+03	7.806557E-16	1.111974E-17
5.800000E+03	7.846712E-16	1.110181E-17
5.810000E+03	7.885928E-16	1.108279E-17
5.820000E+03	7.924362E-16	1.106295E-17
5.830000E+03	7.961935E-16	1.104224E-17
5.840000E+03	7.998476E-16	1.102046E-17
5.850000E+03	8.033954E-16	1.099765E-17
5.860000E+03	8.068316E-16	1.097380E-17
5.870000E+03	8.101500E-16	1.094888E-17
5.880000E+03	8.133271E-16	1.092266E-17
5.890000E+03	8.163457E-16	1.089498E-17
5.900000E+03	8.192108E-16	1.086600E-17
5.910000E+03	8.218875E-16	1.083535E-17
5.920000E+03	8.243635E-16	1.080296E-17
5.930000E+03	8.266260E-16	1.076876E-17
5.940000E+03	8.286542E-16	1.073260E-17
5.950000E+03	8.304271E-16	1.069432E-17
5.960000E+03	8.319317E-16	1.065386E-17
5.970000E+03	8.331550E-16	1.061119E-17
5.980000E+03	8.340759E-16	1.056615E-17
5.990000E+03	8.346733E-16	1.051861E-17
6.000000E+03	8.349334E-16	1.046854E-17
6.010000E+03	8.348332E-16	1.041576E-17
6.020000E+03	8.343564E-16	1.036023E-17
6.030000E+03	8.334845E-16	1.030183E-17
6.040000E+03	8.321890E-16	1.024036E-17
6.050000E+03	8.304392E-16	1.017558E-17
6.060000E+03	8.282090E-16	1.010730E-17
6.070000E+03	8.254705E-16	1.003532E-17
6.080000E+03	8.221941E-16	9.959397E-18
6.090000E+03	8.183346E-16	9.879121E-18
6.100000E+03	8.138793E-16	9.794455E-18
6.110000E+03	8.087890E-16	9.705040E-18
6.120000E+03	8.030471E-16	9.610777E-18
6.130000E+03	7.966483E-16	9.511689E-18
6.140000E+03	7.896023E-16	9.407967E-18
6.150000E+03	7.819387E-16	9.300016E-18
6.160000E+03	7.737107E-16	9.188508E-18
6.170000E+03	7.649855E-16	9.074255E-18
6.180000E+03	7.558971E-16	8.958840E-18
6.190000E+03	7.465672E-16	8.843646E-18
6.200000E+03	7.370594E-16	8.729301E-18
6.210000E+03	7.272261E-16	8.613921E-18
6.220000E+03	7.169682E-16	8.496191E-18
6.230000E+03	7.062234E-16	8.375221E-18
6.240000E+03	6.949820E-16	8.250735E-18
6.250000E+03	6.832419E-16	8.122534E-18
6.260000E+03	6.710624E-16	7.991141E-18
6.270000E+03	6.585003E-16	7.857046E-18
6.280000E+03	6.456499E-16	7.721186E-18
6.290000E+03	6.326134E-16	7.584597E-18
6.300000E+03	6.194920E-16	7.448313E-18
6.310000E+03	6.064184E-16	7.313763E-18
6.320000E+03	5.935131E-16	7.182246E-18
6.330000E+03	5.808998E-16	7.055130E-18
6.340000E+03	5.687212E-16	6.934039E-18
6.350000E+03	5.571031E-16	6.820431E-18
6.360000E+03	5.461761E-16	6.715855E-18
6.370000E+03	5.360690E-16	6.621888E-18
6.380000E+03	5.269082E-16	6.540114E-18
6.390000E+03	5.188217E-16	6.472192E-18
6.400000E+03	5.119236E-16	6.419655E-18
6.410000E+03	5.063339E-16	6.384165E-18
6.420000E+03	5.021629E-16	6.367314E-18
6.430000E+03	4.995164E-16	6.370696E-18
6.440000E+03	4.985002E-16	6.395957E-18
6.450000E+03	4.992096E-16	6.444644E-18
6.460000E+03	5.017329E-16	6.518254E-18
6.470000E+03	5.061572E-16	6.618322E-18
6.480000E+03	5.125512E-16	6.746196E-18
6.490000E+03	5.209689E-16	6.903076E-18
6.500000E+03	5.314630E-16	7.090184E-18
6.510000E+03	5.440603E-16	7.308439E-18
6.520000E+03	5.587693E-16	7.558533E-18
6.530000E+03	5.755815E-16	7.840953E-18
6.540000E+03	5.944251E-16	8.155323E-18
6.550000E+03	6.151020E-16	8.499505E-18
6.560000E+03	6.373940E-16	8.871016E-18
6.570000E+03	6.610058E-16	9.266204E-18
6.580000E+03	6.856123E-16	9.680881E-18
6.590000E+03	7.108342E-16	1.010995E-17
6.600000E+03	7.362432E-16	1.054746E-17
6.610000E+03	7.613963E-16	1.098706E-17
6.620000E+03	7.858089E-16	1.142159E-17
6.630000E+03	8.090380E-16	1.184431E-17
6.640000E+03	8.306055E-16	1.224774E-17
6.650000E+03	8.501125E-16	1.262539E-17
6.660000E+03	8.671840E-16	1.297094E-17
6.670000E+03	8.815204E-16	1.327903E-17
6.680000E+03	8.929083E-16	1.354549E-17
6.690000E+03	9.011972E-16	1.376700E-17
6.700000E+03	9.063316E-16	1.394167E-17
6.710000E+03	9.083382E-16	1.406881E-17
6.720000E+03	9.073298E-16	1.414915E-17
6.730000E+03	9.034544E-16	1.418397E-17
6.740000E+03	8.969556E-16	1.417618E-17
6.750000E+03	8.880872E-16	1.412893E-17
6.760000E+03	8.771518E-16	1.404628E-17
6.770000E+03	8.644366E-16	1.393218E-17
6.780000E+03	8.502638E-16	1.379128E-17
6.790000E+03	8.349490E-16	1.362826E-17
6.800000E+03	8.187649E-16	1.344724E-17
6.810000E+03	8.020031E-16	1.325276E-17
6.820000E+03	7.848929E-16	1.304847E-17
6.830000E+03	7.676657E-16	1.283814E-17
6.840000E+03	7.505153E-16	1.262500E-17
6.850000E+03	7.335989E-16	1.241176E-17
6.860000E+03	7.170647E-16	1.220103E-17
6.870000E+03	7.010264E-16	1.199487E-17
6.880000E+03	6.855658E-16	1.179488E-17
6.890000E+03	6.707525E-16	1.160243E-17
6.900000E+03	6.566371E-16	1.141863E-17
6.910000E+03	6.432617E-16	1.124442E-17
6.920000E+03	6.306380E-16	1.108024E-17
6.930000E+03	6.187666E-16	1.092634E-17
6.940000E+03	6.076605E-16	1.078316E-17
6.950000E+03	5.972943E-16	1.065049E-17
6.960000E+03	5.876508E-16	1.052824E-17
6.970000E+03	5.787219E-16	1.041646E-17
6.980000E+03	5.704592E-16	1.031448E-17
6.990000E+03	5.628467E-16	1.022220E-17
7.000000E+03	5.558449E-16	1.013908E-17
7.010000E+03	5.494198E-16	1.006466E-17
7.020000E+03	5.435365E-16	9.998445E-18
7.030000E+03	5.381529E-16	9.939813E-18
7.040000E+03	5.332480E-16	9.888497E-18
7.050000E+03	5.287674E-16	9.843606E-18
7.060000E+03	5.246987E-16	9.805017E-18
7.070000E+03	5.209911E-16	9.771877E-18
7.080000E+03	5.176294E-16	9.743985E-18
7.090000E+03	5.145808E-16	9.720810E-18
7.100000E+03	5.118220E-16	9.701981E-18
7.110000E+03	5.093262E-16	9.687057E-18
7.120000E+03	5.070891E-16	9.676015E-18
7.130000E+03	5.050832E-16	9.668388E-18
7.140000E+03	5.032967E-16	9.664002E-18
7.150000E+03	5.017269E-16	9.662852E-18
7.160000E+03	5.003600E-16	9.664718E-18
7.170000E+03	4.991902E-16	9.669531E-18
7.180000E+03	4.982192E-16	9.677366E-18
7.190000E+03	4.974296E-16	9.687921E-18
7.200000E+03	4.968230E-16	9.701264E-18
7.210000E+03	4.963934E-16	9.717316E-18
7.220000E+03	4.961337E-16	9.735967E-18
7.230000E+03	4.960277E-16	9.756934E-18
7.240000E+03	4.960702E-16	9.780139E-18
7.250000E+03	4.962462E-16	9.805317E-18
7.260000E+03	4.965251E-16	9.831885E-18
7.270000E+03	4.968993E-16	9.859711E-18
7.280000E+03	4.973454E-16	9.888350E-18
7.290000E+03	4.978240E-16	9.917036E-18
7.300000E+03	4.983206E-16	9.945489E-18
7.310000E+03	4.987987E-16	9.972992E-18
7.320000E+03	4.992282E-16	9.998948E-18
7.330000E+03	4.995716E-16	1.002261E-17
7.340000E+03	4.998130E-16	1.004367E-17
7.350000E+03	4.999177E-16	1.006142E-17
7.360000E+03	4.998599E-16	1.007534E-17
7.370000E+03	4.996170E-16	1.008499E-17
7.380000E+03	4.991702E-16	1.008997E-17
7.390000E+03	4.985047E-16	1.008999E-17
7.400000E+03	4.976104E-16	1.008485E-17
7.410000E+03	4.964820E-16	1.007444E-17
7.420000E+03	4.951119E-16	1.005860E-17
7.430000E+03	4.935178E-16	1.003771E-17
7.440000E+03	4.917081E-16	1.001194E-17
7.450000E+03	4.896812E-16	9.981264E-18
7.460000E+03	4.874596E-16	9.946156E-18
7.470000E+03	4.850688E-16	9.907149E-18
7.480000E+03	4.825225E-16	9.864538E-18
7.490000E+03	4.798431E-16	9.818798E-18
7.500000E+03	4.770607E-16	9.770566E-18
7.510000E+03	4.741853E-16	9.720068E-18
7.520000E+03	4.712611E-16	9.668232E-18
7.530000E+03	4.682973E-16	9.615275E-18
7.540000E+03	4.653163E-16	9.561678E-18
7.550000E+03	4.623456E-16	9.508036E-18
7.560000E+03	4.593978E-16	9.454638E-18
7.570000E+03	4.565043E-16	9.402156E-18
7.580000E+03	4.536677E-16	9.350675E-18
7.590000E+03	4.509090E-16	9.300658E-18
7.600000E+03	4.482343E-16	9.252260E-18
7.610000E+03	4.456676E-16	9.206009E-18
7.620000E+03	4.432118E-16	9.161994E-18
7.630000E+03	4.408742E-16	9.120402E-18
7.640000E+03	4.386677E-16	9.081529E-18
7.650000E+03	4.365903E-16	9.045370E-18
7.660000E+03	4.346521E-16	9.012163E-18
7.670000E+03	4.328484E-16	8.981848E-18
7.680000E+03	4.311868E-16	8.954612E-18
7.690000E+03	4.296667E-16	8.930480E-18
7.700000E+03	4.282801E-16	8.909322E-18
7.710000E+03	4.270376E-16	8.891390E-18
7.720000E+03	4.259356E-16	8.876645E-18
7.730000E+03	4.249564E-16	8.864755E-18
7.740000E+03	4.241075E-16	8.855913E-18
7.750000E+03	4.233826E-16	8.850027E-18
7.760000E+03	4.227681E-16	8.846844E-18
