#wls	flux	fluxerr
1.600000E+03	4.055965E-18	2.882766E-19
1.640000E+03	4.112843E-18	2.914042E-19
1.680000E+03	4.171455E-18	2.946052E-19
1.720000E+03	4.229031E-18	2.976816E-19
1.760000E+03	4.286609E-18	3.007056E-19
1.800000E+03	4.343938E-18	3.036580E-19
1.840000E+03	4.400763E-18	3.065196E-19
1.880000E+03	4.456813E-18	3.092704E-19
1.920000E+03	4.513046E-18	3.119754E-19
1.960000E+03	4.566706E-18	3.144432E-19
2.000000E+03	4.619968E-18	3.168233E-19
2.040000E+03	4.671311E-18	3.190104E-19
2.080000E+03	4.720453E-18	3.209853E-19
2.120000E+03	4.767120E-18	3.227296E-19
2.160000E+03	4.811046E-18	3.242262E-19
2.200000E+03	4.853140E-18	3.255367E-19
2.240000E+03	4.890847E-18	3.264908E-19
2.280000E+03	4.926262E-18	3.272303E-19
2.320000E+03	4.958054E-18	3.276680E-19
2.360000E+03	4.984994E-18	3.277253E-19
2.400000E+03	5.009194E-18	3.275440E-19
2.440000E+03	5.029501E-18	3.270507E-19
2.480000E+03	5.044883E-18	3.261817E-19
2.520000E+03	5.057516E-18	3.250813E-19
2.560000E+03	5.065478E-18	3.236288E-19
2.600000E+03	5.070023E-18	3.219081E-19
2.640000E+03	5.070478E-18	3.198803E-19
2.680000E+03	5.068221E-18	3.176360E-19
2.720000E+03	5.063714E-18	3.152065E-19
2.760000E+03	5.055688E-18	3.125157E-19
2.800000E+03	5.046676E-18	3.097234E-19
2.840000E+03	5.037410E-18	3.068748E-19
2.880000E+03	5.027009E-18	3.039168E-19
2.920000E+03	5.019001E-18	3.010623E-19
2.960000E+03	5.012709E-18	2.982671E-19
3.000000E+03	5.010889E-18	2.956910E-19
3.010000E+03	5.011091E-18	2.950779E-19
3.020000E+03	5.012309E-18	2.945213E-19
3.030000E+03	5.013764E-18	2.939750E-19
3.040000E+03	5.015478E-18	2.934403E-19
3.050000E+03	5.017473E-18	2.929182E-19
3.060000E+03	5.020551E-18	2.924555E-19
3.070000E+03	5.023949E-18	2.920073E-19
3.080000E+03	5.028463E-18	2.916197E-19
3.090000E+03	5.033338E-18	2.912485E-19
3.100000E+03	5.038599E-18	2.908950E-19
3.110000E+03	5.045033E-18	2.906043E-19
3.120000E+03	5.052657E-18	2.903771E-19
3.130000E+03	5.060731E-18	2.901703E-19
3.140000E+03	5.070036E-18	2.900284E-19
3.150000E+03	5.080590E-18	2.899519E-19
3.160000E+03	5.091665E-18	2.898989E-19
3.170000E+03	5.104034E-18	2.899130E-19
3.180000E+03	5.117722E-18	2.899950E-19
3.190000E+03	5.132004E-18	2.901035E-19
3.200000E+03	5.147655E-18	2.902818E-19
3.210000E+03	5.165437E-18	2.905723E-19
3.220000E+03	5.183896E-18	2.908922E-19
3.230000E+03	5.203798E-18	2.912844E-19
3.240000E+03	5.225909E-18	2.917908E-19
3.250000E+03	5.248783E-18	2.923300E-19
3.260000E+03	5.273921E-18	2.929849E-19
3.270000E+03	5.300619E-18	2.937156E-19
3.280000E+03	5.328911E-18	2.945231E-19
3.290000E+03	5.358831E-18	2.954087E-19
3.300000E+03	5.391142E-18	2.964134E-19
3.310000E+03	5.425153E-18	2.974984E-19
3.320000E+03	5.461628E-18	2.987045E-19
3.330000E+03	5.499881E-18	2.999933E-19
3.340000E+03	5.540680E-18	3.014055E-19
3.350000E+03	5.583341E-18	3.029030E-19
3.360000E+03	5.628637E-18	3.045265E-19
3.370000E+03	5.676615E-18	3.062774E-19
3.380000E+03	5.727325E-18	3.081571E-19
3.390000E+03	5.780819E-18	3.101670E-19
3.400000E+03	5.836424E-18	3.122698E-19
3.410000E+03	5.895654E-18	3.145451E-19
3.420000E+03	5.957840E-18	3.169555E-19
3.430000E+03	6.023046E-18	3.195030E-19
3.440000E+03	6.091336E-18	3.221895E-19
3.450000E+03	6.163513E-18	3.250557E-19
3.460000E+03	6.238917E-18	3.280650E-19
3.470000E+03	6.318359E-18	3.312583E-19
3.480000E+03	6.401183E-18	3.345990E-19
3.490000E+03	6.488210E-18	3.381284E-19
3.500000E+03	6.578784E-18	3.418102E-19
3.510000E+03	6.674488E-18	3.457245E-19
3.520000E+03	6.773924E-18	3.497964E-19
3.530000E+03	6.877939E-18	3.540675E-19
3.540000E+03	6.987394E-18	3.585798E-19
3.550000E+03	7.100887E-18	3.632584E-19
3.560000E+03	7.220046E-18	3.681844E-19
3.570000E+03	7.344232E-18	3.733222E-19
3.580000E+03	7.473562E-18	3.786750E-19
3.590000E+03	7.608938E-18	3.842856E-19
3.600000E+03	7.750498E-18	3.901577E-19
3.610000E+03	7.897601E-18	3.962558E-19
3.620000E+03	8.051170E-18	4.026230E-19
3.630000E+03	8.211361E-18	4.092634E-19
3.640000E+03	8.378327E-18	4.161812E-19
3.650000E+03	8.552229E-18	4.233805E-19
3.660000E+03	8.733231E-18	4.308655E-19
3.670000E+03	8.921501E-18	4.386405E-19
3.680000E+03	9.118033E-18	4.467502E-19
3.690000E+03	9.322191E-18	4.551588E-19
3.700000E+03	9.534987E-18	4.639114E-19
3.710000E+03	9.755774E-18	4.729715E-19
3.720000E+03	9.985583E-18	4.823847E-19
3.730000E+03	1.022463E-17	4.921558E-19
3.740000E+03	1.047311E-17	5.022893E-19
3.750000E+03	1.073123E-17	5.127894E-19
3.760000E+03	1.100009E-17	5.237031E-19
3.770000E+03	1.127814E-17	5.349503E-19
3.780000E+03	1.156735E-17	5.466191E-19
3.790000E+03	1.186798E-17	5.587147E-19
3.800000E+03	1.217932E-17	5.711977E-19
3.810000E+03	1.250251E-17	5.841149E-19
3.820000E+03	1.283778E-17	5.974700E-19
3.830000E+03	1.318536E-17	6.112665E-19
3.840000E+03	1.354546E-17	6.255064E-19
3.850000E+03	1.391926E-17	6.402373E-19
3.860000E+03	1.430604E-17	6.554170E-19
3.870000E+03	1.470600E-17	6.710475E-19
3.880000E+03	1.512030E-17	6.871737E-19
3.890000E+03	1.554918E-17	7.037970E-19
3.900000E+03	1.599284E-17	7.209182E-19
3.910000E+03	1.645147E-17	7.385366E-19
3.920000E+03	1.692524E-17	7.566507E-19
3.930000E+03	1.741432E-17	7.752588E-19
3.940000E+03	1.791991E-17	7.944046E-19
3.950000E+03	1.844110E-17	8.140378E-19
3.960000E+03	1.898017E-17	8.342482E-19
3.970000E+03	1.953508E-17	8.549367E-19
3.980000E+03	2.010700E-17	8.761434E-19
3.990000E+03	2.069601E-17	8.978611E-19
4.000000E+03	2.130326E-17	9.201297E-19
4.010000E+03	2.192771E-17	9.428914E-19
4.020000E+03	2.257046E-17	9.661836E-19
4.030000E+03	2.323036E-17	9.899453E-19
4.040000E+03	2.390968E-17	1.014262E-18
4.050000E+03	2.460603E-17	1.039020E-18
4.060000E+03	2.532044E-17	1.064252E-18
4.070000E+03	2.605398E-17	1.089990E-18
4.080000E+03	2.680531E-17	1.116167E-18
4.090000E+03	2.757419E-17	1.142762E-18
4.100000E+03	2.836284E-17	1.169853E-18
4.110000E+03	2.916855E-17	1.197318E-18
4.120000E+03	2.999100E-17	1.225131E-18
4.130000E+03	3.083232E-17	1.253369E-18
4.140000E+03	3.169091E-17	1.281954E-18
4.150000E+03	3.256635E-17	1.310858E-18
4.160000E+03	3.345821E-17	1.340052E-18
4.170000E+03	3.436601E-17	1.369506E-18
4.180000E+03	3.529056E-17	1.399241E-18
4.190000E+03	3.623005E-17	1.429175E-18
4.200000E+03	3.718526E-17	1.459329E-18
4.210000E+03	3.815435E-17	1.489619E-18
4.220000E+03	3.913812E-17	1.520067E-18
4.230000E+03	4.013607E-17	1.550644E-18
4.240000E+03	4.114636E-17	1.581269E-18
4.250000E+03	4.216857E-17	1.611918E-18
4.260000E+03	4.320503E-17	1.642672E-18
4.270000E+03	4.425276E-17	1.673406E-18
4.280000E+03	4.531158E-17	1.704107E-18
4.290000E+03	4.638285E-17	1.734819E-18
4.300000E+03	4.746534E-17	1.765486E-18
4.310000E+03	4.856083E-17	1.796166E-18
4.320000E+03	4.966852E-17	1.826822E-18
4.330000E+03	5.078930E-17	1.857477E-18
4.340000E+03	5.192434E-17	1.888165E-18
4.350000E+03	5.307507E-17	1.918928E-18
4.360000E+03	5.424171E-17	1.949764E-18
4.370000E+03	5.542743E-17	1.980774E-18
4.380000E+03	5.663232E-17	2.011951E-18
4.390000E+03	5.785738E-17	2.043316E-18
4.400000E+03	5.910126E-17	2.074809E-18
4.410000E+03	6.036593E-17	2.106487E-18
4.420000E+03	6.164537E-17	2.138127E-18
4.430000E+03	6.293881E-17	2.169693E-18
4.440000E+03	6.424379E-17	2.201091E-18
4.450000E+03	6.555626E-17	2.232176E-18
4.460000E+03	6.687219E-17	2.262808E-18
4.470000E+03	6.819199E-17	2.292996E-18
4.480000E+03	6.950885E-17	2.322513E-18
4.490000E+03	7.082194E-17	2.351331E-18
4.500000E+03	7.212762E-17	2.379335E-18
4.510000E+03	7.342236E-17	2.406412E-18
4.520000E+03	7.470574E-17	2.432557E-18
4.530000E+03	7.597451E-17	2.457673E-18
4.540000E+03	7.722556E-17	2.481669E-18
4.550000E+03	7.845734E-17	2.504509E-18
4.560000E+03	7.966702E-17	2.526115E-18
4.570000E+03	8.085328E-17	2.546461E-18
4.580000E+03	8.201352E-17	2.565480E-18
4.590000E+03	8.314674E-17	2.583157E-18
4.600000E+03	8.424912E-17	2.599391E-18
4.610000E+03	8.532285E-17	2.614266E-18
4.620000E+03	8.636291E-17	2.627647E-18
4.630000E+03	8.736870E-17	2.639538E-18
4.640000E+03	8.833987E-17	2.649947E-18
4.650000E+03	8.927452E-17	2.658840E-18
4.660000E+03	9.017262E-17	2.666238E-18
4.670000E+03	9.103240E-17	2.672111E-18
4.680000E+03	9.185258E-17	2.676447E-18
4.690000E+03	9.263167E-17	2.679226E-18
4.700000E+03	9.337141E-17	2.680523E-18
4.710000E+03	9.406921E-17	2.680290E-18
4.720000E+03	9.472675E-17	2.678601E-18
4.730000E+03	9.534031E-17	2.675376E-18
4.740000E+03	9.591328E-17	2.670737E-18
4.750000E+03	9.644345E-17	2.664650E-18
4.760000E+03	9.693017E-17	2.657122E-18
4.770000E+03	9.737561E-17	2.648242E-18
4.780000E+03	9.777927E-17	2.638022E-18
4.790000E+03	9.814059E-17	2.626475E-18
4.800000E+03	9.846056E-17	2.613653E-18
4.810000E+03	9.873895E-17	2.599577E-18
4.820000E+03	9.897690E-17	2.584306E-18
4.830000E+03	9.917540E-17	2.567890E-18
4.840000E+03	9.933436E-17	2.550353E-18
4.850000E+03	9.945638E-17	2.531789E-18
4.860000E+03	9.953874E-17	2.512152E-18
4.870000E+03	9.958657E-17	2.491599E-18
4.880000E+03	9.959738E-17	2.470090E-18
4.890000E+03	9.957374E-17	2.447714E-18
4.900000E+03	9.951708E-17	2.424530E-18
4.910000E+03	9.942871E-17	2.400592E-18
4.920000E+03	9.930867E-17	2.375922E-18
4.930000E+03	9.915971E-17	2.350610E-18
4.940000E+03	9.898184E-17	2.324674E-18
4.950000E+03	9.877659E-17	2.298173E-18
4.960000E+03	9.854639E-17	2.271180E-18
4.970000E+03	9.829152E-17	2.243723E-18
4.980000E+03	9.801438E-17	2.215872E-18
4.990000E+03	9.771534E-17	2.187652E-18
5.000000E+03	9.739668E-17	2.159133E-18
5.010000E+03	9.705988E-17	2.130360E-18
5.020000E+03	9.670617E-17	2.101376E-18
5.030000E+03	9.633789E-17	2.072245E-18
5.040000E+03	9.595528E-17	2.042984E-18
5.050000E+03	9.556066E-17	2.013654E-18
5.060000E+03	9.515420E-17	1.984271E-18
5.070000E+03	9.474027E-17	1.954935E-18
5.080000E+03	9.431799E-17	1.925636E-18
5.090000E+03	9.388955E-17	1.896429E-18
5.100000E+03	9.345718E-17	1.867365E-18
5.110000E+03	9.302203E-17	1.838473E-18
5.120000E+03	9.258518E-17	1.809781E-18
5.130000E+03	9.214883E-17	1.781335E-18
5.140000E+03	9.171501E-17	1.753179E-18
5.150000E+03	9.128374E-17	1.725316E-18
5.160000E+03	9.085721E-17	1.697790E-18
5.170000E+03	9.043736E-17	1.670639E-18
5.180000E+03	9.002535E-17	1.643884E-18
5.190000E+03	8.962318E-17	1.617562E-18
5.200000E+03	8.923194E-17	1.591690E-18
5.210000E+03	8.885356E-17	1.566303E-18
5.220000E+03	8.848911E-17	1.541416E-18
5.230000E+03	8.814072E-17	1.517063E-18
5.240000E+03	8.781032E-17	1.493274E-18
5.250000E+03	8.749902E-17	1.470063E-18
5.260000E+03	8.720789E-17	1.447442E-18
5.270000E+03	8.693908E-17	1.425442E-18
5.280000E+03	8.669465E-17	1.404091E-18
5.290000E+03	8.647660E-17	1.383413E-18
5.300000E+03	8.628534E-17	1.363408E-18
5.310000E+03	8.612303E-17	1.344103E-18
5.320000E+03	8.599261E-17	1.325535E-18
5.330000E+03	8.589459E-17	1.307704E-18
5.340000E+03	8.583121E-17	1.290635E-18
5.350000E+03	8.580470E-17	1.274352E-18
5.360000E+03	8.581645E-17	1.258868E-18
5.370000E+03	8.586786E-17	1.244193E-18
5.380000E+03	8.596122E-17	1.230353E-18
5.390000E+03	8.609993E-17	1.217386E-18
5.400000E+03	8.628352E-17	1.205277E-18
5.410000E+03	8.651535E-17	1.194064E-18
5.420000E+03	8.679701E-17	1.183763E-18
5.430000E+03	8.712998E-17	1.174384E-18
5.440000E+03	8.751674E-17	1.165955E-18
5.450000E+03	8.795923E-17	1.158496E-18
5.460000E+03	8.846009E-17	1.152036E-18
5.470000E+03	8.902044E-17	1.146585E-18
5.480000E+03	8.964414E-17	1.142189E-18
5.490000E+03	9.033197E-17	1.138857E-18
5.500000E+03	9.108626E-17	1.136616E-18
5.510000E+03	9.190761E-17	1.135475E-18
5.520000E+03	9.279593E-17	1.135436E-18
5.530000E+03	9.375107E-17	1.136503E-18
5.540000E+03	9.477391E-17	1.138692E-18
5.550000E+03	9.586319E-17	1.142000E-18
5.560000E+03	9.701878E-17	1.146437E-18
5.570000E+03	9.824237E-17	1.152036E-18
5.580000E+03	9.953077E-17	1.158776E-18
5.590000E+03	1.008863E-16	1.166685E-18
5.600000E+03	1.023052E-16	1.175710E-18
5.610000E+03	1.037897E-16	1.185870E-18
5.620000E+03	1.053358E-16	1.197111E-18
5.630000E+03	1.069435E-16	1.209426E-18
5.640000E+03	1.086125E-16	1.222808E-18
5.650000E+03	1.103395E-16	1.237210E-18
5.660000E+03	1.121229E-16	1.252608E-18
5.670000E+03	1.139612E-16	1.268978E-18
5.680000E+03	1.158526E-16	1.286295E-18
5.690000E+03	1.177950E-16	1.304528E-18
5.700000E+03	1.197841E-16	1.323622E-18
5.710000E+03	1.218202E-16	1.343572E-18
5.720000E+03	1.238972E-16	1.364304E-18
5.730000E+03	1.260137E-16	1.385792E-18
5.740000E+03	1.281657E-16	1.407985E-18
5.750000E+03	1.303504E-16	1.430841E-18
5.760000E+03	1.325634E-16	1.454303E-18
5.770000E+03	1.348014E-16	1.478323E-18
5.780000E+03	1.370598E-16	1.502839E-18
5.790000E+03	1.393334E-16	1.527784E-18
5.800000E+03	1.416185E-16	1.553103E-18
5.810000E+03	1.439099E-16	1.578727E-18
5.820000E+03	1.462020E-16	1.604582E-18
5.830000E+03	1.484903E-16	1.630603E-18
5.840000E+03	1.507690E-16	1.656716E-18
5.850000E+03	1.530336E-16	1.682853E-18
5.860000E+03	1.552763E-16	1.708917E-18
5.870000E+03	1.574924E-16	1.734840E-18
5.880000E+03	1.596755E-16	1.760537E-18
5.890000E+03	1.618189E-16	1.785921E-18
5.900000E+03	1.639175E-16	1.810921E-18
5.910000E+03	1.659649E-16	1.835452E-18
5.920000E+03	1.679528E-16	1.859408E-18
5.930000E+03	1.698762E-16	1.882720E-18
5.940000E+03	1.717285E-16	1.905305E-18
5.950000E+03	1.735046E-16	1.927093E-18
5.960000E+03	1.751969E-16	1.947987E-18
5.970000E+03	1.768007E-16	1.967928E-18
5.980000E+03	1.783103E-16	1.986840E-18
5.990000E+03	1.797185E-16	2.004638E-18
6.000000E+03	1.810230E-16	2.021288E-18
6.010000E+03	1.822177E-16	2.036716E-18
6.020000E+03	1.832998E-16	2.050886E-18
6.030000E+03	1.842638E-16	2.063735E-18
6.040000E+03	1.851083E-16	2.075243E-18
6.050000E+03	1.858305E-16	2.085381E-18
6.060000E+03	1.864300E-16	2.094145E-18
6.070000E+03	1.869056E-16	2.101522E-18
6.080000E+03	1.872565E-16	2.107510E-18
6.090000E+03	1.874829E-16	2.112113E-18
6.100000E+03	1.875866E-16	2.115359E-18
6.110000E+03	1.875703E-16	2.117284E-18
6.120000E+03	1.874351E-16	2.117912E-18
6.130000E+03	1.871825E-16	2.117267E-18
6.140000E+03	1.868153E-16	2.115391E-18
6.150000E+03	1.863361E-16	2.112324E-18
6.160000E+03	1.857486E-16	2.108121E-18
6.170000E+03	1.850501E-16	2.102760E-18
6.180000E+03	1.842451E-16	2.096307E-18
6.190000E+03	1.833360E-16	2.088800E-18
6.200000E+03	1.823257E-16	2.080285E-18
6.210000E+03	1.812216E-16	2.070858E-18
6.220000E+03	1.800316E-16	2.060614E-18
6.230000E+03	1.787638E-16	2.049643E-18
6.240000E+03	1.774281E-16	2.038054E-18
6.250000E+03	1.760319E-16	2.025932E-18
6.260000E+03	1.745840E-16	2.013374E-18
6.270000E+03	1.730935E-16	2.000482E-18
6.280000E+03	1.715663E-16	1.987325E-18
6.290000E+03	1.700148E-16	1.974044E-18
6.300000E+03	1.684457E-16	1.960718E-18
6.310000E+03	1.668706E-16	1.947482E-18
6.320000E+03	1.652987E-16	1.934445E-18
6.330000E+03	1.637423E-16	1.921753E-18
6.340000E+03	1.622114E-16	1.909528E-18
6.350000E+03	1.607185E-16	1.897923E-18
6.360000E+03	1.592755E-16	1.887084E-18
6.370000E+03	1.578922E-16	1.877138E-18
6.380000E+03	1.565813E-16	1.868243E-18
6.390000E+03	1.553537E-16	1.860544E-18
6.400000E+03	1.542184E-16	1.854162E-18
6.410000E+03	1.531863E-16	1.849247E-18
6.420000E+03	1.522677E-16	1.845942E-18
6.430000E+03	1.514679E-16	1.844333E-18
6.440000E+03	1.507949E-16	1.844541E-18
6.450000E+03	1.502531E-16	1.846647E-18
6.460000E+03	1.498489E-16	1.850761E-18
6.470000E+03	1.495827E-16	1.856917E-18
6.480000E+03	1.494549E-16	1.865155E-18
6.490000E+03	1.494649E-16	1.875503E-18
6.500000E+03	1.496100E-16	1.887964E-18
6.510000E+03	1.498853E-16	1.902504E-18
6.520000E+03	1.502826E-16	1.919033E-18
6.530000E+03	1.507920E-16	1.937438E-18
6.540000E+03	1.514035E-16	1.957598E-18
6.550000E+03	1.521058E-16	1.979377E-18
6.560000E+03	1.528851E-16	2.002601E-18
6.570000E+03	1.537260E-16	2.027074E-18
6.580000E+03	1.546137E-16	2.052598E-18
6.590000E+03	1.555324E-16	2.078962E-18
6.600000E+03	1.564614E-16	2.105878E-18
6.610000E+03	1.573872E-16	2.133152E-18
6.620000E+03	1.582889E-16	2.160481E-18
6.630000E+03	1.591509E-16	2.187628E-18
6.640000E+03	1.599568E-16	2.214339E-18
6.650000E+03	1.606932E-16	2.240392E-18
6.660000E+03	1.613467E-16	2.265561E-18
6.670000E+03	1.619042E-16	2.289622E-18
6.680000E+03	1.623579E-16	2.312413E-18
6.690000E+03	1.626988E-16	2.333760E-18
6.700000E+03	1.629250E-16	2.353583E-18
6.710000E+03	1.630306E-16	2.371745E-18
6.720000E+03	1.630166E-16	2.388205E-18
6.730000E+03	1.628863E-16	2.402958E-18
6.740000E+03	1.626396E-16	2.415953E-18
6.750000E+03	1.622832E-16	2.427238E-18
6.760000E+03	1.618240E-16	2.436868E-18
6.770000E+03	1.612695E-16	2.444912E-18
6.780000E+03	1.606288E-16	2.451464E-18
6.790000E+03	1.599113E-16	2.456633E-18
6.800000E+03	1.591270E-16	2.460536E-18
6.810000E+03	1.582847E-16	2.463278E-18
6.820000E+03	1.573963E-16	2.465020E-18
6.830000E+03	1.564722E-16	2.465900E-18
6.840000E+03	1.555206E-16	2.466030E-18
6.850000E+03	1.545528E-16	2.465573E-18
6.860000E+03	1.535761E-16	2.464636E-18
6.870000E+03	1.525989E-16	2.463344E-18
6.880000E+03	1.516307E-16	2.461845E-18
6.890000E+03	1.506754E-16	2.460199E-18
6.900000E+03	1.497424E-16	2.458559E-18
6.910000E+03	1.488358E-16	2.456995E-18
6.920000E+03	1.479589E-16	2.455564E-18
6.930000E+03	1.471174E-16	2.454366E-18
6.940000E+03	1.463151E-16	2.453469E-18
6.950000E+03	1.455547E-16	2.452926E-18
6.960000E+03	1.448353E-16	2.452731E-18
6.970000E+03	1.441620E-16	2.452977E-18
6.980000E+03	1.435342E-16	2.453663E-18
6.990000E+03	1.429547E-16	2.454845E-18
7.000000E+03	1.424204E-16	2.456480E-18
7.010000E+03	1.419332E-16	2.458608E-18
7.020000E+03	1.414926E-16	2.461231E-18
7.030000E+03	1.410966E-16	2.464321E-18
7.040000E+03	1.407460E-16	2.467900E-18
7.050000E+03	1.404384E-16	2.471934E-18
7.060000E+03	1.401742E-16	2.476436E-18
7.070000E+03	1.399505E-16	2.481365E-18
7.080000E+03	1.397647E-16	2.486678E-18
7.090000E+03	1.396184E-16	2.492411E-18
7.100000E+03	1.395072E-16	2.498489E-18
7.110000E+03	1.394311E-16	2.504920E-18
7.120000E+03	1.393887E-16	2.511681E-18
7.130000E+03	1.393768E-16	2.518722E-18
7.140000E+03	1.393941E-16	2.526019E-18
7.150000E+03	1.394405E-16	2.533577E-18
7.160000E+03	1.395113E-16	2.541312E-18
7.170000E+03	1.396079E-16	2.549255E-18
7.180000E+03	1.397257E-16	2.557321E-18
7.190000E+03	1.398643E-16	2.565508E-18
7.200000E+03	1.400203E-16	2.573754E-18
7.210000E+03	1.401935E-16	2.582059E-18
7.220000E+03	1.403799E-16	2.590350E-18
7.230000E+03	1.405791E-16	2.598623E-18
7.240000E+03	1.407856E-16	2.606776E-18
7.250000E+03	1.410001E-16	2.614823E-18
7.260000E+03	1.412167E-16	2.622658E-18
7.270000E+03	1.414343E-16	2.630263E-18
7.280000E+03	1.416486E-16	2.637557E-18
7.290000E+03	1.418583E-16	2.644519E-18
7.300000E+03	1.420588E-16	2.651064E-18
7.310000E+03	1.422471E-16	2.657140E-18
7.320000E+03	1.424221E-16	2.662726E-18
7.330000E+03	1.425773E-16	2.667707E-18
7.340000E+03	1.427118E-16	2.672065E-18
7.350000E+03	1.428229E-16	2.675756E-18
7.360000E+03	1.429081E-16	2.678736E-18
7.370000E+03	1.429652E-16	2.680968E-18
7.380000E+03	1.429887E-16	2.682356E-18
7.390000E+03	1.429803E-16	2.682933E-18
7.400000E+03	1.429386E-16	2.682683E-18
7.410000E+03	1.428608E-16	2.681559E-18
7.420000E+03	1.427460E-16	2.679550E-18
7.430000E+03	1.425939E-16	2.676658E-18
7.440000E+03	1.424060E-16	2.672923E-18
7.450000E+03	1.421791E-16	2.668292E-18
7.460000E+03	1.419171E-16	2.662850E-18
7.470000E+03	1.416192E-16	2.656588E-18
7.480000E+03	1.412863E-16	2.649537E-18
7.490000E+03	1.409198E-16	2.641734E-18
7.500000E+03	1.405211E-16	2.633217E-18
7.510000E+03	1.400937E-16	2.624065E-18
7.520000E+03	1.396375E-16	2.614284E-18
7.530000E+03	1.391543E-16	2.603927E-18
7.540000E+03	1.386480E-16	2.593074E-18
7.550000E+03	1.381185E-16	2.581741E-18
7.560000E+03	1.375694E-16	2.570007E-18
7.570000E+03	1.370027E-16	2.557923E-18
7.580000E+03	1.364202E-16	2.545535E-18
7.590000E+03	1.358218E-16	2.532857E-18
7.600000E+03	1.352123E-16	2.519993E-18
7.610000E+03	1.345917E-16	2.506956E-18
7.620000E+03	1.339629E-16	2.493815E-18
7.630000E+03	1.333235E-16	2.480540E-18
7.640000E+03	1.326797E-16	2.467258E-18
7.650000E+03	1.320289E-16	2.453939E-18
7.660000E+03	1.313716E-16	2.440604E-18
7.670000E+03	1.307119E-16	2.427344E-18
7.680000E+03	1.300484E-16	2.414146E-18
7.690000E+03	1.293810E-16	2.401027E-18
7.700000E+03	1.287101E-16	2.388003E-18
7.710000E+03	1.280371E-16	2.375118E-18
7.720000E+03	1.273601E-16	2.362349E-18
7.730000E+03	1.266788E-16	2.349705E-18
7.740000E+03	1.259947E-16	2.337227E-18
7.750000E+03	1.253071E-16	2.324918E-18
7.760000E+03	1.246157E-16	2.312782E-18
