#wls	flux	fluxerr
1.589715E+03	1.172006E-03	2.449438E-05
1.629457E+03	1.193907E-03	2.489612E-05
1.669200E+03	1.215159E-03	2.528084E-05
1.708943E+03	1.235830E-03	2.564997E-05
1.748686E+03	1.255718E-03	2.599933E-05
1.788429E+03	1.274452E-03	2.632122E-05
1.828172E+03	1.291287E-03	2.660042E-05
1.867915E+03	1.305851E-03	2.682945E-05
1.907657E+03	1.316965E-03	2.698448E-05
1.947400E+03	1.324201E-03	2.705722E-05
1.987143E+03	1.327959E-03	2.705646E-05
2.026886E+03	1.330477E-03	2.702819E-05
2.066629E+03	1.336427E-03	2.706724E-05
2.106372E+03	1.353643E-03	2.733107E-05
2.146115E+03	1.389610E-03	2.796812E-05
2.185858E+03	1.448206E-03	2.905239E-05
2.225600E+03	1.528588E-03	3.056222E-05
2.265343E+03	1.626833E-03	3.241471E-05
2.305086E+03	1.738170E-03	3.451090E-05
2.344829E+03	1.859054E-03	3.677736E-05
2.384572E+03	1.987955E-03	3.918125E-05
2.424315E+03	2.123840E-03	4.169981E-05
2.464058E+03	2.267266E-03	4.434168E-05
2.503800E+03	2.418167E-03	4.710304E-05
2.543543E+03	2.577932E-03	5.000824E-05
2.583286E+03	2.746704E-03	5.305704E-05
2.623029E+03	2.925719E-03	5.627005E-05
2.662772E+03	3.115504E-03	5.965382E-05
2.702515E+03	3.316766E-03	6.321792E-05
2.742258E+03	3.530645E-03	6.697989E-05
2.782000E+03	3.757041E-03	7.093317E-05
2.821743E+03	3.997019E-03	7.509310E-05
2.861486E+03	4.250643E-03	7.945566E-05
2.901229E+03	4.518714E-03	8.403039E-05
2.940972E+03	4.802589E-03	8.883664E-05
2.980715E+03	5.104510E-03	9.390931E-05
2.990650E+03	5.183326E-03	9.522774E-05
3.000586E+03	5.263234E-03	9.656157E-05
3.010522E+03	5.344508E-03	9.791572E-05
3.020458E+03	5.427468E-03	9.929590E-05
3.030393E+03	5.512277E-03	1.007049E-04
3.040329E+03	5.598831E-03	1.021407E-04
3.050265E+03	5.687385E-03	1.036078E-04
3.060201E+03	5.777913E-03	1.051054E-04
3.070136E+03	5.870414E-03	1.066334E-04
3.080072E+03	5.965136E-03	1.081961E-04
3.090008E+03	6.061801E-03	1.097882E-04
3.099943E+03	6.160962E-03	1.114196E-04
3.109879E+03	6.262056E-03	1.130799E-04
3.119815E+03	6.365912E-03	1.147837E-04
3.129751E+03	6.471709E-03	1.165162E-04
3.139686E+03	6.580276E-03	1.182918E-04
3.149622E+03	6.691339E-03	1.201056E-04
3.159558E+03	6.805170E-03	1.219621E-04
3.169493E+03	6.921502E-03	1.238563E-04
3.179429E+03	7.040599E-03	1.257925E-04
3.189365E+03	7.162728E-03	1.277755E-04
3.199301E+03	7.287595E-03	1.297995E-04
3.209236E+03	7.415448E-03	1.318687E-04
3.219172E+03	7.546539E-03	1.339873E-04
3.229108E+03	7.680803E-03	1.361539E-04
3.239043E+03	7.817906E-03	1.383622E-04
3.248979E+03	7.958324E-03	1.406202E-04
3.258915E+03	8.101980E-03	1.429265E-04
3.268851E+03	8.248481E-03	1.452735E-04
3.278786E+03	8.398287E-03	1.476693E-04
3.288722E+03	8.551286E-03	1.501114E-04
3.298658E+03	8.707643E-03	1.526024E-04
3.308593E+03	8.866952E-03	1.551349E-04
3.318529E+03	9.029094E-03	1.577065E-04
3.328465E+03	9.194821E-03	1.603300E-04
3.338401E+03	9.363448E-03	1.629930E-04
3.348336E+03	9.535143E-03	1.656982E-04
3.358272E+03	9.709795E-03	1.684433E-04
3.368208E+03	9.887545E-03	1.712305E-04
3.378143E+03	1.006852E-02	1.740616E-04
3.388079E+03	1.025192E-02	1.769223E-04
3.398015E+03	1.043802E-02	1.798174E-04
3.407951E+03	1.062646E-02	1.827400E-04
3.417886E+03	1.081643E-02	1.856762E-04
3.427822E+03	1.100730E-02	1.886149E-04
3.437758E+03	1.119883E-02	1.915518E-04
3.447693E+03	1.138914E-02	1.944547E-04
3.457629E+03	1.157729E-02	1.973077E-04
3.467565E+03	1.176180E-02	2.000858E-04
3.477501E+03	1.194039E-02	2.027504E-04
3.487436E+03	1.211113E-02	2.052693E-04
3.497372E+03	1.227123E-02	2.075961E-04
3.507308E+03	1.241826E-02	2.096907E-04
3.517243E+03	1.254922E-02	2.115037E-04
3.527179E+03	1.266051E-02	2.129761E-04
3.537115E+03	1.274849E-02	2.140485E-04
3.547051E+03	1.280943E-02	2.146607E-04
3.556986E+03	1.283879E-02	2.147393E-04
3.566922E+03	1.283223E-02	2.142149E-04
3.576858E+03	1.278452E-02	2.130040E-04
3.586793E+03	1.268947E-02	2.110075E-04
3.596729E+03	1.254288E-02	2.081602E-04
3.606665E+03	1.234262E-02	2.044325E-04
3.616601E+03	1.209048E-02	1.998588E-04
3.626536E+03	1.179209E-02	1.945374E-04
3.636472E+03	1.145699E-02	1.886301E-04
3.646408E+03	1.109818E-02	1.823540E-04
3.656343E+03	1.073111E-02	1.759653E-04
3.666279E+03	1.037252E-02	1.697386E-04
3.676215E+03	1.003914E-02	1.639465E-04
3.686151E+03	9.746527E-03	1.588401E-04
3.696086E+03	9.509066E-03	1.546493E-04
3.706022E+03	9.338536E-03	1.515598E-04
3.715958E+03	9.245212E-03	1.497312E-04
3.725893E+03	9.237817E-03	1.492968E-04
3.735829E+03	9.323993E-03	1.503709E-04
3.745765E+03	9.510004E-03	1.530448E-04
3.755701E+03	9.801731E-03	1.574026E-04
3.765636E+03	1.020395E-02	1.635099E-04
3.775572E+03	1.071993E-02	1.714072E-04
3.785508E+03	1.135112E-02	1.811060E-04
3.795443E+03	1.209624E-02	1.925736E-04
3.805379E+03	1.295045E-02	2.057209E-04
3.815315E+03	1.390429E-02	2.203862E-04
3.825251E+03	1.494374E-02	2.363374E-04
3.835186E+03	1.604930E-02	2.532572E-04
3.845122E+03	1.719689E-02	2.707594E-04
3.855058E+03	1.835893E-02	2.884058E-04
3.864993E+03	1.950470E-02	3.057130E-04
3.874929E+03	2.060340E-02	3.222008E-04
3.884865E+03	2.162594E-02	3.374202E-04
3.894801E+03	2.254625E-02	3.509731E-04
3.904736E+03	2.334281E-02	3.625362E-04
3.914672E+03	2.400054E-02	3.718886E-04
3.924608E+03	2.451106E-02	3.789159E-04
3.934544E+03	2.487287E-02	3.836106E-04
3.944479E+03	2.509089E-02	3.860644E-04
3.954415E+03	2.517561E-02	3.864541E-04
3.964351E+03	2.514169E-02	3.850187E-04
3.974286E+03	2.500764E-02	3.820539E-04
3.984222E+03	2.479354E-02	3.778767E-04
3.994158E+03	2.451978E-02	3.728061E-04
4.004094E+03	2.420655E-02	3.671549E-04
4.014029E+03	2.387256E-02	3.612107E-04
4.023965E+03	2.353459E-02	3.552293E-04
4.033901E+03	2.320581E-02	3.494092E-04
4.043836E+03	2.289752E-02	3.439195E-04
4.053772E+03	2.261678E-02	3.388638E-04
4.063708E+03	2.236851E-02	3.343127E-04
4.073644E+03	2.215435E-02	3.302869E-04
4.083579E+03	2.197405E-02	3.267790E-04
4.093515E+03	2.182483E-02	3.237443E-04
4.103451E+03	2.170271E-02	3.211201E-04
4.113386E+03	2.160259E-02	3.188286E-04
4.123322E+03	2.151857E-02	3.167802E-04
4.133258E+03	2.144496E-02	3.148897E-04
4.143194E+03	2.137566E-02	3.130664E-04
4.153129E+03	2.130504E-02	3.112280E-04
4.163065E+03	2.122767E-02	3.092955E-04
4.173001E+03	2.113892E-02	3.072023E-04
4.182936E+03	2.103482E-02	3.048922E-04
4.192872E+03	2.091208E-02	3.023195E-04
4.202808E+03	2.076875E-02	2.994582E-04
4.212744E+03	2.060383E-02	2.962965E-04
4.222679E+03	2.041882E-02	2.928584E-04
4.232615E+03	2.021592E-02	2.891776E-04
4.242551E+03	1.999979E-02	2.853228E-04
4.252486E+03	1.977690E-02	2.813875E-04
4.262422E+03	1.955502E-02	2.774830E-04
4.272358E+03	1.934322E-02	2.737374E-04
4.282294E+03	1.915155E-02	2.702917E-04
4.292229E+03	1.899003E-02	2.672845E-04
4.302165E+03	1.886901E-02	2.648577E-04
4.312101E+03	1.879720E-02	2.631286E-04
4.322036E+03	1.878303E-02	2.622094E-04
4.331972E+03	1.883156E-02	2.621640E-04
4.341908E+03	1.894675E-02	2.630399E-04
4.351844E+03	1.912894E-02	2.648344E-04
4.361779E+03	1.937607E-02	2.675114E-04
4.371715E+03	1.968733E-02	2.710521E-04
4.381651E+03	2.006386E-02	2.754651E-04
4.391586E+03	2.050392E-02	2.807189E-04
4.401522E+03	2.100373E-02	2.867546E-04
4.411458E+03	2.155760E-02	2.934881E-04
4.421394E+03	2.215820E-02	3.008136E-04
4.431329E+03	2.279693E-02	3.086093E-04
4.441265E+03	2.346365E-02	3.167341E-04
4.451201E+03	2.414791E-02	3.250441E-04
4.461136E+03	2.483857E-02	3.333881E-04
4.471072E+03	2.552455E-02	3.416169E-04
4.481008E+03	2.619385E-02	3.495711E-04
4.490944E+03	2.683643E-02	3.571193E-04
4.500879E+03	2.744121E-02	3.641175E-04
4.510815E+03	2.799823E-02	3.704384E-04
4.520751E+03	2.849866E-02	3.759713E-04
4.530686E+03	2.893358E-02	3.806053E-04
4.540622E+03	2.929375E-02	3.842269E-04
4.550558E+03	2.957083E-02	3.867357E-04
4.560494E+03	2.975612E-02	3.880279E-04
4.570429E+03	2.984052E-02	3.879959E-04
4.580365E+03	2.981516E-02	3.865361E-04
4.590301E+03	2.967237E-02	3.835620E-04
4.600236E+03	2.940611E-02	3.790093E-04
4.610172E+03	2.901331E-02	3.728524E-04
4.620108E+03	2.849571E-02	3.651280E-04
4.630044E+03	2.786050E-02	3.559421E-04
4.639979E+03	2.712023E-02	3.454678E-04
4.649915E+03	2.629228E-02	3.339375E-04
4.659851E+03	2.539851E-02	3.216377E-04
4.669786E+03	2.446138E-02	3.088595E-04
4.679722E+03	2.350458E-02	2.959057E-04
4.689658E+03	2.254965E-02	2.830485E-04
4.699594E+03	2.162071E-02	2.705896E-04
4.709529E+03	2.074806E-02	2.589039E-04
4.719465E+03	1.995700E-02	2.482997E-04
4.729401E+03	1.926640E-02	2.390022E-04
4.739336E+03	1.868939E-02	2.311624E-04
4.749272E+03	1.823513E-02	2.248807E-04
4.759208E+03	1.790853E-02	2.202038E-04
4.769144E+03	1.771136E-02	2.171397E-04
4.779079E+03	1.764135E-02	2.156463E-04
4.789015E+03	1.769317E-02	2.156450E-04
4.798951E+03	1.785657E-02	2.169983E-04
4.808887E+03	1.811707E-02	2.195187E-04
4.818822E+03	1.845434E-02	2.229504E-04
4.828758E+03	1.884265E-02	2.269754E-04
4.838694E+03	1.925288E-02	2.312388E-04
4.848629E+03	1.965310E-02	2.353562E-04
4.858565E+03	2.001250E-02	2.389607E-04
4.868501E+03	2.030499E-02	2.417464E-04
4.878437E+03	2.051226E-02	2.435030E-04
4.888372E+03	2.062639E-02	2.441456E-04
4.898308E+03	2.065093E-02	2.437261E-04
4.908244E+03	2.059899E-02	2.424078E-04
4.918179E+03	2.049192E-02	2.404494E-04
4.928115E+03	2.035442E-02	2.381453E-04
4.938051E+03	2.021101E-02	2.357848E-04
4.947987E+03	2.008337E-02	2.336205E-04
4.957922E+03	1.998813E-02	2.318439E-04
4.967858E+03	1.993621E-02	2.305778E-04
4.977794E+03	1.993226E-02	2.298718E-04
4.987729E+03	1.997619E-02	2.297199E-04
4.997665E+03	2.006426E-02	2.300747E-04
5.007601E+03	2.019084E-02	2.308677E-04
5.017537E+03	2.034917E-02	2.320181E-04
5.027472E+03	2.053386E-02	2.334615E-04
5.037408E+03	2.074081E-02	2.351493E-04
5.047344E+03	2.096787E-02	2.370551E-04
5.057279E+03	2.121464E-02	2.391727E-04
5.067215E+03	2.148199E-02	2.415102E-04
5.077151E+03	2.177093E-02	2.440774E-04
5.087087E+03	2.208342E-02	2.468942E-04
5.097022E+03	2.241953E-02	2.499596E-04
5.106958E+03	2.277850E-02	2.532631E-04
5.116894E+03	2.315792E-02	2.567765E-04
5.126829E+03	2.355371E-02	2.604528E-04
5.136765E+03	2.396000E-02	2.642265E-04
5.146701E+03	2.436972E-02	2.680190E-04
5.156637E+03	2.477363E-02	2.717293E-04
5.166572E+03	2.516327E-02	2.752656E-04
5.176508E+03	2.552881E-02	2.785223E-04
5.186444E+03	2.586160E-02	2.814078E-04
5.196379E+03	2.615353E-02	2.838374E-04
5.206315E+03	2.639806E-02	2.857439E-04
5.216251E+03	2.659150E-02	2.870922E-04
5.226187E+03	2.673182E-02	2.878647E-04
5.236122E+03	2.681981E-02	2.880746E-04
5.246058E+03	2.685843E-02	2.877583E-04
5.255994E+03	2.685295E-02	2.869763E-04
5.265929E+03	2.681030E-02	2.858060E-04
5.275865E+03	2.673714E-02	2.843216E-04
5.285801E+03	2.664087E-02	2.826039E-04
5.295737E+03	2.652656E-02	2.807085E-04
5.305672E+03	2.639800E-02	2.786767E-04
5.315608E+03	2.625694E-02	2.765283E-04
5.325544E+03	2.610236E-02	2.742534E-04
5.335479E+03	2.593126E-02	2.718215E-04
5.345415E+03	2.574004E-02	2.691962E-04
5.355351E+03	2.552334E-02	2.663230E-04
5.365287E+03	2.527729E-02	2.631629E-04
5.375222E+03	2.499907E-02	2.596886E-04
5.385158E+03	2.468752E-02	2.558899E-04
5.395094E+03	2.434405E-02	2.517833E-04
5.405029E+03	2.397102E-02	2.473949E-04
5.414965E+03	2.357262E-02	2.427695E-04
5.424901E+03	2.315264E-02	2.379471E-04
5.434837E+03	2.271449E-02	2.329639E-04
5.444772E+03	2.226002E-02	2.278392E-04
5.454708E+03	2.178833E-02	2.225645E-04
5.464644E+03	2.129682E-02	2.171141E-04
5.474579E+03	2.077701E-02	2.114021E-04
5.484515E+03	2.022187E-02	2.053584E-04
5.494451E+03	1.962752E-02	1.989451E-04
5.504387E+03	1.899437E-02	1.921683E-04
5.514322E+03	1.832888E-02	1.850946E-04
5.524258E+03	1.764369E-02	1.778526E-04
5.534194E+03	1.695634E-02	1.706192E-04
5.544129E+03	1.628841E-02	1.636107E-04
5.554065E+03	1.566295E-02	1.570565E-04
5.564001E+03	1.510265E-02	1.511810E-04
5.573937E+03	1.462833E-02	1.461884E-04
5.583872E+03	1.425729E-02	1.422465E-04
5.593808E+03	1.400388E-02	1.394928E-04
5.603744E+03	1.387854E-02	1.380253E-04
5.613679E+03	1.388821E-02	1.379067E-04
5.623615E+03	1.403691E-02	1.391706E-04
5.633551E+03	1.432541E-02	1.418185E-04
5.643487E+03	1.475118E-02	1.458193E-04
5.653422E+03	1.530809E-02	1.511071E-04
5.663358E+03	1.598599E-02	1.575768E-04
5.673294E+03	1.677068E-02	1.650841E-04
5.683230E+03	1.764332E-02	1.734403E-04
5.693165E+03	1.858159E-02	1.824238E-04
5.703101E+03	1.956001E-02	1.917830E-04
5.713037E+03	2.055126E-02	2.012498E-04
5.722972E+03	2.152731E-02	2.105507E-04
5.732908E+03	2.246167E-02	2.194284E-04
5.742844E+03	2.332923E-02	2.276404E-04
5.752780E+03	2.410822E-02	2.349776E-04
5.762715E+03	2.478101E-02	2.412721E-04
5.772651E+03	2.533424E-02	2.463982E-04
5.782587E+03	2.575921E-02	2.502756E-04
5.792522E+03	2.605322E-02	2.528825E-04
5.802458E+03	2.621764E-02	2.542362E-04
5.812394E+03	2.625969E-02	2.544106E-04
5.822330E+03	2.619104E-02	2.535220E-04
5.832265E+03	2.602645E-02	2.517160E-04
5.842201E+03	2.578379E-02	2.491677E-04
5.852137E+03	2.548204E-02	2.460619E-04
5.862072E+03	2.513996E-02	2.425807E-04
5.872008E+03	2.477616E-02	2.389042E-04
5.881944E+03	2.440633E-02	2.351835E-04
5.891880E+03	2.404475E-02	2.315563E-04
5.901815E+03	2.370242E-02	2.281277E-04
5.911751E+03	2.338715E-02	2.249723E-04
5.921687E+03	2.310440E-02	2.221419E-04
5.931622E+03	2.285658E-02	2.196590E-04
5.941558E+03	2.264345E-02	2.175207E-04
5.951494E+03	2.246263E-02	2.157034E-04
5.961430E+03	2.230912E-02	2.141589E-04
5.971365E+03	2.217648E-02	2.128247E-04
5.981301E+03	2.205720E-02	2.116290E-04
5.991237E+03	2.194281E-02	2.104900E-04
6.001172E+03	2.182465E-02	2.093247E-04
6.011108E+03	2.169426E-02	2.080521E-04
6.021044E+03	2.154519E-02	2.066101E-04
6.030980E+03	2.137195E-02	2.049461E-04
6.040915E+03	2.117254E-02	2.030408E-04
6.050851E+03	2.094808E-02	2.009048E-04
6.060787E+03	2.070280E-02	1.985784E-04
6.070722E+03	2.044503E-02	1.961412E-04
6.080658E+03	2.018488E-02	1.936899E-04
6.090594E+03	1.993412E-02	1.913372E-04
6.100530E+03	1.970343E-02	1.891854E-04
6.110465E+03	1.950196E-02	1.873224E-04
6.120401E+03	1.933539E-02	1.858029E-04
6.130337E+03	1.920425E-02	1.846324E-04
6.140272E+03	1.910455E-02	1.837729E-04
6.150208E+03	1.902648E-02	1.831303E-04
6.160144E+03	1.896494E-02	1.826559E-04
6.170080E+03	1.892610E-02	1.824095E-04
6.180015E+03	1.891217E-02	1.824129E-04
6.189951E+03	1.892152E-02	1.826508E-04
6.199887E+03	1.894889E-02	1.830731E-04
6.209822E+03	1.898689E-02	1.836084E-04
6.219758E+03	1.902620E-02	1.841668E-04
6.229694E+03	1.905696E-02	1.846525E-04
6.239630E+03	1.906830E-02	1.849600E-04
6.249565E+03	1.905004E-02	1.849893E-04
6.259501E+03	1.899329E-02	1.846530E-04
6.269437E+03	1.889162E-02	1.838869E-04
6.279372E+03	1.874123E-02	1.826521E-04
6.289308E+03	1.854262E-02	1.809513E-04
6.299244E+03	1.830004E-02	1.788238E-04
6.309180E+03	1.802217E-02	1.763522E-04
6.319115E+03	1.772158E-02	1.736578E-04
6.329051E+03	1.741308E-02	1.708845E-04
6.338987E+03	1.711343E-02	1.681961E-04
6.348922E+03	1.683918E-02	1.657554E-04
6.358858E+03	1.660653E-02	1.637228E-04
6.368794E+03	1.642903E-02	1.622336E-04
6.378730E+03	1.631797E-02	1.614018E-04
6.388665E+03	1.628121E-02	1.613083E-04
6.398601E+03	1.632303E-02	1.619990E-04
6.408537E+03	1.644428E-02	1.634862E-04
6.418472E+03	1.664254E-02	1.657500E-04
6.428408E+03	1.691218E-02	1.687383E-04
6.438344E+03	1.724583E-02	1.723814E-04
6.448280E+03	1.763287E-02	1.765765E-04
6.458215E+03	1.806170E-02	1.812106E-04
6.468151E+03	1.851944E-02	1.861567E-04
6.478087E+03	1.899346E-02	1.912894E-04
6.488022E+03	1.947014E-02	1.964726E-04
6.497958E+03	1.993683E-02	2.015788E-04
6.507894E+03	2.038203E-02	2.064910E-04
6.517830E+03	2.079486E-02	2.110978E-04
6.527765E+03	2.116637E-02	2.153061E-04
6.537701E+03	2.148891E-02	2.190357E-04
6.547637E+03	2.175644E-02	2.222219E-04
6.557573E+03	2.196465E-02	2.248169E-04
6.567508E+03	2.211115E-02	2.267927E-04
6.577444E+03	2.219453E-02	2.281305E-04
6.587380E+03	2.221541E-02	2.288327E-04
6.597315E+03	2.217534E-02	2.289109E-04
6.607251E+03	2.207693E-02	2.283880E-04
6.617187E+03	2.192402E-02	2.272998E-04
6.627123E+03	2.172068E-02	2.256845E-04
6.637058E+03	2.147240E-02	2.235957E-04
6.646994E+03	2.118499E-02	2.210907E-04
6.656930E+03	2.086611E-02	2.182467E-04
6.666865E+03	2.052355E-02	2.151429E-04
6.676801E+03	2.016645E-02	2.118734E-04
6.686737E+03	1.980480E-02	2.085422E-04
6.696673E+03	1.944941E-02	2.052626E-04
6.706608E+03	1.911061E-02	2.021442E-04
6.716544E+03	1.879889E-02	1.992992E-04
6.726480E+03	1.852318E-02	1.968243E-04
6.736415E+03	1.829187E-02	1.948112E-04
6.746351E+03	1.811052E-02	1.933223E-04
6.756287E+03	1.798359E-02	1.924089E-04
6.766223E+03	1.791325E-02	1.920983E-04
6.776158E+03	1.789946E-02	1.923939E-04
6.786094E+03	1.794107E-02	1.932877E-04
6.796030E+03	1.803435E-02	1.947434E-04
6.805965E+03	1.817425E-02	1.967101E-04
6.815901E+03	1.835433E-02	1.991216E-04
6.825837E+03	1.856697E-02	2.018981E-04
6.835773E+03	1.880373E-02	2.049499E-04
6.845708E+03	1.905561E-02	2.081808E-04
6.855644E+03	1.931347E-02	2.114917E-04
6.865580E+03	1.956841E-02	2.147854E-04
6.875515E+03	1.981215E-02	2.179707E-04
6.885451E+03	2.003770E-02	2.209696E-04
6.895387E+03	2.023843E-02	2.237076E-04
6.905323E+03	2.041055E-02	2.261405E-04
6.915258E+03	2.055096E-02	2.282319E-04
6.925194E+03	2.065868E-02	2.299683E-04
6.935130E+03	2.073402E-02	2.313506E-04
6.945065E+03	2.077979E-02	2.324079E-04
6.955001E+03	2.079900E-02	2.331713E-04
6.964937E+03	2.079578E-02	2.336852E-04
6.974873E+03	2.077467E-02	2.339991E-04
6.984808E+03	2.074020E-02	2.341623E-04
6.994744E+03	2.069651E-02	2.342210E-04
7.004680E+03	2.064708E-02	2.342139E-04
7.014615E+03	2.059421E-02	2.341664E-04
7.024551E+03	2.054028E-02	2.341054E-04
7.034487E+03	2.048575E-02	2.340362E-04
7.044423E+03	2.043064E-02	2.339590E-04
7.054358E+03	2.037407E-02	2.338635E-04
7.064294E+03	2.031589E-02	2.337479E-04
7.074230E+03	2.025441E-02	2.335926E-04
7.084165E+03	2.018950E-02	2.333958E-04
7.094101E+03	2.012024E-02	2.331466E-04
7.104037E+03	2.004606E-02	2.328380E-04
7.113973E+03	1.996784E-02	2.324798E-04
7.123908E+03	1.988573E-02	2.320735E-04
7.133844E+03	1.980051E-02	2.316278E-04
7.143780E+03	1.971311E-02	2.311535E-04
7.153715E+03	1.962484E-02	2.306656E-04
7.163651E+03	1.953621E-02	2.301703E-04
7.173587E+03	1.944827E-02	2.296798E-04
7.183523E+03	1.936108E-02	2.291950E-04
7.193458E+03	1.927509E-02	2.287211E-04
7.203394E+03	1.919001E-02	2.282550E-04
7.213330E+03	1.910559E-02	2.277936E-04
7.223265E+03	1.902018E-02	2.273176E-04
7.233201E+03	1.893332E-02	2.268209E-04
7.243137E+03	1.884360E-02	2.262869E-04
7.253073E+03	1.874955E-02	2.256975E-04
7.263008E+03	1.864933E-02	2.250302E-04
7.272944E+03	1.854265E-02	2.242808E-04
7.282880E+03	1.842768E-02	2.234268E-04
7.292815E+03	1.830366E-02	2.224580E-04
7.302751E+03	1.817097E-02	2.213784E-04
7.312687E+03	1.802947E-02	2.201855E-04
7.322623E+03	1.788024E-02	2.188917E-04
7.332558E+03	1.772417E-02	2.175073E-04
7.342494E+03	1.756288E-02	2.160516E-04
7.352430E+03	1.739860E-02	2.145516E-04
7.362365E+03	1.723327E-02	2.130309E-04
7.372301E+03	1.706832E-02	2.115073E-04
7.382237E+03	1.690517E-02	2.099982E-04
7.392173E+03	1.674464E-02	2.085143E-04
7.402108E+03	1.658692E-02	2.070580E-04
7.412044E+03	1.643186E-02	2.056275E-04
7.421980E+03	1.627785E-02	2.042032E-04
7.431916E+03	1.612425E-02	2.027768E-04
7.441851E+03	1.597053E-02	2.013419E-04
7.451787E+03	1.581719E-02	1.999047E-04
7.461723E+03	1.566567E-02	1.984833E-04
7.471658E+03	1.551764E-02	1.970991E-04
7.481594E+03	1.537161E-02	1.957337E-04
7.491530E+03	1.522853E-02	1.943991E-04
7.501466E+03	1.508995E-02	1.931156E-04
7.511401E+03	1.495843E-02	1.919162E-04
7.521337E+03	1.483661E-02	1.908356E-04
7.531273E+03	1.472663E-02	1.899021E-04
7.541208E+03	1.463071E-02	1.891456E-04
7.551144E+03	1.454959E-02	1.885767E-04
7.561080E+03	1.448460E-02	1.882143E-04
7.571016E+03	1.443531E-02	1.880542E-04
7.580951E+03	1.440170E-02	1.880976E-04
7.590887E+03	1.438299E-02	1.883359E-04
7.600823E+03	1.437781E-02	1.887524E-04
7.610758E+03	1.438510E-02	1.893346E-04
7.620694E+03	1.440269E-02	1.900549E-04
7.630630E+03	1.442978E-02	1.909038E-04
7.640566E+03	1.446366E-02	1.918464E-04
7.650501E+03	1.450311E-02	1.928669E-04
7.660437E+03	1.454567E-02	1.939332E-04
7.670373E+03	1.459016E-02	1.950298E-04
7.680308E+03	1.463458E-02	1.961299E-04
7.690244E+03	1.467736E-02	1.972124E-04
7.700180E+03	1.471739E-02	1.982624E-04
7.710116E+03	1.475282E-02	1.992543E-04
