#wls	flux	fluxerr
1.589715E+03	2.103189E-04	4.802893E-06
1.629457E+03	2.123137E-04	4.830733E-06
1.669200E+03	2.141772E-04	4.854833E-06
1.708943E+03	2.158147E-04	4.873074E-06
1.748686E+03	2.171987E-04	4.884875E-06
1.788429E+03	2.183286E-04	4.890273E-06
1.828172E+03	2.190908E-04	4.886794E-06
1.867915E+03	2.193053E-04	4.870530E-06
1.907657E+03	2.188286E-04	4.838453E-06
1.947400E+03	2.176446E-04	4.790411E-06
1.987143E+03	2.157533E-04	4.726616E-06
2.026886E+03	2.135371E-04	4.655630E-06
2.066629E+03	2.117241E-04	4.593363E-06
2.106372E+03	2.115150E-04	4.565601E-06
2.146115E+03	2.138810E-04	4.592672E-06
2.185858E+03	2.193581E-04	4.685128E-06
2.225600E+03	2.276243E-04	4.835012E-06
2.265343E+03	2.378804E-04	5.024398E-06
2.305086E+03	2.492464E-04	5.234007E-06
2.344829E+03	2.611558E-04	5.451509E-06
2.384572E+03	2.733145E-04	5.670503E-06
2.424315E+03	2.855835E-04	5.887925E-06
2.464058E+03	2.978366E-04	6.101042E-06
2.503800E+03	3.102610E-04	6.313566E-06
2.543543E+03	3.228611E-04	6.525411E-06
2.583286E+03	3.357499E-04	6.738663E-06
2.623029E+03	3.489219E-04	6.952979E-06
2.662772E+03	3.625305E-04	7.171160E-06
2.702515E+03	3.765449E-04	7.392294E-06
2.742258E+03	3.910982E-04	7.618673E-06
2.782000E+03	4.061930E-04	7.849976E-06
2.821743E+03	4.218791E-04	8.086783E-06
2.861486E+03	4.381937E-04	8.329391E-06
2.901229E+03	4.552252E-04	8.579029E-06
2.940972E+03	4.729825E-04	8.835377E-06
2.980715E+03	4.915217E-04	9.098971E-06
2.990650E+03	4.963346E-04	9.166972E-06
3.000586E+03	5.011888E-04	9.235239E-06
3.010522E+03	5.060148E-04	9.302489E-06
3.020458E+03	5.109491E-04	9.371222E-06
3.030393E+03	5.160032E-04	9.441637E-06
3.040329E+03	5.211215E-04	9.512700E-06
3.050265E+03	5.262975E-04	9.584281E-06
3.060201E+03	5.315932E-04	9.657495E-06
3.070136E+03	5.369334E-04	9.730965E-06
3.080072E+03	5.423816E-04	9.805828E-06
3.090008E+03	5.478630E-04	9.880718E-06
3.099943E+03	5.534404E-04	9.956759E-06
3.109879E+03	5.591080E-04	1.003383E-05
3.119815E+03	5.647910E-04	1.011058E-05
3.129751E+03	5.706218E-04	1.018937E-05
3.139686E+03	5.764565E-04	1.026761E-05
3.149622E+03	5.823582E-04	1.034642E-05
3.159558E+03	5.883910E-04	1.042692E-05
3.169493E+03	5.944093E-04	1.050653E-05
3.179429E+03	6.005472E-04	1.058760E-05
3.189365E+03	6.067277E-04	1.066876E-05
3.199301E+03	6.129457E-04	1.074991E-05
3.209236E+03	6.192642E-04	1.083215E-05
3.219172E+03	6.256068E-04	1.091413E-05
3.229108E+03	6.320363E-04	1.099694E-05
3.239043E+03	6.384772E-04	1.107924E-05
3.248979E+03	6.449921E-04	1.116213E-05
3.258915E+03	6.515734E-04	1.124545E-05
3.268851E+03	6.582141E-04	1.132908E-05
3.278786E+03	6.649071E-04	1.141288E-05
3.288722E+03	6.716449E-04	1.149671E-05
3.298658E+03	6.784208E-04	1.158045E-05
3.308593E+03	6.852947E-04	1.166511E-05
3.318529E+03	6.921920E-04	1.174941E-05
3.328465E+03	6.991035E-04	1.183319E-05
3.338401E+03	7.060908E-04	1.191749E-05
3.348336E+03	7.131468E-04	1.200216E-05
3.358272E+03	7.202632E-04	1.208707E-05
3.368208E+03	7.273655E-04	1.217094E-05
3.378143E+03	7.345829E-04	1.225595E-05
3.388079E+03	7.418405E-04	1.234082E-05
3.398015E+03	7.492009E-04	1.242658E-05
3.407951E+03	7.565256E-04	1.251092E-05
3.417886E+03	7.640115E-04	1.259711E-05
3.427822E+03	7.715251E-04	1.268291E-05
3.437758E+03	7.791335E-04	1.276941E-05
3.447693E+03	7.868413E-04	1.285669E-05
3.457629E+03	7.946583E-04	1.294488E-05
3.467565E+03	8.025984E-04	1.303419E-05
3.477501E+03	8.107483E-04	1.312600E-05
3.487436E+03	8.191367E-04	1.322075E-05
3.497372E+03	8.277396E-04	1.331801E-05
3.507308E+03	8.366719E-04	1.341958E-05
3.517243E+03	8.459976E-04	1.352645E-05
3.527179E+03	8.557924E-04	1.363975E-05
3.537115E+03	8.662052E-04	1.376179E-05
3.547051E+03	8.772668E-04	1.389294E-05
3.556986E+03	8.890712E-04	1.403460E-05
3.566922E+03	9.018318E-04	1.419001E-05
3.576858E+03	9.155034E-04	1.435831E-05
3.586793E+03	9.302756E-04	1.454232E-05
3.596729E+03	9.461412E-04	1.474175E-05
3.606665E+03	9.631506E-04	1.495723E-05
3.616601E+03	9.814138E-04	1.519027E-05
3.626536E+03	1.000985E-03	1.544150E-05
3.636472E+03	1.021926E-03	1.571170E-05
3.646408E+03	1.044310E-03	1.600174E-05
3.656343E+03	1.068221E-03	1.631269E-05
3.666279E+03	1.093815E-03	1.664668E-05
3.676215E+03	1.121194E-03	1.700500E-05
3.686151E+03	1.150406E-03	1.738806E-05
3.696086E+03	1.181689E-03	1.779920E-05
3.706022E+03	1.215035E-03	1.823794E-05
3.715958E+03	1.250687E-03	1.870759E-05
3.725893E+03	1.288762E-03	1.920952E-05
3.735829E+03	1.329300E-03	1.974397E-05
3.745765E+03	1.372470E-03	2.031301E-05
3.755701E+03	1.418360E-03	2.091753E-05
3.765636E+03	1.467110E-03	2.155917E-05
3.775572E+03	1.518637E-03	2.223623E-05
3.785508E+03	1.573108E-03	2.295071E-05
3.795443E+03	1.630522E-03	2.370215E-05
3.805379E+03	1.690847E-03	2.448958E-05
3.815315E+03	1.753933E-03	2.531039E-05
3.825251E+03	1.819808E-03	2.616452E-05
3.835186E+03	1.888227E-03	2.704804E-05
3.845122E+03	1.958961E-03	2.795726E-05
3.855058E+03	2.031723E-03	2.888772E-05
3.864993E+03	2.106240E-03	2.983523E-05
3.874929E+03	2.182095E-03	3.079365E-05
3.884865E+03	2.258722E-03	3.175479E-05
3.894801E+03	2.335741E-03	3.271320E-05
3.904736E+03	2.412375E-03	3.365799E-05
3.914672E+03	2.488050E-03	3.458125E-05
3.924608E+03	2.562068E-03	3.547348E-05
3.934544E+03	2.633794E-03	3.632618E-05
3.944479E+03	2.702330E-03	3.712739E-05
3.954415E+03	2.767062E-03	3.786924E-05
3.964351E+03	2.827430E-03	3.854470E-05
3.974286E+03	2.882690E-03	3.914439E-05
3.984222E+03	2.932565E-03	3.966538E-05
3.994158E+03	2.976646E-03	4.010305E-05
4.004094E+03	3.014673E-03	4.045486E-05
4.014029E+03	3.046718E-03	4.072272E-05
4.023965E+03	3.072915E-03	4.090941E-05
4.033901E+03	3.093533E-03	4.101946E-05
4.043836E+03	3.108877E-03	4.105778E-05
4.053772E+03	3.119428E-03	4.103157E-05
4.063708E+03	3.125724E-03	4.094865E-05
4.073644E+03	3.128254E-03	4.081611E-05
4.083579E+03	3.127667E-03	4.064297E-05
4.093515E+03	3.124506E-03	4.043680E-05
4.103451E+03	3.119055E-03	4.020166E-05
4.113386E+03	3.111996E-03	3.994670E-05
4.123322E+03	3.103514E-03	3.967454E-05
4.133258E+03	3.094029E-03	3.939079E-05
4.143194E+03	3.083772E-03	3.909853E-05
4.153129E+03	3.072936E-03	3.880035E-05
4.163065E+03	3.061756E-03	3.849931E-05
4.173001E+03	3.050384E-03	3.819736E-05
4.182936E+03	3.039032E-03	3.789722E-05
4.192872E+03	3.027854E-03	3.760081E-05
4.202808E+03	3.017026E-03	3.731026E-05
4.212744E+03	3.006801E-03	3.702870E-05
4.222679E+03	2.997346E-03	3.675807E-05
4.232615E+03	2.988916E-03	3.650138E-05
4.242551E+03	2.981906E-03	3.626330E-05
4.252486E+03	2.976510E-03	3.604598E-05
4.262422E+03	2.973106E-03	3.585376E-05
4.272358E+03	2.972026E-03	3.569033E-05
4.282294E+03	2.973547E-03	3.555867E-05
4.292229E+03	2.978081E-03	3.546333E-05
4.302165E+03	2.985813E-03	3.540605E-05
4.312101E+03	2.996992E-03	3.538936E-05
4.322036E+03	3.011933E-03	3.541644E-05
4.331972E+03	3.030665E-03	3.548712E-05
4.341908E+03	3.053438E-03	3.560378E-05
4.351844E+03	3.080374E-03	3.576732E-05
4.361779E+03	3.111531E-03	3.597780E-05
4.371715E+03	3.147032E-03	3.623609E-05
4.381651E+03	3.186884E-03	3.654170E-05
4.391586E+03	3.231127E-03	3.689451E-05
4.401522E+03	3.279785E-03	3.729424E-05
4.411458E+03	3.332865E-03	3.774039E-05
4.421394E+03	3.390386E-03	3.823264E-05
4.431329E+03	3.452272E-03	3.876956E-05
4.441265E+03	3.518381E-03	3.934902E-05
4.451201E+03	3.588586E-03	3.996908E-05
4.461136E+03	3.662561E-03	4.062565E-05
4.471072E+03	3.739974E-03	4.131461E-05
4.481008E+03	3.820219E-03	4.202890E-05
4.490944E+03	3.902774E-03	4.276252E-05
4.500879E+03	3.986784E-03	4.350591E-05
4.510815E+03	4.071430E-03	4.425007E-05
4.520751E+03	4.155723E-03	4.498431E-05
4.530686E+03	4.238552E-03	4.569679E-05
4.540622E+03	4.318749E-03	4.637525E-05
4.550558E+03	4.394978E-03	4.700583E-05
4.560494E+03	4.465845E-03	4.757430E-05
4.570429E+03	4.529743E-03	4.806437E-05
4.580365E+03	4.585157E-03	4.846099E-05
4.590301E+03	4.630410E-03	4.874762E-05
4.600236E+03	4.663888E-03	4.890870E-05
4.610172E+03	4.684007E-03	4.892916E-05
4.620108E+03	4.689486E-03	4.879735E-05
4.630044E+03	4.679168E-03	4.850306E-05
4.639979E+03	4.652555E-03	4.804306E-05
4.649915E+03	4.609508E-03	4.741784E-05
4.659851E+03	4.550582E-03	4.663501E-05
4.669786E+03	4.477015E-03	4.570898E-05
4.679722E+03	4.390725E-03	4.466090E-05
4.689658E+03	4.294245E-03	4.351782E-05
4.699594E+03	4.190604E-03	4.231135E-05
4.709529E+03	4.083220E-03	4.107662E-05
4.719465E+03	3.975647E-03	3.984951E-05
4.729401E+03	3.871469E-03	3.866575E-05
4.739336E+03	3.774146E-03	3.755929E-05
4.749272E+03	3.686882E-03	3.656106E-05
4.759208E+03	3.612405E-03	3.569687E-05
4.769144E+03	3.553202E-03	3.498981E-05
4.779079E+03	3.511145E-03	3.445660E-05
4.789015E+03	3.487732E-03	3.411013E-05
4.798951E+03	3.484034E-03	3.395893E-05
4.808887E+03	3.500524E-03	3.400568E-05
4.818822E+03	3.537349E-03	3.424986E-05
4.828758E+03	3.593912E-03	3.468380E-05
4.838694E+03	3.669283E-03	3.529672E-05
4.848629E+03	3.761673E-03	3.606979E-05
4.858565E+03	3.868719E-03	3.697897E-05
4.868501E+03	3.987244E-03	3.799276E-05
4.878437E+03	4.113474E-03	3.907442E-05
4.888372E+03	4.242960E-03	4.018128E-05
4.898308E+03	4.371030E-03	4.126908E-05
4.908244E+03	4.492738E-03	4.229153E-05
4.918179E+03	4.603568E-03	4.320691E-05
4.928115E+03	4.699563E-03	4.397920E-05
4.938051E+03	4.777918E-03	4.458355E-05
4.947987E+03	4.836901E-03	4.500534E-05
4.957922E+03	4.876106E-03	4.524239E-05
4.967858E+03	4.896566E-03	4.530586E-05
4.977794E+03	4.900246E-03	4.521532E-05
4.987729E+03	4.890032E-03	4.499858E-05
4.997665E+03	4.869122E-03	4.468604E-05
5.007601E+03	4.841082E-03	4.431106E-05
5.017537E+03	4.809167E-03	4.390383E-05
5.027472E+03	4.776369E-03	4.349184E-05
5.037408E+03	4.745063E-03	4.309665E-05
5.047344E+03	4.717161E-03	4.273545E-05
5.057279E+03	4.693958E-03	4.241966E-05
5.067215E+03	4.676202E-03	4.215567E-05
5.077151E+03	4.664292E-03	4.194668E-05
5.087087E+03	4.658383E-03	4.179367E-05
5.097022E+03	4.658397E-03	4.169555E-05
5.106958E+03	4.664172E-03	4.165048E-05
5.116894E+03	4.675483E-03	4.165610E-05
5.126829E+03	4.692255E-03	4.171142E-05
5.136765E+03	4.714430E-03	4.181560E-05
5.146701E+03	4.741979E-03	4.196809E-05
5.156637E+03	4.775077E-03	4.217013E-05
5.166572E+03	4.813711E-03	4.242134E-05
5.176508E+03	4.857928E-03	4.272186E-05
5.186444E+03	4.907777E-03	4.307186E-05
5.196379E+03	4.962937E-03	4.346825E-05
5.206315E+03	5.023018E-03	4.390744E-05
5.216251E+03	5.087267E-03	4.438263E-05
5.226187E+03	5.154756E-03	4.488563E-05
5.236122E+03	5.224235E-03	4.540546E-05
5.246058E+03	5.294214E-03	4.592921E-05
5.255994E+03	5.362982E-03	4.644209E-05
5.265929E+03	5.428814E-03	4.692932E-05
5.275865E+03	5.490109E-03	4.737733E-05
5.285801E+03	5.545373E-03	4.777350E-05
5.295737E+03	5.593597E-03	4.810950E-05
5.305672E+03	5.634152E-03	4.838030E-05
5.315608E+03	5.667044E-03	4.858631E-05
5.325544E+03	5.692923E-03	4.873347E-05
5.335479E+03	5.712787E-03	4.883062E-05
5.345415E+03	5.728262E-03	4.889191E-05
5.355351E+03	5.741033E-03	4.893191E-05
5.365287E+03	5.752849E-03	4.896564E-05
5.375222E+03	5.765533E-03	4.900865E-05
5.385158E+03	5.780424E-03	4.907232E-05
5.395094E+03	5.798668E-03	4.916634E-05
5.405029E+03	5.820867E-03	4.929568E-05
5.414965E+03	5.847036E-03	4.946034E-05
5.424901E+03	5.876462E-03	4.965415E-05
5.434837E+03	5.907869E-03	4.986623E-05
5.444772E+03	5.938993E-03	5.007740E-05
5.454708E+03	5.967031E-03	5.026405E-05
5.464644E+03	5.988465E-03	5.039663E-05
5.474579E+03	5.999500E-03	5.044336E-05
5.484515E+03	5.996132E-03	5.037081E-05
5.494451E+03	5.974759E-03	5.014899E-05
5.504387E+03	5.932330E-03	4.975266E-05
5.514322E+03	5.866967E-03	4.916641E-05
5.524258E+03	5.778149E-03	4.838623E-05
5.534194E+03	5.666753E-03	4.741979E-05
5.544129E+03	5.535460E-03	4.628976E-05
5.554065E+03	5.388418E-03	4.503102E-05
5.564001E+03	5.231103E-03	4.368940E-05
5.573937E+03	5.069745E-03	4.231692E-05
5.583872E+03	4.911255E-03	4.097114E-05
5.593808E+03	4.762368E-03	3.970803E-05
5.603744E+03	4.629637E-03	3.858194E-05
5.613679E+03	4.518749E-03	3.763994E-05
5.623615E+03	4.434740E-03	3.692359E-05
5.633551E+03	4.381646E-03	3.646611E-05
5.643487E+03	4.362700E-03	3.629400E-05
5.653422E+03	4.380517E-03	3.642866E-05
5.663358E+03	4.437091E-03	3.688631E-05
5.673294E+03	4.533722E-03	3.767745E-05
5.683230E+03	4.671240E-03	3.880868E-05
5.693165E+03	4.849698E-03	4.028022E-05
5.703101E+03	5.068446E-03	4.208648E-05
5.713037E+03	5.325611E-03	4.421177E-05
5.722972E+03	5.618181E-03	4.663103E-05
5.732908E+03	5.941828E-03	4.930831E-05
5.742844E+03	6.290734E-03	5.219538E-05
5.752780E+03	6.657569E-03	5.523153E-05
5.762715E+03	7.034063E-03	5.834829E-05
5.772651E+03	7.410900E-03	6.146859E-05
5.782587E+03	7.778431E-03	6.451260E-05
5.792522E+03	8.127144E-03	6.740170E-05
5.802458E+03	8.448069E-03	7.006169E-05
5.812394E+03	8.733529E-03	7.242912E-05
5.822330E+03	8.977137E-03	7.445121E-05
5.832265E+03	9.174396E-03	7.609080E-05
5.842201E+03	9.322448E-03	7.732426E-05
5.852137E+03	9.420204E-03	7.814256E-05
5.862072E+03	9.468432E-03	7.855207E-05
5.872008E+03	9.469265E-03	7.857038E-05
5.881944E+03	9.425995E-03	7.822467E-05
5.891880E+03	9.342990E-03	7.755101E-05
5.901815E+03	9.225451E-03	7.659239E-05
5.911751E+03	9.078726E-03	7.539299E-05
5.921687E+03	8.909011E-03	7.400402E-05
5.931622E+03	8.722074E-03	7.247319E-05
5.941558E+03	8.524025E-03	7.085107E-05
5.951494E+03	8.320430E-03	6.918375E-05
5.961430E+03	8.116687E-03	6.751598E-05
5.971365E+03	7.917550E-03	6.588721E-05
5.981301E+03	7.727242E-03	6.433255E-05
5.991237E+03	7.549293E-03	6.288139E-05
6.001172E+03	7.386418E-03	6.155643E-05
6.011108E+03	7.240688E-03	6.037504E-05
6.021044E+03	7.113261E-03	5.934703E-05
6.030980E+03	7.004507E-03	5.847572E-05
6.040915E+03	6.914225E-03	5.775965E-05
6.050851E+03	6.841484E-03	5.719134E-05
6.060787E+03	6.784734E-03	5.675808E-05
6.070722E+03	6.742039E-03	5.644396E-05
6.080658E+03	6.711097E-03	5.622998E-05
6.090594E+03	6.689359E-03	5.609501E-05
6.100530E+03	6.674153E-03	5.601688E-05
6.110465E+03	6.662689E-03	5.597231E-05
6.120401E+03	6.652356E-03	5.593947E-05
6.130337E+03	6.640621E-03	5.589713E-05
6.140272E+03	6.625285E-03	5.582676E-05
6.150208E+03	6.604851E-03	5.571567E-05
6.160144E+03	6.578755E-03	5.555900E-05
6.170080E+03	6.547296E-03	5.535912E-05
6.180015E+03	6.511544E-03	5.512497E-05
6.189951E+03	6.472931E-03	5.486854E-05
6.199887E+03	6.433091E-03	5.460359E-05
6.209822E+03	6.393747E-03	5.434460E-05
6.219758E+03	6.356433E-03	5.410452E-05
6.229694E+03	6.322336E-03	5.389342E-05
6.239630E+03	6.292467E-03	5.371994E-05
6.249565E+03	6.266920E-03	5.358493E-05
6.259501E+03	6.245534E-03	5.348709E-05
6.269437E+03	6.227245E-03	5.341736E-05
6.279372E+03	6.210495E-03	5.336238E-05
6.289308E+03	6.193093E-03	5.330328E-05
6.299244E+03	6.172775E-03	5.322043E-05
6.309180E+03	6.146898E-03	5.309077E-05
6.319115E+03	6.113296E-03	5.289522E-05
6.329051E+03	6.070235E-03	5.261828E-05
6.338987E+03	6.016836E-03	5.225179E-05
6.348922E+03	5.953441E-03	5.179809E-05
6.358858E+03	5.881431E-03	5.126865E-05
6.368794E+03	5.803584E-03	5.068718E-05
6.378730E+03	5.723667E-03	5.008622E-05
6.388665E+03	5.646155E-03	4.950482E-05
6.398601E+03	5.575949E-03	4.898604E-05
6.408537E+03	5.518168E-03	4.857522E-05
6.418472E+03	5.477409E-03	4.831349E-05
6.428408E+03	5.457870E-03	4.823878E-05
6.438344E+03	5.462781E-03	4.838077E-05
6.448280E+03	5.494601E-03	4.876257E-05
6.458215E+03	5.554550E-03	4.939645E-05
6.468151E+03	5.642820E-03	5.028565E-05
6.478087E+03	5.758208E-03	5.142099E-05
6.488022E+03	5.898493E-03	5.278410E-05
6.497958E+03	6.060017E-03	5.434356E-05
6.507894E+03	6.237938E-03	5.605708E-05
6.517830E+03	6.426430E-03	5.787313E-05
6.527765E+03	6.619173E-03	5.973528E-05
6.537701E+03	6.809522E-03	6.158367E-05
6.547637E+03	6.991202E-03	6.336130E-05
6.557573E+03	7.158584E-03	6.501655E-05
6.567508E+03	7.307119E-03	6.650716E-05
6.577444E+03	7.433477E-03	6.780165E-05
6.587380E+03	7.535543E-03	6.887938E-05
6.597315E+03	7.612318E-03	6.972974E-05
6.607251E+03	7.663743E-03	7.035071E-05
6.617187E+03	7.690385E-03	7.074595E-05
6.627123E+03	7.693157E-03	7.092242E-05
6.637058E+03	7.672974E-03	7.088712E-05
6.646994E+03	7.630826E-03	7.064783E-05
6.656930E+03	7.567522E-03	7.021074E-05
6.666865E+03	7.483616E-03	6.957972E-05
6.676801E+03	7.379767E-03	6.875966E-05
6.686737E+03	7.257261E-03	6.776138E-05
6.696673E+03	7.117862E-03	6.660024E-05
6.706608E+03	6.964129E-03	6.529923E-05
6.716544E+03	6.799701E-03	6.389167E-05
6.726480E+03	6.629238E-03	6.242081E-05
6.736415E+03	6.457997E-03	6.093586E-05
6.746351E+03	6.291933E-03	5.949309E-05
6.756287E+03	6.136828E-03	5.814760E-05
6.766223E+03	5.998481E-03	5.695508E-05
6.776158E+03	5.882189E-03	5.596692E-05
6.786094E+03	5.792342E-03	5.522629E-05
6.796030E+03	5.732666E-03	5.477036E-05
6.805965E+03	5.705918E-03	5.462730E-05
6.815901E+03	5.713671E-03	5.481416E-05
6.825837E+03	5.756445E-03	5.533798E-05
6.835773E+03	5.833564E-03	5.619433E-05
6.845708E+03	5.943147E-03	5.736709E-05
6.855644E+03	6.081843E-03	5.882579E-05
6.865580E+03	6.245019E-03	6.052726E-05
6.875515E+03	6.426841E-03	6.241629E-05
6.885451E+03	6.620245E-03	6.442528E-05
6.895387E+03	6.817581E-03	6.648034E-05
6.905323E+03	7.010789E-03	6.850296E-05
6.915258E+03	7.192240E-03	7.041826E-05
6.925194E+03	7.355384E-03	7.216130E-05
6.935130E+03	7.495100E-03	7.368070E-05
6.945065E+03	7.608016E-03	7.494188E-05
6.955001E+03	7.693223E-03	7.593434E-05
6.964937E+03	7.751210E-03	7.666127E-05
6.974873E+03	7.784543E-03	7.714654E-05
6.984808E+03	7.796802E-03	7.742425E-05
6.994744E+03	7.792077E-03	7.753388E-05
7.004680E+03	7.775109E-03	7.752172E-05
7.014615E+03	7.750292E-03	7.743096E-05
7.024551E+03	7.721903E-03	7.730399E-05
7.034487E+03	7.693539E-03	7.717672E-05
7.044423E+03	7.668336E-03	7.708070E-05
7.054358E+03	7.648829E-03	7.704171E-05
7.064294E+03	7.636908E-03	7.707922E-05
7.074230E+03	7.633828E-03	7.720644E-05
7.084165E+03	7.640290E-03	7.743110E-05
7.094101E+03	7.656099E-03	7.775183E-05
7.104037E+03	7.680800E-03	7.816469E-05
7.113973E+03	7.713018E-03	7.865627E-05
7.123908E+03	7.751106E-03	7.921030E-05
7.133844E+03	7.792957E-03	7.980564E-05
7.143780E+03	7.835769E-03	8.041389E-05
7.153715E+03	7.876767E-03	8.100664E-05
7.163651E+03	7.912956E-03	8.155298E-05
7.173587E+03	7.941433E-03	8.202273E-05
7.183523E+03	7.959484E-03	8.238733E-05
7.193458E+03	7.965237E-03	8.262678E-05
7.203394E+03	7.957146E-03	8.272423E-05
7.213330E+03	7.934797E-03	8.267449E-05
7.223265E+03	7.898464E-03	8.247950E-05
7.233201E+03	7.849523E-03	8.215274E-05
7.243137E+03	7.789575E-03	8.171013E-05
7.253073E+03	7.720953E-03	8.117548E-05
7.263008E+03	7.646047E-03	8.057337E-05
7.272944E+03	7.567109E-03	7.992712E-05
7.282880E+03	7.486464E-03	7.926108E-05
7.292815E+03	7.405619E-03	7.859111E-05
7.302751E+03	7.326218E-03	7.793468E-05
7.312687E+03	7.249069E-03	7.730055E-05
7.322623E+03	7.174508E-03	7.669245E-05
7.332558E+03	7.102651E-03	7.611185E-05
7.342494E+03	7.033032E-03	7.555394E-05
7.352430E+03	6.965093E-03	7.501291E-05
7.362365E+03	6.897993E-03	7.447980E-05
7.372301E+03	6.830617E-03	7.394261E-05
7.382237E+03	6.762233E-03	7.339337E-05
7.392173E+03	6.691871E-03	7.282143E-05
7.402108E+03	6.619015E-03	7.222098E-05
7.412044E+03	6.543315E-03	7.158795E-05
7.421980E+03	6.464796E-03	7.092233E-05
7.431916E+03	6.383610E-03	7.022551E-05
7.441851E+03	6.300305E-03	6.950325E-05
7.451787E+03	6.215823E-03	6.876573E-05
7.461723E+03	6.131292E-03	6.802528E-05
7.471658E+03	6.048285E-03	6.729937E-05
7.481594E+03	5.968734E-03	6.660964E-05
7.491530E+03	5.894490E-03	6.597709E-05
7.501466E+03	5.827455E-03	6.542354E-05
7.511401E+03	5.769068E-03	6.496589E-05
7.521337E+03	5.720783E-03	6.462138E-05
7.531273E+03	5.683509E-03	6.440124E-05
7.541208E+03	5.657914E-03	6.431413E-05
7.551144E+03	5.644358E-03	6.436531E-05
7.561080E+03	5.642901E-03	6.455673E-05
7.571016E+03	5.653323E-03	6.488712E-05
7.580951E+03	5.675055E-03	6.535124E-05
7.590887E+03	5.707494E-03	6.594338E-05
7.600823E+03	5.749570E-03	6.665237E-05
7.610758E+03	5.799994E-03	6.746433E-05
7.620694E+03	5.857439E-03	6.836478E-05
7.630630E+03	5.920351E-03	6.933637E-05
7.640566E+03	5.987068E-03	7.036024E-05
7.650501E+03	6.055870E-03	7.141661E-05
7.660437E+03	6.124952E-03	7.248439E-05
7.670373E+03	6.192724E-03	7.354479E-05
7.680308E+03	6.257633E-03	7.457912E-05
7.690244E+03	6.318286E-03	7.557040E-05
7.700180E+03	6.373507E-03	7.650398E-05
7.710116E+03	6.422282E-03	7.736694E-05
