#wls	flux	fluxerr
1.589715E+03	1.252925E-04	2.422174E-06
1.629457E+03	1.274550E-04	2.455140E-06
1.669200E+03	1.295583E-04	2.486449E-06
1.708943E+03	1.315958E-04	2.515974E-06
1.748686E+03	1.335512E-04	2.543404E-06
1.788429E+03	1.353950E-04	2.568183E-06
1.828172E+03	1.370316E-04	2.588516E-06
1.867915E+03	1.383710E-04	2.602745E-06
1.907657E+03	1.393636E-04	2.609999E-06
1.947400E+03	1.398886E-04	2.608104E-06
1.987143E+03	1.400105E-04	2.598365E-06
2.026886E+03	1.399189E-04	2.584383E-06
2.066629E+03	1.401424E-04	2.575923E-06
2.106372E+03	1.414407E-04	2.586793E-06
2.146115E+03	1.445618E-04	2.630292E-06
2.185858E+03	1.499035E-04	2.713080E-06
2.225600E+03	1.572980E-04	2.831457E-06
2.265343E+03	1.663135E-04	2.977039E-06
2.305086E+03	1.764009E-04	3.139495E-06
2.344829E+03	1.872005E-04	3.312062E-06
2.384572E+03	1.985027E-04	3.490747E-06
2.424315E+03	2.102643E-04	3.674552E-06
2.464058E+03	2.224980E-04	3.863456E-06
2.503800E+03	2.352925E-04	4.058738E-06
2.543543E+03	2.487235E-04	4.261407E-06
2.583286E+03	2.628696E-04	4.472467E-06
2.623029E+03	2.779156E-04	4.694679E-06
2.662772E+03	2.938566E-04	4.927511E-06
2.702515E+03	3.108229E-04	5.172672E-06
2.742258E+03	3.288938E-04	5.430947E-06
2.782000E+03	3.481293E-04	5.702743E-06
2.821743E+03	3.685181E-04	5.987262E-06
2.861486E+03	3.901004E-04	6.284521E-06
2.901229E+03	4.127820E-04	6.592349E-06
2.940972E+03	4.364543E-04	6.908382E-06
2.980715E+03	4.610371E-04	7.230745E-06
2.990650E+03	4.672923E-04	7.311743E-06
3.000586E+03	4.735701E-04	7.392556E-06
3.010522E+03	4.799151E-04	7.473873E-06
3.020458E+03	4.862220E-04	7.554049E-06
3.030393E+03	4.925987E-04	7.634757E-06
3.040329E+03	4.990519E-04	7.716088E-06
3.050265E+03	5.054662E-04	7.796250E-06
3.060201E+03	5.119331E-04	7.876654E-06
3.070136E+03	5.184413E-04	7.957115E-06
3.080072E+03	5.248722E-04	8.035811E-06
3.090008E+03	5.313712E-04	8.114969E-06
3.099943E+03	5.377671E-04	8.191967E-06
3.109879E+03	5.442045E-04	8.269012E-06
3.119815E+03	5.505098E-04	8.343465E-06
3.129751E+03	5.568298E-04	8.417559E-06
3.139686E+03	5.629878E-04	8.488621E-06
3.149622E+03	5.691301E-04	8.558870E-06
3.159558E+03	5.751341E-04	8.626465E-06
3.169493E+03	5.810368E-04	8.691973E-06
3.179429E+03	5.867694E-04	8.754376E-06
3.189365E+03	5.924224E-04	8.815039E-06
3.199301E+03	5.978712E-04	8.872120E-06
3.209236E+03	6.030986E-04	8.925384E-06
3.219172E+03	6.081962E-04	8.976209E-06
3.229108E+03	6.130381E-04	9.022756E-06
3.239043E+03	6.177149E-04	9.066380E-06
3.248979E+03	6.221019E-04	9.105277E-06
3.258915E+03	6.262357E-04	9.140016E-06
3.268851E+03	6.300996E-04	9.170379E-06
3.278786E+03	6.336767E-04	9.196155E-06
3.288722E+03	6.370052E-04	9.217929E-06
3.298658E+03	6.399631E-04	9.233973E-06
3.308593E+03	6.426427E-04	9.245657E-06
3.318529E+03	6.449256E-04	9.251319E-06
3.328465E+03	6.469054E-04	9.252343E-06
3.338401E+03	6.485203E-04	9.247890E-06
3.348336E+03	6.497627E-04	9.237896E-06
3.358272E+03	6.506783E-04	9.223056E-06
3.368208E+03	6.512139E-04	9.202659E-06
3.378143E+03	6.513705E-04	9.176768E-06
3.388079E+03	6.512025E-04	9.146198E-06
3.398015E+03	6.507166E-04	9.111084E-06
3.407951E+03	6.498284E-04	9.070291E-06
3.417886E+03	6.486998E-04	9.026122E-06
3.427822E+03	6.472572E-04	8.977592E-06
3.437758E+03	6.455278E-04	8.925118E-06
3.447693E+03	6.435899E-04	8.869817E-06
3.457629E+03	6.414799E-04	8.812221E-06
3.467565E+03	6.392390E-04	8.752916E-06
3.477501E+03	6.369110E-04	8.692520E-06
3.487436E+03	6.345017E-04	8.631124E-06
3.497372E+03	6.321057E-04	8.570024E-06
3.507308E+03	6.297745E-04	8.509914E-06
3.517243E+03	6.275594E-04	8.451479E-06
3.527179E+03	6.255095E-04	8.395363E-06
3.537115E+03	6.237089E-04	8.342670E-06
3.547051E+03	6.221171E-04	8.292827E-06
3.556986E+03	6.208055E-04	8.246755E-06
3.566922E+03	6.198349E-04	8.205221E-06
3.576858E+03	6.191844E-04	8.167902E-06
3.586793E+03	6.188676E-04	8.134936E-06
3.596729E+03	6.188966E-04	8.106433E-06
3.606665E+03	6.193218E-04	8.083002E-06
3.616601E+03	6.201259E-04	8.064364E-06
3.626536E+03	6.213396E-04	8.050863E-06
3.636472E+03	6.230457E-04	8.043509E-06
3.646408E+03	6.253080E-04	8.043053E-06
3.656343E+03	6.281781E-04	8.050075E-06
3.666279E+03	6.317657E-04	8.065889E-06
3.676215E+03	6.362368E-04	8.092501E-06
3.686151E+03	6.417443E-04	8.131723E-06
3.696086E+03	6.484628E-04	8.185602E-06
3.706022E+03	6.565512E-04	8.255963E-06
3.715958E+03	6.662525E-04	8.345644E-06
3.725893E+03	6.777888E-04	8.457181E-06
3.735829E+03	6.913933E-04	8.593198E-06
3.745765E+03	7.072702E-04	8.755915E-06
3.755701E+03	7.257307E-04	8.948829E-06
3.765636E+03	7.469441E-04	9.173631E-06
3.775572E+03	7.711777E-04	9.433175E-06
3.785508E+03	7.986487E-04	9.729650E-06
3.795443E+03	8.295512E-04	1.006492E-05
3.805379E+03	8.640466E-04	1.044041E-05
3.815315E+03	9.022502E-04	1.085695E-05
3.825251E+03	9.442614E-04	1.131517E-05
3.835186E+03	9.899814E-04	1.181329E-05
3.845122E+03	1.039344E-03	1.234996E-05
3.855058E+03	1.092137E-03	1.292209E-05
3.864993E+03	1.148027E-03	1.352522E-05
3.874929E+03	1.206603E-03	1.415401E-05
3.884865E+03	1.267162E-03	1.479985E-05
3.894801E+03	1.329018E-03	1.545441E-05
3.904736E+03	1.391370E-03	1.610822E-05
3.914672E+03	1.453168E-03	1.674905E-05
3.924608E+03	1.513476E-03	1.736624E-05
3.934544E+03	1.571364E-03	1.794937E-05
3.944479E+03	1.625766E-03	1.848668E-05
3.954415E+03	1.675894E-03	1.896977E-05
3.964351E+03	1.721038E-03	1.939127E-05
3.974286E+03	1.760660E-03	1.974593E-05
3.984222E+03	1.794354E-03	2.003006E-05
3.994158E+03	1.822111E-03	2.024448E-05
4.004094E+03	1.843859E-03	2.038933E-05
4.014029E+03	1.859903E-03	2.046889E-05
4.023965E+03	1.870574E-03	2.048769E-05
4.033901E+03	1.876395E-03	2.045228E-05
4.043836E+03	1.878111E-03	2.037151E-05
4.053772E+03	1.876209E-03	2.025130E-05
4.063708E+03	1.871518E-03	2.010112E-05
4.073644E+03	1.864669E-03	1.992818E-05
4.083579E+03	1.856266E-03	1.973924E-05
4.093515E+03	1.847036E-03	1.954225E-05
4.103451E+03	1.837457E-03	1.934239E-05
4.113386E+03	1.827940E-03	1.914401E-05
4.123322E+03	1.818940E-03	1.895187E-05
4.133258E+03	1.810791E-03	1.876934E-05
4.143194E+03	1.803710E-03	1.859853E-05
4.153129E+03	1.797915E-03	1.844150E-05
4.163065E+03	1.793570E-03	1.829973E-05
4.173001E+03	1.790787E-03	1.817414E-05
4.182936E+03	1.789628E-03	1.806509E-05
4.192872E+03	1.790104E-03	1.797242E-05
4.202808E+03	1.792130E-03	1.789504E-05
4.212744E+03	1.795628E-03	1.783192E-05
4.222679E+03	1.800535E-03	1.778219E-05
4.232615E+03	1.806611E-03	1.774328E-05
4.242551E+03	1.813753E-03	1.771398E-05
4.252486E+03	1.821801E-03	1.769259E-05
4.262422E+03	1.830548E-03	1.767695E-05
4.272358E+03	1.839882E-03	1.766586E-05
4.282294E+03	1.849542E-03	1.765676E-05
4.292229E+03	1.859456E-03	1.764890E-05
4.302165E+03	1.869354E-03	1.763970E-05
4.312101E+03	1.879094E-03	1.762784E-05
4.322036E+03	1.888416E-03	1.761092E-05
4.331972E+03	1.897060E-03	1.758661E-05
4.341908E+03	1.904654E-03	1.755160E-05
4.351844E+03	1.910868E-03	1.750303E-05
4.361779E+03	1.915116E-03	1.743583E-05
4.371715E+03	1.917985E-03	1.735561E-05
4.381651E+03	1.920875E-03	1.727524E-05
4.391586E+03	1.925211E-03	1.720742E-05
4.401522E+03	1.932017E-03	1.716104E-05
4.411458E+03	1.942235E-03	1.714400E-05
4.421394E+03	1.956541E-03	1.716165E-05
4.431329E+03	1.975349E-03	1.721693E-05
4.441265E+03	1.998871E-03	1.731093E-05
4.451201E+03	2.027263E-03	1.744419E-05
4.461136E+03	2.060325E-03	1.761419E-05
4.471072E+03	2.097816E-03	1.781811E-05
4.481008E+03	2.139283E-03	1.805139E-05
4.490944E+03	2.184054E-03	1.830771E-05
4.500879E+03	2.231332E-03	1.857990E-05
4.510815E+03	2.280158E-03	1.885961E-05
4.520751E+03	2.329420E-03	1.913743E-05
4.530686E+03	2.377891E-03	1.940329E-05
4.540622E+03	2.424249E-03	1.964659E-05
4.550558E+03	2.467276E-03	1.985789E-05
4.560494E+03	2.505775E-03	2.002818E-05
4.570429E+03	2.538623E-03	2.014931E-05
4.580365E+03	2.564927E-03	2.021517E-05
4.590301E+03	2.584010E-03	2.022157E-05
4.600236E+03	2.595490E-03	2.016675E-05
4.610172E+03	2.599147E-03	2.005029E-05
4.620108E+03	2.595051E-03	1.987404E-05
4.630044E+03	2.583474E-03	1.964135E-05
4.639979E+03	2.564808E-03	1.935646E-05
4.649915E+03	2.539733E-03	1.902564E-05
4.659851E+03	2.508896E-03	1.865479E-05
4.669786E+03	2.473088E-03	1.825070E-05
4.679722E+03	2.433134E-03	1.782026E-05
4.689658E+03	2.390009E-03	1.737126E-05
4.699594E+03	2.344738E-03	1.691161E-05
4.709529E+03	2.298244E-03	1.644831E-05
4.719465E+03	2.251609E-03	1.598921E-05
4.729401E+03	2.205877E-03	1.554174E-05
4.739336E+03	2.162097E-03	1.511305E-05
4.749272E+03	2.121311E-03	1.471007E-05
4.759208E+03	2.084548E-03	1.433937E-05
4.769144E+03	2.052801E-03	1.400707E-05
4.779079E+03	2.027008E-03	1.371868E-05
4.789015E+03	2.008027E-03	1.347898E-05
4.798951E+03	1.996668E-03	1.329224E-05
4.808887E+03	1.993562E-03	1.316137E-05
4.818822E+03	1.999245E-03	1.308852E-05
4.828758E+03	2.014084E-03	1.307463E-05
4.838694E+03	2.038263E-03	1.311939E-05
4.848629E+03	2.071648E-03	1.322041E-05
4.858565E+03	2.113761E-03	1.337319E-05
4.868501E+03	2.163861E-03	1.357167E-05
4.878437E+03	2.220793E-03	1.380738E-05
4.888372E+03	2.282949E-03	1.406933E-05
4.898308E+03	2.348387E-03	1.434485E-05
4.908244E+03	2.414570E-03	1.461810E-05
4.918179E+03	2.478783E-03	1.487270E-05
4.928115E+03	2.538041E-03	1.509129E-05
4.938051E+03	2.589489E-03	1.525789E-05
4.947987E+03	2.630653E-03	1.535938E-05
4.957922E+03	2.659821E-03	1.538756E-05
4.967858E+03	2.676185E-03	1.533976E-05
4.977794E+03	2.680071E-03	1.521992E-05
4.987729E+03	2.672994E-03	1.503860E-05
4.997665E+03	2.657274E-03	1.481047E-05
5.007601E+03	2.635959E-03	1.455376E-05
5.017537E+03	2.612137E-03	1.428625E-05
5.027472E+03	2.588806E-03	1.402460E-05
5.037408E+03	2.568342E-03	1.378149E-05
5.047344E+03	2.552636E-03	1.356655E-05
5.057279E+03	2.542885E-03	1.338539E-05
5.067215E+03	2.539563E-03	1.323958E-05
5.077151E+03	2.542833E-03	1.312903E-05
5.087087E+03	2.552319E-03	1.305089E-05
5.097022E+03	2.567554E-03	1.300190E-05
5.106958E+03	2.587808E-03	1.297763E-05
5.116894E+03	2.612383E-03	1.297394E-05
5.126829E+03	2.640478E-03	1.298633E-05
5.136765E+03	2.671551E-03	1.301176E-05
5.146701E+03	2.705067E-03	1.304732E-05
5.156637E+03	2.740654E-03	1.309097E-05
5.166572E+03	2.778072E-03	1.314142E-05
5.176508E+03	2.817036E-03	1.319719E-05
5.186444E+03	2.857363E-03	1.325734E-05
5.196379E+03	2.898706E-03	1.332024E-05
5.206315E+03	2.940843E-03	1.338486E-05
5.216251E+03	2.983338E-03	1.344930E-05
5.226187E+03	3.025748E-03	1.351167E-05
5.236122E+03	3.067421E-03	1.356926E-05
5.246058E+03	3.107631E-03	1.361914E-05
5.255994E+03	3.145518E-03	1.365792E-05
5.265929E+03	3.180102E-03	1.368182E-05
5.275865E+03	3.210376E-03	1.368710E-05
5.285801E+03	3.235242E-03	1.366977E-05
5.295737E+03	3.253750E-03	1.362661E-05
5.305672E+03	3.265148E-03	1.355534E-05
5.315608E+03	3.269016E-03	1.345512E-05
5.325544E+03	3.265368E-03	1.332689E-05
5.335479E+03	3.254678E-03	1.317342E-05
5.345415E+03	3.237624E-03	1.299819E-05
5.355351E+03	3.215398E-03	1.280661E-05
5.365287E+03	3.189187E-03	1.260385E-05
5.375222E+03	3.160470E-03	1.239609E-05
5.385158E+03	3.130589E-03	1.218867E-05
5.395094E+03	3.101167E-03	1.198781E-05
5.405029E+03	3.073897E-03	1.179977E-05
5.414965E+03	3.050912E-03	1.163233E-05
5.424901E+03	3.035256E-03	1.149652E-05
5.434837E+03	3.031136E-03	1.140749E-05
5.444772E+03	3.044796E-03	1.138763E-05
5.454708E+03	3.085282E-03	1.146926E-05
5.464644E+03	3.158330E-03	1.167173E-05
5.474579E+03	3.252424E-03	1.195064E-05
5.484515E+03	3.354509E-03	1.225704E-05
5.494451E+03	3.452833E-03	1.254783E-05
5.504387E+03	3.537064E-03	1.278595E-05
5.514322E+03	3.598429E-03	1.294069E-05
5.524258E+03	3.630258E-03	1.298946E-05
5.534194E+03	3.628346E-03	1.291882E-05
5.544129E+03	3.591234E-03	1.272525E-05
5.554065E+03	3.520106E-03	1.241459E-05
5.564001E+03	3.418491E-03	1.200071E-05
5.573937E+03	3.291802E-03	1.150380E-05
5.583872E+03	3.146946E-03	1.094883E-05
5.593808E+03	2.991555E-03	1.036286E-05
5.603744E+03	2.833249E-03	9.772416E-06
5.613679E+03	2.678912E-03	9.201056E-06
5.623615E+03	2.534487E-03	8.668744E-06
5.633551E+03	2.404563E-03	8.190524E-06
5.643487E+03	2.292563E-03	7.777250E-06
5.653422E+03	2.200853E-03	7.436064E-06
5.663358E+03	2.131012E-03	7.171347E-06
5.673294E+03	2.084086E-03	6.985658E-06
5.683230E+03	2.060675E-03	6.880024E-06
5.693165E+03	2.061133E-03	6.854657E-06
5.703101E+03	2.085525E-03	6.908817E-06
5.713037E+03	2.133472E-03	7.040314E-06
5.722972E+03	2.204192E-03	7.245668E-06
5.732908E+03	2.296636E-03	7.520590E-06
5.742844E+03	2.409320E-03	7.859432E-06
5.752780E+03	2.540269E-03	8.255048E-06
5.762715E+03	2.686924E-03	8.698508E-06
5.772651E+03	2.846232E-03	9.179437E-06
5.782587E+03	3.014605E-03	9.685899E-06
5.792522E+03	3.187889E-03	1.020435E-05
5.802458E+03	3.361836E-03	1.072114E-05
5.812394E+03	3.532132E-03	1.122265E-05
5.822330E+03	3.694378E-03	1.169520E-05
5.832265E+03	3.844594E-03	1.212665E-05
5.842201E+03	3.979221E-03	1.250637E-05
5.852137E+03	4.095121E-03	1.282523E-05
5.862072E+03	4.189857E-03	1.307641E-05
5.872008E+03	4.261621E-03	1.325514E-05
5.881944E+03	4.309566E-03	1.335972E-05
5.891880E+03	4.333118E-03	1.338927E-05
5.901815E+03	4.332642E-03	1.334583E-05
5.911751E+03	4.309170E-03	1.323342E-05
5.921687E+03	4.264226E-03	1.305749E-05
5.931622E+03	4.200002E-03	1.282542E-05
5.941558E+03	4.119260E-03	1.254619E-05
5.951494E+03	4.025232E-03	1.223009E-05
5.961430E+03	3.921442E-03	1.188813E-05
5.971365E+03	3.811501E-03	1.153143E-05
5.981301E+03	3.699011E-03	1.117097E-05
5.991237E+03	3.587210E-03	1.081652E-05
6.001172E+03	3.479303E-03	1.047765E-05
6.011108E+03	3.378019E-03	1.016248E-05
6.021044E+03	3.285774E-03	9.878127E-06
6.030980E+03	3.204833E-03	9.631293E-06
6.040915E+03	3.136953E-03	9.427168E-06
6.050851E+03	3.083791E-03	9.270721E-06
6.060787E+03	3.046517E-03	9.165527E-06
6.070722E+03	3.025965E-03	9.114276E-06
6.080658E+03	3.022800E-03	9.119262E-06
6.090594E+03	3.037459E-03	9.182242E-06
6.100530E+03	3.070020E-03	9.304040E-06
6.110465E+03	3.120502E-03	9.485452E-06
6.120401E+03	3.188639E-03	9.726584E-06
6.130337E+03	3.273869E-03	1.002679E-05
6.140272E+03	3.375712E-03	1.038585E-05
6.150208E+03	3.493641E-03	1.080351E-05
6.160144E+03	3.625461E-03	1.127454E-05
6.170080E+03	3.765439E-03	1.178261E-05
6.180015E+03	3.907453E-03	1.230987E-05
6.189951E+03	4.045531E-03	1.283848E-05
6.199887E+03	4.174041E-03	1.335105E-05
6.209822E+03	4.288241E-03	1.383218E-05
6.219758E+03	4.384456E-03	1.426924E-05
6.229694E+03	4.460312E-03	1.465322E-05
6.239630E+03	4.514822E-03	1.497918E-05
6.249565E+03	4.548315E-03	1.524620E-05
6.259501E+03	4.562514E-03	1.545792E-05
6.269437E+03	4.559671E-03	1.561981E-05
6.279372E+03	4.542780E-03	1.574006E-05
6.289308E+03	4.514929E-03	1.582753E-05
6.299244E+03	4.479043E-03	1.589091E-05
6.309180E+03	4.437653E-03	1.593785E-05
6.319115E+03	4.392801E-03	1.597467E-05
6.329051E+03	4.346080E-03	1.600633E-05
6.338987E+03	4.298340E-03	1.603535E-05
6.348922E+03	4.250148E-03	1.606333E-05
6.358858E+03	4.201625E-03	1.609027E-05
6.368794E+03	4.152316E-03	1.611397E-05
6.378730E+03	4.101858E-03	1.613253E-05
6.388665E+03	4.049782E-03	1.614354E-05
6.398601E+03	3.995691E-03	1.614479E-05
6.408537E+03	3.939728E-03	1.613622E-05
6.418472E+03	3.882193E-03	1.611842E-05
6.428408E+03	3.823626E-03	1.609309E-05
6.438344E+03	3.764878E-03	1.606338E-05
6.448280E+03	3.707035E-03	1.603366E-05
6.458215E+03	3.651209E-03	1.600871E-05
6.468151E+03	3.598497E-03	1.599349E-05
6.478087E+03	3.549793E-03	1.599236E-05
6.488022E+03	3.505899E-03	1.600949E-05
6.497958E+03	3.467293E-03	1.604778E-05
6.507894E+03	3.434154E-03	1.610888E-05
6.517830E+03	3.406358E-03	1.619306E-05
6.527765E+03	3.383554E-03	1.629950E-05
6.537701E+03	3.364957E-03	1.642518E-05
6.547637E+03	3.349794E-03	1.656698E-05
6.557573E+03	3.336959E-03	1.671990E-05
6.567508E+03	3.325320E-03	1.687855E-05
6.577444E+03	3.313804E-03	1.703757E-05
6.587380E+03	3.301375E-03	1.719148E-05
6.597315E+03	3.287166E-03	1.733545E-05
6.607251E+03	3.270663E-03	1.746629E-05
6.617187E+03	3.251651E-03	1.758231E-05
6.627123E+03	3.230063E-03	1.768255E-05
6.637058E+03	3.205724E-03	1.776545E-05
6.646994E+03	3.178595E-03	1.783015E-05
6.656930E+03	3.148738E-03	1.787637E-05
6.666865E+03	3.116017E-03	1.790269E-05
6.676801E+03	3.080354E-03	1.790802E-05
6.686737E+03	3.041731E-03	1.789157E-05
6.696673E+03	3.000279E-03	1.785345E-05
6.706608E+03	2.956089E-03	1.779358E-05
6.716544E+03	2.909619E-03	1.771411E-05
6.726480E+03	2.861328E-03	1.761734E-05
6.736415E+03	2.811932E-03	1.750730E-05
6.746351E+03	2.762180E-03	1.738844E-05
6.756287E+03	2.713013E-03	1.726662E-05
6.766223E+03	2.665545E-03	1.714910E-05
6.776158E+03	2.620962E-03	1.704388E-05
6.786094E+03	2.580503E-03	1.695970E-05
6.796030E+03	2.545513E-03	1.690631E-05
6.805965E+03	2.517126E-03	1.689242E-05
6.815901E+03	2.496377E-03	1.692641E-05
6.825837E+03	2.484046E-03	1.701518E-05
6.835773E+03	2.480625E-03	1.716387E-05
6.845708E+03	2.486452E-03	1.737668E-05
6.855644E+03	2.501586E-03	1.765592E-05
6.865580E+03	2.525868E-03	1.800239E-05
6.875515E+03	2.558876E-03	1.841492E-05
6.885451E+03	2.600095E-03	1.889155E-05
6.895387E+03	2.648816E-03	1.942877E-05
6.905323E+03	2.704157E-03	2.002160E-05
6.915258E+03	2.765239E-03	2.066479E-05
6.925194E+03	2.831065E-03	2.135198E-05
6.935130E+03	2.900607E-03	2.207631E-05
6.945065E+03	2.972774E-03	2.283013E-05
6.955001E+03	3.046622E-03	2.360663E-05
6.964937E+03	3.121171E-03	2.439845E-05
6.974873E+03	3.195719E-03	2.520018E-05
6.984808E+03	3.269387E-03	2.600477E-05
6.994744E+03	3.341743E-03	2.680855E-05
7.004680E+03	3.412389E-03	2.760797E-05
7.014615E+03	3.480988E-03	2.839991E-05
7.024551E+03	3.547480E-03	2.918341E-05
7.034487E+03	3.611800E-03	2.995746E-05
7.044423E+03	3.674089E-03	3.072276E-05
7.054358E+03	3.734698E-03	3.148181E-05
7.064294E+03	3.793946E-03	3.223695E-05
7.074230E+03	3.852300E-03	3.299186E-05
7.084165E+03	3.910266E-03	3.375069E-05
7.094101E+03	3.968336E-03	3.451759E-05
7.104037E+03	4.026915E-03	3.529611E-05
7.113973E+03	4.086273E-03	3.608869E-05
7.123908E+03	4.146475E-03	3.689600E-05
7.133844E+03	4.207317E-03	3.771637E-05
7.143780E+03	4.268280E-03	3.854518E-05
7.153715E+03	4.328428E-03	3.937391E-05
7.163651E+03	4.386574E-03	4.019146E-05
7.173587E+03	4.441393E-03	4.098518E-05
7.183523E+03	4.491013E-03	4.173698E-05
7.193458E+03	4.533664E-03	4.242923E-05
7.203394E+03	4.567647E-03	4.304452E-05
7.213330E+03	4.591551E-03	4.356774E-05
7.223265E+03	4.604104E-03	4.398476E-05
7.233201E+03	4.604541E-03	4.428599E-05
7.243137E+03	4.592508E-03	4.446567E-05
7.253073E+03	4.568040E-03	4.452170E-05
7.263008E+03	4.531613E-03	4.445638E-05
7.272944E+03	4.483632E-03	4.427144E-05
7.282880E+03	4.425248E-03	4.397611E-05
7.292815E+03	4.357428E-03	4.357812E-05
7.302751E+03	4.281259E-03	4.308665E-05
7.312687E+03	4.198078E-03	4.251369E-05
7.322623E+03	4.109125E-03	4.187060E-05
7.332558E+03	4.015822E-03	4.117092E-05
7.342494E+03	3.919430E-03	4.042689E-05
7.352430E+03	3.821338E-03	3.965241E-05
7.362365E+03	3.722709E-03	3.885936E-05
7.372301E+03	3.624661E-03	3.805943E-05
7.382237E+03	3.528244E-03	3.726388E-05
7.392173E+03	3.434238E-03	3.648135E-05
7.402108E+03	3.343387E-03	3.572029E-05
7.412044E+03	3.256351E-03	3.498843E-05
7.421980E+03	3.173781E-03	3.429356E-05
7.431916E+03	3.096085E-03	3.364095E-05
7.441851E+03	3.023864E-03	3.303813E-05
7.451787E+03	2.957494E-03	3.249023E-05
7.461723E+03	2.897304E-03	3.200201E-05
7.471658E+03	2.843753E-03	3.157969E-05
7.481594E+03	2.797079E-03	3.122716E-05
7.491530E+03	2.757530E-03	3.094844E-05
7.501466E+03	2.725248E-03	3.074643E-05
7.511401E+03	2.700486E-03	3.062530E-05
7.521337E+03	2.683278E-03	3.058677E-05
7.531273E+03	2.673603E-03	3.063194E-05
7.541208E+03	2.671539E-03	3.076303E-05
7.551144E+03	2.676887E-03	3.097904E-05
7.561080E+03	2.689540E-03	3.128002E-05
7.571016E+03	2.709266E-03	3.166450E-05
7.580951E+03	2.735754E-03	3.213003E-05
7.590887E+03	2.768613E-03	3.267314E-05
7.600823E+03	2.807365E-03	3.328922E-05
7.610758E+03	2.851439E-03	3.397244E-05
7.620694E+03	2.900117E-03	3.471506E-05
7.630630E+03	2.952756E-03	3.551011E-05
7.640566E+03	3.008394E-03	3.634658E-05
7.650501E+03	3.066156E-03	3.721432E-05
7.660437E+03	3.125039E-03	3.810140E-05
7.670373E+03	3.183915E-03	3.899415E-05
7.680308E+03	3.241806E-03	3.988051E-05
7.690244E+03	3.297465E-03	4.074486E-05
7.700180E+03	3.349845E-03	4.157381E-05
7.710116E+03	3.397877E-03	4.235347E-05
