#wls	flux	fluxerr
1.589715E+03	9.954025E-05	2.180312E-06
1.629457E+03	1.012273E-04	2.209893E-06
1.669200E+03	1.028535E-04	2.237718E-06
1.708943E+03	1.044136E-04	2.263673E-06
1.748686E+03	1.058950E-04	2.287489E-06
1.788429E+03	1.072746E-04	2.308675E-06
1.828172E+03	1.084592E-04	2.325242E-06
1.867915E+03	1.094153E-04	2.336516E-06
1.907657E+03	1.100679E-04	2.340949E-06
1.947400E+03	1.103427E-04	2.337035E-06
1.987143E+03	1.102558E-04	2.325211E-06
2.026886E+03	1.099965E-04	2.309543E-06
2.066629E+03	1.099454E-04	2.298035E-06
2.106372E+03	1.107343E-04	2.303764E-06
2.146115E+03	1.129072E-04	2.337741E-06
2.185858E+03	1.167643E-04	2.405719E-06
2.225600E+03	1.221802E-04	2.504582E-06
2.265343E+03	1.287679E-04	2.625905E-06
2.305086E+03	1.361090E-04	2.760776E-06
2.344829E+03	1.438962E-04	2.902690E-06
2.384572E+03	1.519843E-04	3.048521E-06
2.424315E+03	1.602894E-04	3.196426E-06
2.464058E+03	1.688145E-04	3.346317E-06
2.503800E+03	1.776230E-04	3.499292E-06
2.543543E+03	1.867683E-04	3.656216E-06
2.583286E+03	1.962773E-04	3.817406E-06
2.623029E+03	2.062303E-04	3.984189E-06
2.662772E+03	2.167062E-04	4.157814E-06
2.702515E+03	2.276811E-04	4.337524E-06
2.742258E+03	2.392140E-04	4.524129E-06
2.782000E+03	2.513567E-04	4.718265E-06
2.821743E+03	2.640776E-04	4.918966E-06
2.861486E+03	2.773601E-04	5.125558E-06
2.901229E+03	2.912065E-04	5.337706E-06
2.940972E+03	3.055581E-04	5.553957E-06
2.980715E+03	3.202834E-04	5.771570E-06
2.990650E+03	3.240104E-04	5.825921E-06
3.000586E+03	3.277425E-04	5.880004E-06
3.010522E+03	3.315210E-04	5.934559E-06
3.020458E+03	3.353023E-04	5.988796E-06
3.030393E+03	3.390922E-04	6.042817E-06
3.040329E+03	3.428969E-04	6.096730E-06
3.050265E+03	3.467558E-04	6.151228E-06
3.060201E+03	3.506185E-04	6.205411E-06
3.070136E+03	3.544790E-04	6.259169E-06
3.080072E+03	3.583313E-04	6.312396E-06
3.090008E+03	3.622163E-04	6.365809E-06
3.099943E+03	3.660348E-04	6.417663E-06
3.109879E+03	3.699223E-04	6.470331E-06
3.119815E+03	3.737312E-04	6.521230E-06
3.129751E+03	3.775028E-04	6.571084E-06
3.139686E+03	3.812793E-04	6.620628E-06
3.149622E+03	3.850069E-04	6.668930E-06
3.159558E+03	3.887284E-04	6.716730E-06
3.169493E+03	3.923401E-04	6.762242E-06
3.179429E+03	3.959341E-04	6.807057E-06
3.189365E+03	3.994552E-04	6.850234E-06
3.199301E+03	4.029474E-04	6.892532E-06
3.209236E+03	4.063050E-04	6.932144E-06
3.219172E+03	4.096221E-04	6.970694E-06
3.229108E+03	4.128431E-04	7.007236E-06
3.239043E+03	4.160130E-04	7.042545E-06
3.248979E+03	4.190247E-04	7.074818E-06
3.258915E+03	4.219748E-04	7.105701E-06
3.268851E+03	4.248589E-04	7.135125E-06
3.278786E+03	4.275695E-04	7.161297E-06
3.288722E+03	4.302051E-04	7.185885E-06
3.298658E+03	4.327102E-04	7.207974E-06
3.308593E+03	4.350815E-04	7.227521E-06
3.318529E+03	4.373158E-04	7.244495E-06
3.328465E+03	4.394627E-04	7.259733E-06
3.338401E+03	4.414689E-04	7.272363E-06
3.348336E+03	4.433850E-04	7.283239E-06
3.358272E+03	4.451070E-04	7.290667E-06
3.368208E+03	4.467396E-04	7.296382E-06
3.378143E+03	4.482320E-04	7.299572E-06
3.388079E+03	4.495867E-04	7.300294E-06
3.398015E+03	4.508587E-04	7.299458E-06
3.407951E+03	4.520002E-04	7.296304E-06
3.417886E+03	4.530161E-04	7.290927E-06
3.427822E+03	4.539122E-04	7.283438E-06
3.437758E+03	4.547461E-04	7.274779E-06
3.447693E+03	4.554732E-04	7.264242E-06
3.457629E+03	4.561004E-04	7.251956E-06
3.467565E+03	4.566353E-04	7.238053E-06
3.477501E+03	4.571359E-04	7.223463E-06
3.487436E+03	4.575580E-04	7.207496E-06
3.497372E+03	4.579079E-04	7.190263E-06
3.507308E+03	4.582418E-04	7.172652E-06
3.517243E+03	4.584636E-04	7.153168E-06
3.527179E+03	4.586779E-04	7.133453E-06
3.537115E+03	4.588876E-04	7.113555E-06
3.547051E+03	4.589960E-04	7.091978E-06
3.556986E+03	4.591066E-04	7.070334E-06
3.566922E+03	4.591765E-04	7.047962E-06
3.576858E+03	4.592173E-04	7.025047E-06
3.586793E+03	4.592468E-04	7.001866E-06
3.596729E+03	4.593364E-04	6.979502E-06
3.606665E+03	4.594630E-04	6.957600E-06
3.616601E+03	4.596553E-04	6.936586E-06
3.626536E+03	4.599443E-04	6.916915E-06
3.636472E+03	4.604113E-04	6.899792E-06
3.646408E+03	4.610441E-04	6.885004E-06
3.656343E+03	4.618813E-04	6.873100E-06
3.666279E+03	4.629641E-04	6.864658E-06
3.676215E+03	4.643363E-04	6.860286E-06
3.686151E+03	4.660913E-04	6.861312E-06
3.696086E+03	4.682297E-04	6.867680E-06
3.706022E+03	4.708007E-04	6.880050E-06
3.715958E+03	4.738545E-04	6.899080E-06
3.725893E+03	4.774891E-04	6.926110E-06
3.735829E+03	4.817064E-04	6.961073E-06
3.745765E+03	4.865543E-04	7.004561E-06
3.755701E+03	4.920781E-04	7.057117E-06
3.765636E+03	4.983199E-04	7.119228E-06
3.775572E+03	5.053667E-04	7.192013E-06
3.785508E+03	5.131523E-04	7.274392E-06
3.795443E+03	5.218027E-04	7.368019E-06
3.805379E+03	5.312873E-04	7.472316E-06
3.815315E+03	5.416177E-04	7.587299E-06
3.825251E+03	5.528495E-04	7.713596E-06
3.835186E+03	5.648708E-04	7.849497E-06
3.845122E+03	5.777727E-04	7.996119E-06
3.855058E+03	5.914756E-04	8.152211E-06
3.864993E+03	6.059432E-04	8.317131E-06
3.874929E+03	6.211290E-04	8.490103E-06
3.884865E+03	6.369758E-04	8.670219E-06
3.894801E+03	6.534809E-04	8.857321E-06
3.904736E+03	6.704491E-04	9.048650E-06
3.914672E+03	6.879249E-04	9.244716E-06
3.924608E+03	7.057611E-04	9.443455E-06
3.934544E+03	7.238708E-04	9.643633E-06
3.944479E+03	7.421634E-04	9.843995E-06
3.954415E+03	7.605504E-04	1.004333E-05
3.964351E+03	7.789461E-04	1.024048E-05
3.974286E+03	7.973412E-04	1.043532E-05
3.984222E+03	8.155197E-04	1.062503E-05
3.994158E+03	8.335601E-04	1.081065E-05
4.004094E+03	8.512599E-04	1.098958E-05
4.014029E+03	8.687258E-04	1.116325E-05
4.023965E+03	8.858493E-04	1.133031E-05
4.033901E+03	9.025321E-04	1.148955E-05
4.043836E+03	9.189228E-04	1.164293E-05
4.053772E+03	9.349478E-04	1.178958E-05
4.063708E+03	9.506204E-04	1.192970E-05
4.073644E+03	9.659649E-04	1.206368E-05
4.083579E+03	9.810145E-04	1.219197E-05
4.093515E+03	9.958090E-04	1.231511E-05
4.103451E+03	1.010392E-03	1.243368E-05
4.113386E+03	1.024811E-03	1.254831E-05
4.123322E+03	1.039117E-03	1.265962E-05
4.133258E+03	1.053359E-03	1.276823E-05
4.143194E+03	1.067583E-03	1.287471E-05
4.153129E+03	1.081834E-03	1.297960E-05
4.163065E+03	1.096152E-03	1.308335E-05
4.173001E+03	1.110568E-03	1.318634E-05
4.182936E+03	1.125110E-03	1.328886E-05
4.192872E+03	1.139796E-03	1.339109E-05
4.202808E+03	1.154637E-03	1.349314E-05
4.212744E+03	1.169634E-03	1.359498E-05
4.222679E+03	1.184782E-03	1.369652E-05
4.232615E+03	1.199968E-03	1.379645E-05
4.242551E+03	1.215368E-03	1.389674E-05
4.252486E+03	1.230761E-03	1.399486E-05
4.262422E+03	1.246317E-03	1.409271E-05
4.272358E+03	1.261806E-03	1.418769E-05
4.282294E+03	1.277304E-03	1.428064E-05
4.292229E+03	1.292889E-03	1.437246E-05
4.302165E+03	1.308348E-03	1.446073E-05
4.312101E+03	1.323677E-03	1.454546E-05
4.322036E+03	1.339102E-03	1.462915E-05
4.331972E+03	1.354555E-03	1.471102E-05
4.341908E+03	1.369983E-03	1.479049E-05
4.351844E+03	1.385658E-03	1.487051E-05
4.361779E+03	1.401418E-03	1.494928E-05
4.371715E+03	1.417388E-03	1.502813E-05
4.381651E+03	1.433553E-03	1.510683E-05
4.391586E+03	1.449763E-03	1.518382E-05
4.401522E+03	1.466199E-03	1.526094E-05
4.411458E+03	1.482598E-03	1.533545E-05
4.421394E+03	1.499032E-03	1.540808E-05
4.431329E+03	1.515459E-03	1.547841E-05
4.441265E+03	1.531832E-03	1.554597E-05
4.451201E+03	1.547979E-03	1.560902E-05
4.461136E+03	1.563945E-03	1.566808E-05
4.471072E+03	1.579767E-03	1.572353E-05
4.481008E+03	1.594995E-03	1.577096E-05
4.490944E+03	1.609875E-03	1.581291E-05
4.500879E+03	1.624049E-03	1.584594E-05
4.510815E+03	1.637510E-03	1.587013E-05
4.520751E+03	1.650126E-03	1.588435E-05
4.530686E+03	1.661768E-03	1.588753E-05
4.540622E+03	1.672191E-03	1.587754E-05
4.550558E+03	1.681403E-03	1.585470E-05
4.560494E+03	1.689308E-03	1.581835E-05
4.570429E+03	1.695830E-03	1.576805E-05
4.580365E+03	1.700797E-03	1.570248E-05
4.590301E+03	1.704307E-03	1.562286E-05
4.600236E+03	1.706248E-03	1.552844E-05
4.610172E+03	1.706901E-03	1.542210E-05
4.620108E+03	1.706092E-03	1.530253E-05
4.630044E+03	1.703922E-03	1.517092E-05
4.639979E+03	1.700759E-03	1.503081E-05
4.649915E+03	1.696515E-03	1.488162E-05
4.659851E+03	1.691484E-03	1.472612E-05
4.669786E+03	1.685736E-03	1.456511E-05
4.679722E+03	1.679596E-03	1.440149E-05
4.689658E+03	1.673275E-03	1.423716E-05
4.699594E+03	1.666989E-03	1.407399E-05
4.709529E+03	1.660839E-03	1.391281E-05
4.719465E+03	1.655151E-03	1.375634E-05
4.729401E+03	1.650017E-03	1.360523E-05
4.739336E+03	1.645742E-03	1.346189E-05
4.749272E+03	1.642503E-03	1.332759E-05
4.759208E+03	1.640458E-03	1.320340E-05
4.769144E+03	1.639629E-03	1.308930E-05
4.779079E+03	1.640133E-03	1.298595E-05
4.789015E+03	1.642278E-03	1.289555E-05
4.798951E+03	1.645898E-03	1.281649E-05
4.808887E+03	1.651017E-03	1.274867E-05
4.818822E+03	1.657853E-03	1.269350E-05
4.828758E+03	1.666141E-03	1.264862E-05
4.838694E+03	1.675802E-03	1.261320E-05
4.848629E+03	1.686841E-03	1.258701E-05
4.858565E+03	1.699114E-03	1.256875E-05
4.868501E+03	1.712334E-03	1.255609E-05
4.878437E+03	1.726416E-03	1.254826E-05
4.888372E+03	1.741143E-03	1.254355E-05
4.898308E+03	1.756167E-03	1.253937E-05
4.908244E+03	1.771371E-03	1.253487E-05
4.918179E+03	1.786524E-03	1.252844E-05
4.928115E+03	1.801294E-03	1.251779E-05
4.938051E+03	1.815609E-03	1.250254E-05
4.947987E+03	1.829192E-03	1.248092E-05
4.957922E+03	1.842043E-03	1.245311E-05
4.967858E+03	1.853970E-03	1.241798E-05
4.977794E+03	1.865191E-03	1.237720E-05
4.987729E+03	1.875358E-03	1.232864E-05
4.997665E+03	1.884904E-03	1.227537E-05
5.007601E+03	1.893685E-03	1.221661E-05
5.017537E+03	1.901832E-03	1.215336E-05
5.027472E+03	1.909749E-03	1.208835E-05
5.037408E+03	1.917229E-03	1.202037E-05
5.047344E+03	1.924818E-03	1.195292E-05
5.057279E+03	1.932433E-03	1.188551E-05
5.067215E+03	1.940353E-03	1.181990E-05
5.077151E+03	1.948585E-03	1.175611E-05
5.087087E+03	1.957367E-03	1.169557E-05
5.097022E+03	1.966655E-03	1.163796E-05
5.106958E+03	1.976759E-03	1.158508E-05
5.116894E+03	1.987320E-03	1.153475E-05
5.126829E+03	1.998713E-03	1.148913E-05
5.136765E+03	2.010650E-03	1.144648E-05
5.146701E+03	2.023067E-03	1.140643E-05
5.156637E+03	2.036006E-03	1.136921E-05
5.166572E+03	2.049360E-03	1.133421E-05
5.176508E+03	2.063004E-03	1.130074E-05
5.186444E+03	2.076663E-03	1.126736E-05
5.196379E+03	2.090315E-03	1.123402E-05
5.206315E+03	2.103661E-03	1.119922E-05
5.216251E+03	2.116669E-03	1.116291E-05
5.226187E+03	2.129034E-03	1.112363E-05
5.236122E+03	2.140862E-03	1.108212E-05
5.246058E+03	2.151587E-03	1.103564E-05
5.255994E+03	2.161473E-03	1.098576E-05
5.265929E+03	2.170117E-03	1.093067E-05
5.275865E+03	2.177550E-03	1.087075E-05
5.285801E+03	2.183551E-03	1.080515E-05
5.295737E+03	2.188204E-03	1.073457E-05
5.305672E+03	2.191488E-03	1.065912E-05
5.315608E+03	2.193275E-03	1.057843E-05
5.325544E+03	2.193748E-03	1.049363E-05
5.335479E+03	2.192981E-03	1.040526E-05
5.345415E+03	2.190941E-03	1.031338E-05
5.355351E+03	2.187893E-03	1.021940E-05
5.365287E+03	2.183844E-03	1.012349E-05
5.375222E+03	2.179223E-03	1.002765E-05
5.385158E+03	2.173911E-03	9.931324E-06
5.395094E+03	2.168055E-03	9.835142E-06
5.405029E+03	2.161928E-03	9.740288E-06
5.414965E+03	2.155644E-03	9.647197E-06
5.424901E+03	2.149295E-03	9.556196E-06
5.434837E+03	2.142812E-03	9.466887E-06
5.444772E+03	2.136364E-03	9.379921E-06
5.454708E+03	2.129796E-03	9.294517E-06
5.464644E+03	2.123268E-03	9.211291E-06
5.474579E+03	2.116318E-03	9.128140E-06
5.484515E+03	2.108692E-03	9.043915E-06
5.494451E+03	2.100263E-03	8.958023E-06
5.504387E+03	2.090792E-03	8.869416E-06
5.514322E+03	2.080083E-03	8.777245E-06
5.524258E+03	2.067870E-03	8.680374E-06
5.534194E+03	2.054337E-03	8.579583E-06
5.544129E+03	2.039097E-03	8.473252E-06
5.554065E+03	2.022610E-03	8.363300E-06
5.564001E+03	2.004775E-03	8.249302E-06
5.573937E+03	1.985946E-03	8.132696E-06
5.583872E+03	1.966296E-03	8.014166E-06
5.593808E+03	1.946419E-03	7.896089E-06
5.603744E+03	1.926467E-03	7.779015E-06
5.613679E+03	1.906981E-03	7.665054E-06
5.623615E+03	1.888276E-03	7.555379E-06
5.633551E+03	1.870900E-03	7.452069E-06
5.643487E+03	1.855265E-03	7.356630E-06
5.653422E+03	1.841750E-03	7.270415E-06
5.663358E+03	1.830580E-03	7.194154E-06
5.673294E+03	1.822161E-03	7.129271E-06
5.683230E+03	1.816725E-03	7.076496E-06
5.693165E+03	1.814445E-03	7.036315E-06
5.703101E+03	1.815322E-03	7.008541E-06
5.713037E+03	1.819514E-03	6.993605E-06
5.722972E+03	1.827004E-03	6.991252E-06
5.732908E+03	1.837713E-03	7.001000E-06
5.742844E+03	1.851384E-03	7.021707E-06
5.752780E+03	1.868044E-03	7.053320E-06
5.762715E+03	1.887088E-03	7.093414E-06
5.772651E+03	1.908553E-03	7.142013E-06
5.782587E+03	1.931966E-03	7.197245E-06
5.792522E+03	1.956807E-03	7.257099E-06
5.802458E+03	1.982761E-03	7.320365E-06
5.812394E+03	2.009371E-03	7.385334E-06
5.822330E+03	2.036038E-03	7.449819E-06
5.832265E+03	2.062539E-03	7.513043E-06
5.842201E+03	2.088151E-03	7.572445E-06
5.852137E+03	2.112557E-03	7.626981E-06
5.862072E+03	2.135346E-03	7.675295E-06
5.872008E+03	2.156022E-03	7.715760E-06
5.881944E+03	2.174416E-03	7.747952E-06
5.891880E+03	2.190431E-03	7.771724E-06
5.901815E+03	2.203647E-03	7.785788E-06
5.911751E+03	2.213995E-03	7.790127E-06
5.921687E+03	2.221777E-03	7.786031E-06
5.931622E+03	2.226833E-03	7.773158E-06
5.941558E+03	2.229644E-03	7.753409E-06
5.951494E+03	2.230221E-03	7.727028E-06
5.961430E+03	2.229063E-03	7.695947E-06
5.971365E+03	2.226458E-03	7.661343E-06
5.981301E+03	2.223161E-03	7.625979E-06
5.991237E+03	2.219408E-03	7.590824E-06
6.001172E+03	2.215880E-03	7.558343E-06
6.011108E+03	2.213128E-03	7.530550E-06
6.021044E+03	2.211704E-03	7.509439E-06
6.030980E+03	2.212145E-03	7.496962E-06
6.040915E+03	2.214967E-03	7.494991E-06
6.050851E+03	2.220515E-03	7.504830E-06
6.060787E+03	2.229372E-03	7.528602E-06
6.070722E+03	2.242071E-03	7.568293E-06
6.080658E+03	2.258675E-03	7.624319E-06
6.090594E+03	2.279604E-03	7.698353E-06
6.100530E+03	2.304928E-03	7.790922E-06
6.110465E+03	2.335075E-03	7.903815E-06
6.120401E+03	2.369818E-03	8.036665E-06
6.130337E+03	2.409428E-03	8.190845E-06
6.140272E+03	2.453488E-03	8.365449E-06
6.150208E+03	2.501900E-03	8.560704E-06
6.160144E+03	2.554258E-03	8.775834E-06
6.170080E+03	2.609984E-03	9.009502E-06
6.180015E+03	2.668352E-03	9.259870E-06
6.189951E+03	2.728353E-03	9.524097E-06
6.199887E+03	2.789402E-03	9.800786E-06
6.209822E+03	2.850169E-03	1.008586E-05
6.219758E+03	2.909994E-03	1.037737E-05
6.229694E+03	2.967489E-03	1.067055E-05
6.239630E+03	3.021841E-03	1.096247E-05
6.249565E+03	3.072113E-03	1.124961E-05
6.259501E+03	3.117457E-03	1.152858E-05
6.269437E+03	3.157145E-03	1.179620E-05
6.279372E+03	3.190380E-03	1.204889E-05
6.289308E+03	3.217127E-03	1.228573E-05
6.299244E+03	3.236905E-03	1.250398E-05
6.309180E+03	3.249391E-03	1.270138E-05
6.319115E+03	3.255029E-03	1.287852E-05
6.329051E+03	3.253582E-03	1.303331E-05
6.338987E+03	3.245557E-03	1.316654E-05
6.348922E+03	3.231354E-03	1.327860E-05
6.358858E+03	3.211456E-03	1.337026E-05
6.368794E+03	3.186404E-03	1.344260E-05
6.378730E+03	3.156776E-03	1.349693E-05
6.388665E+03	3.123168E-03	1.353474E-05
6.398601E+03	3.086176E-03	1.355766E-05
6.408537E+03	3.046383E-03	1.356736E-05
6.418472E+03	3.004346E-03	1.356554E-05
6.428408E+03	2.960401E-03	1.355303E-05
6.438344E+03	2.915411E-03	1.353317E-05
6.448280E+03	2.869443E-03	1.350579E-05
6.458215E+03	2.823257E-03	1.347406E-05
6.468151E+03	2.776837E-03	1.343761E-05
6.478087E+03	2.730839E-03	1.339935E-05
6.488022E+03	2.685167E-03	1.335865E-05
6.497958E+03	2.640210E-03	1.331734E-05
6.507894E+03	2.596140E-03	1.327621E-05
6.517830E+03	2.553255E-03	1.323683E-05
6.527765E+03	2.511330E-03	1.319806E-05
6.537701E+03	2.470605E-03	1.316123E-05
6.547637E+03	2.431131E-03	1.312671E-05
6.557573E+03	2.392935E-03	1.309477E-05
6.567508E+03	2.356029E-03	1.306562E-05
6.577444E+03	2.320413E-03	1.303941E-05
6.587380E+03	2.286076E-03	1.301626E-05
6.597315E+03	2.253001E-03	1.299624E-05
6.607251E+03	2.221028E-03	1.297859E-05
6.617187E+03	2.190426E-03	1.296507E-05
6.627123E+03	2.161035E-03	1.295493E-05
6.637058E+03	2.132845E-03	1.294831E-05
6.646994E+03	2.105721E-03	1.294458E-05
6.656930E+03	2.079943E-03	1.294566E-05
6.666865E+03	2.055392E-03	1.295103E-05
6.676801E+03	2.031965E-03	1.296028E-05
6.686737E+03	2.009969E-03	1.297558E-05
6.696673E+03	1.989196E-03	1.299586E-05
6.706608E+03	1.969969E-03	1.302348E-05
6.716544E+03	1.952107E-03	1.305756E-05
6.726480E+03	1.935949E-03	1.310068E-05
6.736415E+03	1.921338E-03	1.315211E-05
6.746351E+03	1.908625E-03	1.321461E-05
6.756287E+03	1.897669E-03	1.328760E-05
6.766223E+03	1.888702E-03	1.337314E-05
6.776158E+03	1.881959E-03	1.347332E-05
6.786094E+03	1.877307E-03	1.358769E-05
6.796030E+03	1.874977E-03	1.371840E-05
6.805965E+03	1.875196E-03	1.386767E-05
6.815901E+03	1.877819E-03	1.403499E-05
6.825837E+03	1.883062E-03	1.422253E-05
6.835773E+03	1.891007E-03	1.443152E-05
6.845708E+03	1.901730E-03	1.466317E-05
6.855644E+03	1.915423E-03	1.491961E-05
6.865580E+03	1.931888E-03	1.519996E-05
6.875515E+03	1.951292E-03	1.550619E-05
6.885451E+03	1.973668E-03	1.583924E-05
6.895387E+03	1.999035E-03	1.619994E-05
6.905323E+03	2.027398E-03	1.658902E-05
6.915258E+03	2.058752E-03	1.700711E-05
6.925194E+03	2.093078E-03	1.745475E-05
6.935130E+03	2.130343E-03	1.793233E-05
6.945065E+03	2.170359E-03	1.843891E-05
6.955001E+03	2.213347E-03	1.897702E-05
6.964937E+03	2.259090E-03	1.954545E-05
6.974873E+03	2.307499E-03	2.014403E-05
6.984808E+03	2.358461E-03	2.077236E-05
6.994744E+03	2.411691E-03	2.142848E-05
7.004680E+03	2.467355E-03	2.211435E-05
7.014615E+03	2.525127E-03	2.282758E-05
7.024551E+03	2.584643E-03	2.356528E-05
7.034487E+03	2.646020E-03	2.432891E-05
7.044423E+03	2.708666E-03	2.511336E-05
7.054358E+03	2.772658E-03	2.591962E-05
7.064294E+03	2.837325E-03	2.674160E-05
7.074230E+03	2.902696E-03	2.757972E-05
7.084165E+03	2.968016E-03	2.842685E-05
7.094101E+03	3.033061E-03	2.928077E-05
7.104037E+03	3.097387E-03	3.013706E-05
7.113973E+03	3.160729E-03	3.099290E-05
7.123908E+03	3.222164E-03	3.183890E-05
7.133844E+03	3.281368E-03	3.267137E-05
7.143780E+03	3.337792E-03	3.348424E-05
7.153715E+03	3.390879E-03	3.427121E-05
7.163651E+03	3.440069E-03	3.502579E-05
7.173587E+03	3.484813E-03	3.574145E-05
7.183523E+03	3.524350E-03	3.640926E-05
7.193458E+03	3.558657E-03	3.702780E-05
7.203394E+03	3.587055E-03	3.758878E-05
7.213330E+03	3.608920E-03	3.808424E-05
7.223265E+03	3.624419E-03	3.851451E-05
7.233201E+03	3.632835E-03	3.887049E-05
7.243137E+03	3.634511E-03	3.915429E-05
7.253073E+03	3.628910E-03	3.935861E-05
7.263008E+03	3.616321E-03	3.948499E-05
7.272944E+03	3.596888E-03	3.953352E-05
7.282880E+03	3.570849E-03	3.950533E-05
7.292815E+03	3.538530E-03	3.940263E-05
7.302751E+03	3.500337E-03	3.922864E-05
7.312687E+03	3.456750E-03	3.898752E-05
7.322623E+03	3.408307E-03	3.868423E-05
7.332558E+03	3.355365E-03	3.832186E-05
7.342494E+03	3.299007E-03	3.791192E-05
7.352430E+03	3.239422E-03	3.745590E-05
7.362365E+03	3.177707E-03	3.696592E-05
7.372301E+03	3.114071E-03	3.644402E-05
7.382237E+03	3.049367E-03	3.589988E-05
7.392173E+03	2.984201E-03	3.534049E-05
7.402108E+03	2.919143E-03	3.477259E-05
7.412044E+03	2.854722E-03	3.420258E-05
7.421980E+03	2.791420E-03	3.363645E-05
7.431916E+03	2.729668E-03	3.307970E-05
7.441851E+03	2.669659E-03	3.253505E-05
7.451787E+03	2.612085E-03	3.201137E-05
7.461723E+03	2.556852E-03	3.150805E-05
7.471658E+03	2.504359E-03	3.103054E-05
7.481594E+03	2.454770E-03	3.058149E-05
7.491530E+03	2.408201E-03	3.016296E-05
7.501466E+03	2.364723E-03	2.977650E-05
7.511401E+03	2.324367E-03	2.942315E-05
7.521337E+03	2.286966E-03	2.910143E-05
7.531273E+03	2.252796E-03	2.881551E-05
7.541208E+03	2.221469E-03	2.856103E-05
7.551144E+03	2.193194E-03	2.834130E-05
7.561080E+03	2.167534E-03	2.815126E-05
7.571016E+03	2.144493E-03	2.799151E-05
7.580951E+03	2.123755E-03	2.785841E-05
7.590887E+03	2.105428E-03	2.775385E-05
7.600823E+03	2.089161E-03	2.767367E-05
7.610758E+03	2.074593E-03	2.761347E-05
7.620694E+03	2.061646E-03	2.757254E-05
7.630630E+03	2.050230E-03	2.754999E-05
7.640566E+03	2.039817E-03	2.753900E-05
7.650501E+03	2.030167E-03	2.753651E-05
7.660437E+03	2.021325E-03	2.754328E-05
7.670373E+03	2.012908E-03	2.755422E-05
7.680308E+03	2.004541E-03	2.756429E-05
7.690244E+03	1.996283E-03	2.757427E-05
7.700180E+03	1.987638E-03	2.757735E-05
7.710116E+03	1.978549E-03	2.757265E-05
