#wls	flux	fluxerr
1.589715E+03	5.935071E-05	2.881084E-06
1.629457E+03	6.006871E-05	2.906889E-06
1.669200E+03	6.073815E-05	2.929895E-06
1.708943E+03	6.134540E-05	2.949458E-06
1.748686E+03	6.188307E-05	2.965240E-06
1.788429E+03	6.232728E-05	2.976123E-06
1.828172E+03	6.265707E-05	2.981144E-06
1.867915E+03	6.282257E-05	2.977990E-06
1.907657E+03	6.278339E-05	2.964830E-06
1.947400E+03	6.251131E-05	2.940444E-06
1.987143E+03	6.203090E-05	2.906109E-06
2.026886E+03	6.143115E-05	2.866097E-06
2.066629E+03	6.093618E-05	2.830890E-06
2.106372E+03	6.087111E-05	2.815468E-06
2.146115E+03	6.155244E-05	2.834134E-06
2.185858E+03	6.310273E-05	2.892021E-06
2.225600E+03	6.543010E-05	2.984352E-06
2.265343E+03	6.831678E-05	3.100689E-06
2.305086E+03	7.151312E-05	3.229329E-06
2.344829E+03	7.484660E-05	3.362248E-06
2.384572E+03	7.822270E-05	3.495065E-06
2.424315E+03	8.161957E-05	3.626713E-06
2.464058E+03	8.502360E-05	3.756508E-06
2.503800E+03	8.846702E-05	3.885793E-06
2.543543E+03	9.194455E-05	4.014237E-06
2.583286E+03	9.551350E-05	4.144227E-06
2.623029E+03	9.918450E-05	4.276072E-06
2.662772E+03	1.029994E-04	4.411401E-06
2.702515E+03	1.069645E-04	4.550278E-06
2.742258E+03	1.111006E-04	4.693366E-06
2.782000E+03	1.154466E-04	4.842051E-06
2.821743E+03	1.199823E-04	4.995208E-06
2.861486E+03	1.247647E-04	5.154908E-06
2.901229E+03	1.298122E-04	5.321565E-06
2.940972E+03	1.350976E-04	5.493705E-06
2.980715E+03	1.406806E-04	5.673369E-06
2.990650E+03	1.421271E-04	5.719580E-06
3.000586E+03	1.435921E-04	5.766226E-06
3.010522E+03	1.450758E-04	5.813307E-06
3.020458E+03	1.465551E-04	5.859889E-06
3.030393E+03	1.480828E-04	5.908078E-06
3.040329E+03	1.496390E-04	5.957067E-06
3.050265E+03	1.512227E-04	6.006809E-06
3.060201E+03	1.528332E-04	6.057262E-06
3.070136E+03	1.544696E-04	6.108389E-06
3.080072E+03	1.561313E-04	6.160150E-06
3.090008E+03	1.578179E-04	6.212521E-06
3.099943E+03	1.595022E-04	6.264426E-06
3.109879E+03	1.612366E-04	6.317915E-06
3.119815E+03	1.629943E-04	6.371926E-06
3.129751E+03	1.647750E-04	6.426438E-06
3.139686E+03	1.665786E-04	6.481437E-06
3.149622E+03	1.684048E-04	6.536900E-06
3.159558E+03	1.702533E-04	6.592811E-06
3.169493E+03	1.721241E-04	6.649159E-06
3.179429E+03	1.740458E-04	6.707038E-06
3.189365E+03	1.759612E-04	6.764232E-06
3.199301E+03	1.778988E-04	6.821828E-06
3.209236E+03	1.798586E-04	6.879822E-06
3.219172E+03	1.818407E-04	6.938207E-06
3.229108E+03	1.838452E-04	6.996978E-06
3.239043E+03	1.858723E-04	7.056131E-06
3.248979E+03	1.879221E-04	7.115666E-06
3.258915E+03	1.900262E-04	7.176756E-06
3.268851E+03	1.921226E-04	7.237057E-06
3.278786E+03	1.942426E-04	7.297740E-06
3.288722E+03	1.963866E-04	7.358806E-06
3.298658E+03	1.985548E-04	7.420260E-06
3.308593E+03	2.007805E-04	7.483327E-06
3.318529E+03	2.029990E-04	7.545579E-06
3.328465E+03	2.052430E-04	7.608236E-06
3.338401E+03	2.075132E-04	7.671305E-06
3.348336E+03	2.098444E-04	7.736060E-06
3.358272E+03	2.121690E-04	7.799993E-06
3.368208E+03	2.145217E-04	7.864374E-06
3.378143E+03	2.169383E-04	7.930503E-06
3.388079E+03	2.193496E-04	7.995828E-06
3.398015E+03	2.217912E-04	8.061645E-06
3.407951E+03	2.243003E-04	8.129291E-06
3.417886E+03	2.268056E-04	8.196161E-06
3.427822E+03	2.293442E-04	8.263588E-06
3.437758E+03	2.319547E-04	8.332947E-06
3.447693E+03	2.345636E-04	8.401577E-06
3.457629E+03	2.372094E-04	8.470853E-06
3.467565E+03	2.399325E-04	8.542189E-06
3.477501E+03	2.426571E-04	8.612875E-06
3.487436E+03	2.454630E-04	8.685726E-06
3.497372E+03	2.482734E-04	8.757998E-06
3.507308E+03	2.511698E-04	8.832558E-06
3.517243E+03	2.540739E-04	8.906626E-06
3.527179E+03	2.570282E-04	8.981677E-06
3.537115E+03	2.600768E-04	9.059230E-06
3.547051E+03	2.631392E-04	9.136453E-06
3.556986E+03	2.663021E-04	9.216337E-06
3.566922E+03	2.694829E-04	9.295994E-06
3.576858E+03	2.727701E-04	9.378455E-06
3.586793E+03	2.760785E-04	9.460760E-06
3.596729E+03	2.794980E-04	9.545969E-06
3.606665E+03	2.829412E-04	9.631061E-06
3.616601E+03	2.865000E-04	9.719139E-06
3.626536E+03	2.900848E-04	9.807132E-06
3.636472E+03	2.937897E-04	9.898197E-06
3.646408E+03	2.975234E-04	9.989215E-06
3.656343E+03	3.013822E-04	1.008340E-05
3.666279E+03	3.052726E-04	1.017757E-05
3.676215E+03	3.092936E-04	1.027502E-05
3.686151E+03	3.133494E-04	1.037250E-05
3.696086E+03	3.175415E-04	1.047337E-05
3.706022E+03	3.217720E-04	1.057432E-05
3.715958E+03	3.261449E-04	1.067876E-05
3.725893E+03	3.306121E-04	1.078507E-05
3.735829E+03	3.351231E-04	1.089154E-05
3.745765E+03	3.397858E-04	1.100166E-05
3.755701E+03	3.444957E-04	1.111199E-05
3.765636E+03	3.493638E-04	1.122607E-05
3.775572E+03	3.542825E-04	1.134040E-05
3.785508E+03	3.593654E-04	1.145857E-05
3.795443E+03	3.645021E-04	1.157701E-05
3.805379E+03	3.698090E-04	1.169936E-05
3.815315E+03	3.751724E-04	1.182198E-05
3.825251E+03	3.807117E-04	1.194858E-05
3.835186E+03	3.863704E-04	1.207732E-05
3.845122E+03	3.920885E-04	1.220629E-05
3.855058E+03	3.979902E-04	1.233929E-05
3.864993E+03	4.039524E-04	1.247245E-05
3.874929E+03	4.101024E-04	1.260966E-05
3.884865E+03	4.163133E-04	1.274694E-05
3.894801E+03	4.227155E-04	1.288823E-05
3.904736E+03	4.291779E-04	1.302948E-05
3.914672E+03	4.358343E-04	1.317470E-05
3.924608E+03	4.425490E-04	1.331971E-05
3.934544E+03	4.494593E-04	1.346860E-05
3.944479E+03	4.564248E-04	1.361709E-05
3.954415E+03	4.635863E-04	1.376933E-05
3.964351E+03	4.707987E-04	1.392094E-05
3.974286E+03	4.782059E-04	1.407613E-05
3.984222E+03	4.856581E-04	1.423042E-05
3.994158E+03	4.933027E-04	1.438808E-05
4.004094E+03	5.009845E-04	1.454452E-05
4.014029E+03	5.088547E-04	1.470407E-05
4.023965E+03	5.167524E-04	1.486203E-05
4.033901E+03	5.248328E-04	1.502282E-05
4.043836E+03	5.329291E-04	1.518159E-05
4.053772E+03	5.412002E-04	1.534284E-05
4.063708E+03	5.494737E-04	1.550162E-05
4.073644E+03	5.578259E-04	1.566005E-05
4.083579E+03	5.663375E-04	1.582035E-05
4.093515E+03	5.748273E-04	1.597740E-05
4.103451E+03	5.834632E-04	1.613586E-05
4.113386E+03	5.920577E-04	1.629047E-05
4.123322E+03	6.006920E-04	1.644348E-05
4.133258E+03	6.094491E-04	1.659712E-05
4.143194E+03	6.181327E-04	1.674600E-05
4.153129E+03	6.269224E-04	1.689499E-05
4.163065E+03	6.356148E-04	1.703858E-05
4.173001E+03	6.442945E-04	1.717905E-05
4.182936E+03	6.530498E-04	1.731874E-05
4.192872E+03	6.616712E-04	1.745209E-05
4.202808E+03	6.702451E-04	1.758141E-05
4.212744E+03	6.787595E-04	1.770640E-05
4.222679E+03	6.873097E-04	1.782954E-05
4.232615E+03	6.956733E-04	1.794508E-05
4.242551E+03	7.039450E-04	1.805551E-05
4.252486E+03	7.121137E-04	1.816059E-05
4.262422E+03	7.202795E-04	1.826290E-05
4.272358E+03	7.282147E-04	1.835668E-05
4.282294E+03	7.360204E-04	1.844457E-05
4.292229E+03	7.436901E-04	1.852644E-05
4.302165E+03	7.512170E-04	1.860221E-05
4.312101E+03	7.585970E-04	1.867180E-05
4.322036E+03	7.659433E-04	1.873807E-05
4.331972E+03	7.730210E-04	1.879530E-05
4.341908E+03	7.799444E-04	1.884638E-05
4.351844E+03	7.867122E-04	1.889133E-05
4.361779E+03	7.933215E-04	1.893016E-05
4.371715E+03	7.997681E-04	1.896284E-05
4.381651E+03	8.060445E-04	1.898926E-05
4.391586E+03	8.121434E-04	1.900933E-05
4.401522E+03	8.180563E-04	1.902293E-05
4.411458E+03	8.237763E-04	1.902997E-05
4.421394E+03	8.292959E-04	1.903039E-05
4.431329E+03	8.346118E-04	1.902419E-05
4.441265E+03	8.397188E-04	1.901136E-05
4.451201E+03	8.446147E-04	1.899193E-05
4.461136E+03	8.492998E-04	1.896601E-05
4.471072E+03	8.536451E-04	1.893084E-05
4.481008E+03	8.579098E-04	1.889228E-05
4.490944E+03	8.619687E-04	1.884764E-05
4.500879E+03	8.658267E-04	1.879711E-05
4.510815E+03	8.694886E-04	1.874090E-05
4.520751E+03	8.728303E-04	1.867645E-05
4.530686E+03	8.761203E-04	1.860961E-05
4.540622E+03	8.792372E-04	1.853785E-05
4.550558E+03	8.821883E-04	1.846141E-05
4.560494E+03	8.848514E-04	1.837783E-05
4.570429E+03	8.875002E-04	1.829289E-05
4.580365E+03	8.900141E-04	1.820415E-05
4.590301E+03	8.922678E-04	1.810912E-05
4.600236E+03	8.945405E-04	1.801356E-05
4.610172E+03	8.965748E-04	1.791233E-05
4.620108E+03	8.986499E-04	1.781107E-05
4.630044E+03	9.005080E-04	1.770471E-05
4.639979E+03	9.024288E-04	1.759882E-05
4.649915E+03	9.041542E-04	1.748837E-05
4.659851E+03	9.059638E-04	1.737884E-05
4.669786E+03	9.075983E-04	1.726527E-05
4.679722E+03	9.093383E-04	1.715304E-05
4.689658E+03	9.109233E-04	1.703723E-05
4.699594E+03	9.126344E-04	1.692315E-05
4.709529E+03	9.142096E-04	1.680593E-05
4.719465E+03	9.157936E-04	1.668828E-05
4.729401E+03	9.173952E-04	1.657038E-05
4.739336E+03	9.191604E-04	1.645483E-05
4.749272E+03	9.208241E-04	1.633688E-05
4.759208E+03	9.225310E-04	1.621913E-05
4.769144E+03	9.242882E-04	1.610170E-05
4.779079E+03	9.262414E-04	1.598709E-05
4.789015E+03	9.281225E-04	1.587064E-05
4.798951E+03	9.300752E-04	1.575484E-05
4.808887E+03	9.321067E-04	1.563979E-05
4.818822E+03	9.342221E-04	1.552555E-05
4.828758E+03	9.364268E-04	1.541221E-05
4.838694E+03	9.387273E-04	1.529983E-05
4.848629E+03	9.411277E-04	1.518846E-05
4.858565E+03	9.436334E-04	1.507815E-05
4.868501E+03	9.462479E-04	1.496895E-05
4.878437E+03	9.489760E-04	1.486090E-05
4.888372E+03	9.518201E-04	1.475399E-05
4.898308E+03	9.547852E-04	1.464829E-05
4.908244E+03	9.578730E-04	1.454379E-05
4.918179E+03	9.609455E-04	1.443838E-05
4.928115E+03	9.642872E-04	1.433633E-05
4.938051E+03	9.677597E-04	1.423551E-05
4.947987E+03	9.713636E-04	1.413590E-05
4.957922E+03	9.749580E-04	1.403544E-05
4.967858E+03	9.788305E-04	1.393828E-05
4.977794E+03	9.828384E-04	1.384230E-05
4.987729E+03	9.868372E-04	1.374548E-05
4.997665E+03	9.911175E-04	1.365185E-05
5.007601E+03	9.955335E-04	1.355936E-05
5.017537E+03	9.999391E-04	1.346601E-05
5.027472E+03	1.004627E-03	1.337574E-05
5.037408E+03	1.009300E-03	1.328458E-05
5.047344E+03	1.014254E-03	1.319643E-05
5.057279E+03	1.019189E-03	1.310737E-05
5.067215E+03	1.024403E-03	1.302124E-05
5.077151E+03	1.029595E-03	1.293418E-05
5.087087E+03	1.034909E-03	1.284807E-05
5.097022E+03	1.040497E-03	1.276479E-05
5.106958E+03	1.046051E-03	1.268054E-05
5.116894E+03	1.051719E-03	1.259718E-05
5.126829E+03	1.057498E-03	1.251471E-05
5.136765E+03	1.063539E-03	1.243492E-05
5.146701E+03	1.069529E-03	1.235415E-05
5.156637E+03	1.075617E-03	1.227421E-05
5.166572E+03	1.081800E-03	1.219511E-05
5.176508E+03	1.088072E-03	1.211684E-05
5.186444E+03	1.094429E-03	1.203941E-05
5.196379E+03	1.101026E-03	1.196457E-05
5.206315E+03	1.107539E-03	1.188882E-05
5.216251E+03	1.114121E-03	1.181395E-05
5.226187E+03	1.120768E-03	1.173999E-05
5.236122E+03	1.127477E-03	1.166698E-05
5.246058E+03	1.134240E-03	1.159494E-05
5.255994E+03	1.140889E-03	1.152224E-05
5.265929E+03	1.147751E-03	1.145233E-05
5.275865E+03	1.154657E-03	1.138358E-05
5.285801E+03	1.161603E-03	1.131606E-05
5.295737E+03	1.168589E-03	1.124987E-05
5.305672E+03	1.175611E-03	1.118510E-05
5.315608E+03	1.182496E-03	1.112023E-05
5.325544E+03	1.189589E-03	1.105865E-05
5.335479E+03	1.196719E-03	1.099883E-05
5.345415E+03	1.203711E-03	1.093934E-05
5.355351E+03	1.210919E-03	1.088350E-05
5.365287E+03	1.218171E-03	1.082987E-05
5.375222E+03	1.225293E-03	1.077704E-05
5.385158E+03	1.232645E-03	1.072830E-05
5.395094E+03	1.239873E-03	1.068067E-05
5.405029E+03	1.247340E-03	1.063740E-05
5.414965E+03	1.254687E-03	1.059532E-05
5.424901E+03	1.262274E-03	1.055743E-05
5.434837E+03	1.269736E-03	1.052053E-05
5.444772E+03	1.277434E-03	1.048752E-05
5.454708E+03	1.284992E-03	1.045519E-05
5.464644E+03	1.292592E-03	1.042492E-05
5.474579E+03	1.300425E-03	1.039812E-05
5.484515E+03	1.308118E-03	1.037166E-05
5.494451E+03	1.315862E-03	1.034694E-05
5.504387E+03	1.323851E-03	1.032532E-05
5.514322E+03	1.331698E-03	1.030366E-05
5.524258E+03	1.339593E-03	1.028327E-05
5.534194E+03	1.347527E-03	1.026397E-05
5.544129E+03	1.355497E-03	1.024556E-05
5.554065E+03	1.363692E-03	1.022933E-05
5.564001E+03	1.371711E-03	1.021210E-05
5.573937E+03	1.379745E-03	1.019517E-05
5.583872E+03	1.387787E-03	1.017834E-05
5.593808E+03	1.395832E-03	1.016144E-05
5.603744E+03	1.403874E-03	1.014427E-05
5.613679E+03	1.411910E-03	1.012667E-05
5.623615E+03	1.419934E-03	1.010848E-05
5.633551E+03	1.427945E-03	1.008954E-05
5.643487E+03	1.435939E-03	1.006969E-05
5.653422E+03	1.443913E-03	1.004880E-05
5.663358E+03	1.451656E-03	1.002528E-05
5.673294E+03	1.459583E-03	1.000190E-05
5.683230E+03	1.467485E-03	9.977096E-06
5.693165E+03	1.475359E-03	9.950740E-06
5.703101E+03	1.483202E-03	9.922726E-06
5.713037E+03	1.490796E-03	9.891520E-06
5.722972E+03	1.498570E-03	9.859898E-06
5.732908E+03	1.506305E-03	9.826326E-06
5.742844E+03	1.513998E-03	9.790734E-06
5.752780E+03	1.521424E-03	9.751631E-06
5.762715E+03	1.529018E-03	9.711779E-06
5.772651E+03	1.536332E-03	9.668306E-06
5.782587E+03	1.543804E-03	9.623976E-06
5.792522E+03	1.551208E-03	9.577349E-06
5.802458E+03	1.558309E-03	9.527023E-06
5.812394E+03	1.565547E-03	9.475747E-06
5.822330E+03	1.572465E-03	9.420793E-06
5.832265E+03	1.579503E-03	9.364902E-06
5.842201E+03	1.586198E-03	9.305407E-06
5.852137E+03	1.592993E-03	9.245063E-06
5.862072E+03	1.599419E-03	9.181277E-06
5.872008E+03	1.605690E-03	9.115488E-06
5.881944E+03	1.612026E-03	9.049143E-06
5.891880E+03	1.617949E-03	8.979769E-06
5.901815E+03	1.623675E-03	8.908878E-06
5.911751E+03	1.629425E-03	8.837959E-06
5.921687E+03	1.634712E-03	8.764705E-06
5.931622E+03	1.639757E-03	8.690693E-06
5.941558E+03	1.644780E-03	8.617491E-06
5.951494E+03	1.649292E-03	8.542973E-06
5.961430E+03	1.653512E-03	8.468792E-06
5.971365E+03	1.657426E-03	8.395408E-06
5.981301E+03	1.661021E-03	8.323313E-06
5.991237E+03	1.664520E-03	8.254226E-06
6.001172E+03	1.667432E-03	8.186344E-06
6.011108E+03	1.669983E-03	8.121475E-06
6.021044E+03	1.672164E-03	8.060281E-06
6.030980E+03	1.673964E-03	8.003443E-06
6.040915E+03	1.675376E-03	7.951677E-06
6.050851E+03	1.676393E-03	7.905716E-06
6.060787E+03	1.677009E-03	7.866301E-06
6.070722E+03	1.677219E-03	7.834177E-06
6.080658E+03	1.677020E-03	7.810074E-06
6.090594E+03	1.676406E-03	7.794687E-06
6.100530E+03	1.675373E-03	7.788683E-06
6.110465E+03	1.673912E-03	7.792655E-06
6.120401E+03	1.672014E-03	7.807126E-06
6.130337E+03	1.669664E-03	7.832533E-06
6.140272E+03	1.666849E-03	7.869213E-06
6.150208E+03	1.663555E-03	7.917426E-06
6.160144E+03	1.659542E-03	7.976098E-06
6.170080E+03	1.655296E-03	8.047157E-06
6.180015E+03	1.650589E-03	8.128970E-06
6.189951E+03	1.645434E-03	8.220969E-06
6.199887E+03	1.639840E-03	8.322510E-06
6.209822E+03	1.633578E-03	8.431678E-06
6.219758E+03	1.627124E-03	8.550143E-06
6.229694E+03	1.620246E-03	8.675932E-06
6.239630E+03	1.612948E-03	8.808251E-06
6.249565E+03	1.605002E-03	8.945020E-06
6.259501E+03	1.596878E-03	9.088025E-06
6.269437E+03	1.588353E-03	9.235232E-06
6.279372E+03	1.579206E-03	9.384555E-06
6.289308E+03	1.569906E-03	9.537979E-06
6.299244E+03	1.560013E-03	9.692117E-06
6.309180E+03	1.549993E-03	9.849116E-06
6.319115E+03	1.539638E-03	1.000703E-05
6.329051E+03	1.528744E-03	1.016386E-05
6.338987E+03	1.517773E-03	1.032202E-05
6.348922E+03	1.506308E-03	1.047810E-05
6.358858E+03	1.494806E-03	1.063473E-05
6.368794E+03	1.482856E-03	1.078849E-05
6.378730E+03	1.470911E-03	1.094216E-05
6.388665E+03	1.458569E-03	1.109232E-05
6.398601E+03	1.446274E-03	1.124192E-05
6.408537E+03	1.433631E-03	1.138754E-05
6.418472E+03	1.420875E-03	1.153061E-05
6.428408E+03	1.408231E-03	1.167270E-05
6.438344E+03	1.395313E-03	1.181033E-05
6.448280E+03	1.382548E-03	1.194684E-05
6.458215E+03	1.369557E-03	1.207874E-05
6.468151E+03	1.356562E-03	1.220772E-05
6.478087E+03	1.343777E-03	1.233556E-05
6.488022E+03	1.330831E-03	1.245874E-05
6.497958E+03	1.317939E-03	1.257905E-05
6.507894E+03	1.305309E-03	1.269841E-05
6.517830E+03	1.292576E-03	1.281320E-05
6.527765E+03	1.279947E-03	1.292535E-05
6.537701E+03	1.267439E-03	1.303496E-05
6.547637E+03	1.255246E-03	1.314403E-05
6.557573E+03	1.243017E-03	1.324889E-05
6.567508E+03	1.230948E-03	1.335155E-05
6.577444E+03	1.219050E-03	1.345215E-05
6.587380E+03	1.207333E-03	1.355082E-05
6.597315E+03	1.195980E-03	1.364967E-05
6.607251E+03	1.184653E-03	1.374491E-05
6.617187E+03	1.173534E-03	1.383866E-05
6.627123E+03	1.162629E-03	1.393105E-05
6.637058E+03	1.151945E-03	1.402222E-05
6.646994E+03	1.141488E-03	1.411233E-05
6.656930E+03	1.131262E-03	1.420151E-05
6.666865E+03	1.121271E-03	1.428991E-05
6.676801E+03	1.111518E-03	1.437766E-05
6.686737E+03	1.102006E-03	1.446489E-05
6.696673E+03	1.092894E-03	1.455383E-05
6.706608E+03	1.083866E-03	1.464043E-05
6.716544E+03	1.075081E-03	1.472686E-05
6.726480E+03	1.066541E-03	1.481326E-05
6.736415E+03	1.058243E-03	1.489974E-05
6.746351E+03	1.050034E-03	1.498419E-05
6.756287E+03	1.042217E-03	1.507106E-05
6.766223E+03	1.034638E-03	1.515826E-05
6.776158E+03	1.027293E-03	1.524588E-05
6.786094E+03	1.020178E-03	1.533397E-05
6.796030E+03	1.013290E-03	1.542259E-05
6.805965E+03	1.006625E-03	1.551180E-05
6.815901E+03	1.000176E-03	1.560162E-05
6.825837E+03	9.939403E-04	1.569210E-05
6.835773E+03	9.879118E-04	1.578326E-05
6.845708E+03	9.819410E-04	1.587278E-05
6.855644E+03	9.763090E-04	1.596530E-05
6.865580E+03	9.708646E-04	1.605849E-05
6.875515E+03	9.656011E-04	1.615233E-05
6.885451E+03	9.605116E-04	1.624681E-05
6.895387E+03	9.554500E-04	1.633952E-05
6.905323E+03	9.506874E-04	1.643516E-05
6.915258E+03	9.460762E-04	1.653130E-05
6.925194E+03	9.416068E-04	1.662786E-05
6.935130E+03	9.371368E-04	1.672236E-05
6.945065E+03	9.329295E-04	1.681957E-05
6.955001E+03	9.288409E-04	1.691698E-05
6.964937E+03	9.248613E-04	1.701449E-05
6.974873E+03	9.208477E-04	1.710950E-05
6.984808E+03	9.170608E-04	1.720687E-05
6.994744E+03	9.133568E-04	1.730400E-05
7.004680E+03	9.095941E-04	1.739824E-05
7.014615E+03	9.060304E-04	1.749451E-05
7.024551E+03	9.023913E-04	1.758758E-05
7.034487E+03	8.989332E-04	1.768245E-05
7.044423E+03	8.955133E-04	1.777638E-05
7.054358E+03	8.919953E-04	1.786667E-05
7.064294E+03	8.886302E-04	1.795832E-05
7.074230E+03	8.851508E-04	1.804598E-05
7.084165E+03	8.818076E-04	1.813474E-05
7.094101E+03	8.783358E-04	1.821917E-05
7.104037E+03	8.749842E-04	1.830442E-05
7.113973E+03	8.714903E-04	1.838500E-05
7.123908E+03	8.681023E-04	1.846613E-05
7.133844E+03	8.645599E-04	1.854228E-05
7.143780E+03	8.611091E-04	1.861869E-05
7.153715E+03	8.574929E-04	1.868981E-05
7.163651E+03	8.539572E-04	1.876095E-05
7.173587E+03	8.502467E-04	1.882651E-05
7.183523E+03	8.466062E-04	1.889186E-05
7.193458E+03	8.427833E-04	1.895137E-05
7.203394E+03	8.388989E-04	1.900768E-05
7.213330E+03	8.350723E-04	1.906349E-05
7.223265E+03	8.310554E-04	1.911313E-05
7.233201E+03	8.269690E-04	1.915930E-05
7.243137E+03	8.229319E-04	1.920474E-05
7.253073E+03	8.187009E-04	1.924378E-05
7.263008E+03	8.143964E-04	1.927916E-05
7.272944E+03	8.101367E-04	1.931367E-05
7.282880E+03	8.056838E-04	1.934163E-05
7.292815E+03	8.011571E-04	1.936584E-05
7.302751E+03	7.966747E-04	1.938914E-05
7.312687E+03	7.920032E-04	1.940583E-05
7.322623E+03	7.872617E-04	1.941878E-05
7.332558E+03	7.824521E-04	1.942799E-05
7.342494E+03	7.775766E-04	1.943351E-05
7.352430E+03	7.727515E-04	1.943822E-05
7.362365E+03	7.677516E-04	1.943646E-05
7.372301E+03	7.626942E-04	1.943114E-05
7.382237E+03	7.575828E-04	1.942234E-05
7.392173E+03	7.524207E-04	1.941012E-05
7.402108E+03	7.472117E-04	1.939456E-05
7.412044E+03	7.420689E-04	1.937860E-05
7.421980E+03	7.367769E-04	1.935663E-05
7.431916E+03	7.314499E-04	1.933159E-05
7.441851E+03	7.260920E-04	1.930360E-05
7.451787E+03	7.207073E-04	1.927276E-05
7.461723E+03	7.153001E-04	1.923918E-05
7.471658E+03	7.098747E-04	1.920298E-05
7.481594E+03	7.044354E-04	1.916427E-05
7.491530E+03	6.989862E-04	1.912317E-05
7.501466E+03	6.935314E-04	1.907980E-05
7.511401E+03	6.880752E-04	1.903428E-05
7.521337E+03	6.826216E-04	1.898674E-05
7.531273E+03	6.771746E-04	1.893730E-05
7.541208E+03	6.717378E-04	1.888608E-05
7.551144E+03	6.663154E-04	1.883319E-05
7.561080E+03	6.609108E-04	1.877877E-05
7.571016E+03	6.555277E-04	1.872294E-05
7.580951E+03	6.501694E-04	1.866580E-05
7.590887E+03	6.447438E-04	1.860473E-05
7.600823E+03	6.394457E-04	1.854535E-05
7.610758E+03	6.341821E-04	1.848501E-05
7.620694E+03	6.289556E-04	1.842383E-05
7.630630E+03	6.237693E-04	1.836192E-05
7.640566E+03	6.186258E-04	1.829938E-05
7.650501E+03	6.134366E-04	1.823360E-05
7.660437E+03	6.083870E-04	1.817012E-05
7.670373E+03	6.033873E-04	1.810632E-05
7.680308E+03	5.984399E-04	1.804229E-05
7.690244E+03	5.935469E-04	1.797813E-05
7.700180E+03	5.886229E-04	1.791128E-05
7.710116E+03	5.838453E-04	1.784715E-05
