#wls	flux	fluxerr
1.600000E+03	4.006765E-15	6.145689E-18
1.640000E+03	4.443706E-15	6.815816E-18
1.680000E+03	4.925464E-15	7.554640E-18
1.720000E+03	5.448465E-15	8.356657E-18
1.760000E+03	5.997345E-15	9.198266E-18
1.800000E+03	6.541247E-15	1.003210E-17
1.840000E+03	7.030666E-15	1.078219E-17
1.880000E+03	7.395938E-15	1.134166E-17
1.920000E+03	7.567772E-15	1.160424E-17
1.960000E+03	7.513579E-15	1.152001E-17
2.000000E+03	7.287365E-15	1.117187E-17
2.040000E+03	7.047273E-15	1.080239E-17
2.080000E+03	7.023757E-15	1.076492E-17
2.120000E+03	7.371486E-15	1.129659E-17
2.158000E+03	7.873261E-15	1.206479E-17
2.159000E+03	7.915076E-15	1.212886E-17
2.160000E+03	7.953606E-15	1.218790E-17
2.161000E+03	7.989790E-15	1.224333E-17
2.162000E+03	8.023511E-15	1.229500E-17
2.163000E+03	8.060173E-15	1.235117E-17
2.164000E+03	8.096253E-15	1.240646E-17
2.165000E+03	8.127400E-15	1.245418E-17
2.166000E+03	8.151619E-15	1.249129E-17
2.167000E+03	8.175371E-15	1.252768E-17
2.168000E+03	8.201594E-15	1.256786E-17
2.169000E+03	8.236283E-15	1.262101E-17
2.170000E+03	8.291896E-15	1.270623E-17
2.171000E+03	8.362677E-15	1.281469E-17
2.172000E+03	8.436168E-15	1.292730E-17
2.173000E+03	8.509430E-15	1.303956E-17
2.174000E+03	8.579524E-15	1.314697E-17
2.175000E+03	8.634108E-15	1.323061E-17
2.176000E+03	8.675180E-15	1.329355E-17
2.177000E+03	8.706616E-15	1.334172E-17
2.178000E+03	8.730062E-15	1.337765E-17
2.179000E+03	8.746458E-15	1.340278E-17
2.180000E+03	8.769909E-15	1.343871E-17
2.181000E+03	8.803241E-15	1.348979E-17
2.182000E+03	8.847511E-15	1.355763E-17
2.183000E+03	8.905542E-15	1.364656E-17
2.184000E+03	8.980394E-15	1.376127E-17
2.185000E+03	9.048197E-15	1.386517E-17
2.186000E+03	9.103189E-15	1.394944E-17
2.187000E+03	9.154893E-15	1.402868E-17
2.188000E+03	9.220361E-15	1.412900E-17
2.189000E+03	9.300536E-15	1.425187E-17
2.190000E+03	9.392244E-15	1.439240E-17
2.191000E+03	9.491369E-15	1.454431E-17
2.192000E+03	9.591444E-15	1.469767E-17
2.193000E+03	9.661063E-15	1.480436E-17
2.194000E+03	9.694224E-15	1.485518E-17
2.195000E+03	9.701864E-15	1.486690E-17
2.196000E+03	9.692801E-15	1.485302E-17
2.197000E+03	9.668799E-15	1.481625E-17
2.198000E+03	9.635737E-15	1.476560E-17
2.199000E+03	9.592793E-15	1.469980E-17
2.200000E+03	9.542904E-15	1.462337E-17
2.201000E+03	9.491954E-15	1.454530E-17
2.202000E+03	9.432648E-15	1.445443E-17
2.203000E+03	9.361337E-15	1.434517E-17
2.204000E+03	9.280255E-15	1.422093E-17
2.205000E+03	9.210935E-15	1.411472E-17
2.206000E+03	9.169029E-15	1.405052E-17
2.207000E+03	9.159367E-15	1.403573E-17
2.208000E+03	9.173359E-15	1.405718E-17
2.209000E+03	9.193943E-15	1.408874E-17
2.210000E+03	9.217001E-15	1.412408E-17
2.211000E+03	9.237590E-15	1.415565E-17
2.212000E+03	9.254297E-15	1.418127E-17
2.213000E+03	9.261942E-15	1.419300E-17
2.214000E+03	9.253698E-15	1.418038E-17
2.215000E+03	9.231444E-15	1.414629E-17
2.216000E+03	9.201892E-15	1.410102E-17
2.217000E+03	9.172102E-15	1.405539E-17
2.218000E+03	9.141721E-15	1.400885E-17
2.219000E+03	9.113576E-15	1.396574E-17
2.220000E+03	9.087548E-15	1.392587E-17
2.221000E+03	9.059046E-15	1.388221E-17
2.222000E+03	9.017237E-15	1.381816E-17
2.223000E+03	8.959999E-15	1.373046E-17
2.224000E+03	8.910058E-15	1.365395E-17
2.225000E+03	8.881428E-15	1.361009E-17
2.226000E+03	8.876467E-15	1.360251E-17
2.227000E+03	8.883637E-15	1.361352E-17
2.228000E+03	8.914243E-15	1.366044E-17
2.229000E+03	8.964168E-15	1.373696E-17
2.230000E+03	9.024345E-15	1.382920E-17
2.231000E+03	9.083584E-15	1.392000E-17
2.232000E+03	9.133403E-15	1.399636E-17
2.233000E+03	9.170741E-15	1.405360E-17
2.234000E+03	9.197949E-15	1.409532E-17
2.235000E+03	9.214794E-15	1.412115E-17
2.236000E+03	9.217619E-15	1.412550E-17
2.237000E+03	9.199828E-15	1.409826E-17
2.238000E+03	9.167189E-15	1.404826E-17
2.239000E+03	9.124062E-15	1.398219E-17
2.240000E+03	9.086823E-15	1.392515E-17
2.241000E+03	9.061481E-15	1.388633E-17
2.242000E+03	9.054166E-15	1.387515E-17
2.243000E+03	9.062288E-15	1.388762E-17
2.244000E+03	9.086202E-15	1.392429E-17
2.245000E+03	9.116715E-15	1.397107E-17
2.246000E+03	9.137333E-15	1.400269E-17
2.247000E+03	9.146282E-15	1.401642E-17
2.248000E+03	9.139792E-15	1.400650E-17
2.249000E+03	9.116209E-15	1.397039E-17
2.250000E+03	9.074000E-15	1.390573E-17
2.251000E+03	9.027545E-15	1.383456E-17
2.252000E+03	8.978373E-15	1.375923E-17
2.253000E+03	8.922949E-15	1.367431E-17
2.254000E+03	8.862216E-15	1.358126E-17
2.255000E+03	8.793461E-15	1.347592E-17
2.256000E+03	8.725525E-15	1.337183E-17
2.257000E+03	8.650037E-15	1.325617E-17
2.258000E+03	8.568293E-15	1.313092E-17
2.259000E+03	8.481827E-15	1.299844E-17
2.260000E+03	8.400541E-15	1.287389E-17
2.261000E+03	8.324556E-15	1.275746E-17
2.262000E+03	8.238305E-15	1.262531E-17
2.263000E+03	8.143673E-15	1.248031E-17
2.264000E+03	8.046085E-15	1.233077E-17
2.265000E+03	7.949550E-15	1.218285E-17
2.266000E+03	7.870581E-15	1.206186E-17
2.267000E+03	7.808001E-15	1.196597E-17
2.268000E+03	7.759923E-15	1.189231E-17
2.269000E+03	7.725169E-15	1.183908E-17
2.270000E+03	7.689940E-15	1.178511E-17
2.271000E+03	7.649636E-15	1.172336E-17
2.272000E+03	7.600125E-15	1.164751E-17
2.273000E+03	7.555094E-15	1.157852E-17
2.274000E+03	7.515131E-15	1.151730E-17
2.275000E+03	7.467495E-15	1.144432E-17
2.276000E+03	7.405697E-15	1.134963E-17
2.277000E+03	7.332331E-15	1.123721E-17
2.278000E+03	7.249754E-15	1.111068E-17
2.279000E+03	7.157023E-15	1.096859E-17
2.280000E+03	7.053429E-15	1.080985E-17
2.281000E+03	6.961272E-15	1.066863E-17
2.282000E+03	6.883978E-15	1.055019E-17
2.283000E+03	6.825088E-15	1.045996E-17
2.284000E+03	6.790033E-15	1.040626E-17
2.285000E+03	6.780111E-15	1.039108E-17
2.286000E+03	6.783763E-15	1.039669E-17
2.287000E+03	6.782809E-15	1.039525E-17
2.288000E+03	6.776072E-15	1.038495E-17
2.289000E+03	6.765201E-15	1.036831E-17
2.290000E+03	6.749607E-15	1.034443E-17
2.291000E+03	6.728581E-15	1.031223E-17
2.292000E+03	6.713810E-15	1.028961E-17
2.293000E+03	6.714029E-15	1.028997E-17
2.294000E+03	6.727351E-15	1.031041E-17
2.295000E+03	6.748347E-15	1.034261E-17
2.296000E+03	6.775366E-15	1.038404E-17
2.297000E+03	6.804509E-15	1.042873E-17
2.298000E+03	6.831766E-15	1.047053E-17
2.299000E+03	6.851230E-15	1.050038E-17
2.300000E+03	6.866324E-15	1.052354E-17
2.301000E+03	6.877287E-15	1.054036E-17
2.302000E+03	6.886831E-15	1.055501E-17
2.303000E+03	6.902281E-15	1.057871E-17
2.304000E+03	6.930012E-15	1.062124E-17
2.305000E+03	6.978293E-15	1.069526E-17
2.306000E+03	7.037087E-15	1.078539E-17
2.307000E+03	7.103324E-15	1.088693E-17
2.308000E+03	7.172399E-15	1.099282E-17
2.309000E+03	7.248564E-15	1.110958E-17
2.310000E+03	7.331347E-15	1.123648E-17
2.311000E+03	7.413072E-15	1.136176E-17
2.312000E+03	7.489248E-15	1.147854E-17
2.313000E+03	7.562593E-15	1.159098E-17
2.314000E+03	7.639722E-15	1.170922E-17
2.315000E+03	7.718626E-15	1.183018E-17
2.316000E+03	7.796353E-15	1.194933E-17
2.317000E+03	7.863333E-15	1.205202E-17
2.318000E+03	7.918146E-15	1.213605E-17
2.319000E+03	7.959256E-15	1.219909E-17
2.320000E+03	7.994461E-15	1.225307E-17
2.321000E+03	8.024468E-15	1.229909E-17
2.322000E+03	8.051285E-15	1.234022E-17
2.323000E+03	8.073967E-15	1.237501E-17
2.324000E+03	8.093222E-15	1.240455E-17
2.325000E+03	8.109405E-15	1.242938E-17
2.326000E+03	8.138824E-15	1.247449E-17
2.327000E+03	8.178171E-15	1.253483E-17
2.328000E+03	8.226499E-15	1.260893E-17
2.329000E+03	8.277429E-15	1.268701E-17
2.330000E+03	8.332025E-15	1.277072E-17
2.331000E+03	8.390524E-15	1.286041E-17
2.332000E+03	8.447842E-15	1.294829E-17
2.333000E+03	8.505871E-15	1.303726E-17
2.334000E+03	8.548656E-15	1.310286E-17
2.335000E+03	8.562483E-15	1.312408E-17
2.336000E+03	8.548059E-15	1.310200E-17
2.337000E+03	8.510227E-15	1.304404E-17
2.338000E+03	8.470383E-15	1.298300E-17
2.339000E+03	8.428408E-15	1.291868E-17
2.340000E+03	8.387377E-15	1.285582E-17
2.341000E+03	8.354853E-15	1.280599E-17
2.342000E+03	8.330484E-15	1.276866E-17
2.343000E+03	8.315334E-15	1.274547E-17
2.344000E+03	8.292381E-15	1.271031E-17
2.345000E+03	8.259138E-15	1.265938E-17
2.346000E+03	8.214068E-15	1.259032E-17
2.347000E+03	8.160129E-15	1.250767E-17
2.348000E+03	8.099208E-15	1.241432E-17
2.349000E+03	8.032490E-15	1.231207E-17
2.350000E+03	7.958436E-15	1.219859E-17
2.351000E+03	7.889581E-15	1.209307E-17
2.352000E+03	7.831600E-15	1.200422E-17
2.353000E+03	7.790408E-15	1.194110E-17
2.354000E+03	7.753352E-15	1.188433E-17
2.355000E+03	7.721025E-15	1.183479E-17
2.356000E+03	7.694608E-15	1.179432E-17
2.357000E+03	7.664995E-15	1.174895E-17
2.358000E+03	7.631005E-15	1.169687E-17
2.359000E+03	7.601624E-15	1.165186E-17
2.360000E+03	7.582887E-15	1.162316E-17
2.361000E+03	7.571362E-15	1.160551E-17
2.362000E+03	7.567761E-15	1.160001E-17
2.363000E+03	7.579181E-15	1.161754E-17
2.364000E+03	7.607044E-15	1.166027E-17
2.365000E+03	7.645316E-15	1.171895E-17
2.366000E+03	7.686429E-15	1.178199E-17
2.367000E+03	7.730737E-15	1.184992E-17
2.368000E+03	7.773981E-15	1.191623E-17
2.369000E+03	7.816162E-15	1.198091E-17
2.370000E+03	7.856689E-15	1.204305E-17
2.371000E+03	7.899700E-15	1.210899E-17
2.372000E+03	7.947089E-15	1.218165E-17
2.373000E+03	7.998859E-15	1.226103E-17
2.374000E+03	8.049683E-15	1.233895E-17
2.375000E+03	8.091280E-15	1.240273E-17
2.376000E+03	8.126015E-15	1.245600E-17
2.377000E+03	8.146433E-15	1.248731E-17
2.378000E+03	8.159398E-15	1.250720E-17
2.379000E+03	8.163605E-15	1.251367E-17
2.380000E+03	8.169113E-15	1.252213E-17
2.381000E+03	8.179709E-15	1.253839E-17
2.382000E+03	8.193974E-15	1.256028E-17
2.383000E+03	8.206581E-15	1.257962E-17
2.384000E+03	8.212087E-15	1.258808E-17
2.385000E+03	8.212623E-15	1.258891E-17
2.386000E+03	8.218839E-15	1.259846E-17
2.387000E+03	8.233575E-15	1.262106E-17
2.388000E+03	8.256004E-15	1.265546E-17
2.389000E+03	8.282457E-15	1.269603E-17
2.390000E+03	8.316485E-15	1.274820E-17
2.391000E+03	8.357023E-15	1.281036E-17
2.392000E+03	8.398156E-15	1.287343E-17
2.393000E+03	8.439524E-15	1.293686E-17
2.394000E+03	8.483144E-15	1.300374E-17
2.395000E+03	8.532328E-15	1.307915E-17
2.396000E+03	8.584116E-15	1.315855E-17
2.397000E+03	8.637090E-15	1.323977E-17
2.398000E+03	8.692907E-15	1.332534E-17
2.399000E+03	8.754526E-15	1.341981E-17
2.400000E+03	8.817330E-15	1.351610E-17
2.401000E+03	8.876466E-15	1.360676E-17
2.402000E+03	8.931577E-15	1.369126E-17
2.403000E+03	8.979232E-15	1.376432E-17
2.404000E+03	9.016470E-15	1.382142E-17
2.405000E+03	9.040329E-15	1.385801E-17
2.406000E+03	9.064662E-15	1.389532E-17
2.407000E+03	9.095743E-15	1.394298E-17
2.408000E+03	9.135469E-15	1.400389E-17
2.409000E+03	9.182418E-15	1.407587E-17
2.410000E+03	9.236353E-15	1.415856E-17
2.411000E+03	9.298342E-15	1.425360E-17
2.412000E+03	9.365661E-15	1.435681E-17
2.413000E+03	9.439495E-15	1.447000E-17
2.414000E+03	9.521737E-15	1.459608E-17
2.415000E+03	9.606706E-15	1.472635E-17
2.416000E+03	9.692742E-15	1.485824E-17
2.417000E+03	9.775821E-15	1.498561E-17
2.418000E+03	9.842795E-15	1.508829E-17
2.419000E+03	9.887862E-15	1.515738E-17
2.420000E+03	9.911494E-15	1.519362E-17
2.421000E+03	9.919493E-15	1.520589E-17
2.422000E+03	9.912687E-15	1.519547E-17
2.423000E+03	9.892378E-15	1.516435E-17
2.424000E+03	9.870765E-15	1.513123E-17
2.425000E+03	9.852939E-15	1.510391E-17
2.426000E+03	9.837837E-15	1.508077E-17
2.427000E+03	9.822734E-15	1.505762E-17
2.428000E+03	9.808101E-15	1.503520E-17
2.429000E+03	9.795956E-15	1.501659E-17
2.430000E+03	9.783453E-15	1.499743E-17
2.431000E+03	9.770238E-15	1.497718E-17
2.432000E+03	9.755364E-15	1.495439E-17
2.433000E+03	9.733262E-15	1.492052E-17
2.434000E+03	9.702865E-15	1.487393E-17
2.435000E+03	9.665360E-15	1.481644E-17
2.436000E+03	9.627024E-15	1.475768E-17
2.437000E+03	9.587262E-15	1.469673E-17
2.438000E+03	9.547618E-15	1.463597E-17
2.439000E+03	9.511170E-15	1.458010E-17
2.440000E+03	9.485619E-15	1.454094E-17
2.441000E+03	9.472269E-15	1.452047E-17
2.442000E+03	9.461998E-15	1.450473E-17
2.443000E+03	9.455280E-15	1.449444E-17
2.444000E+03	9.452707E-15	1.449050E-17
2.445000E+03	9.453095E-15	1.449110E-17
2.446000E+03	9.455853E-15	1.449533E-17
2.447000E+03	9.463467E-15	1.450700E-17
2.448000E+03	9.480915E-15	1.453375E-17
2.449000E+03	9.508315E-15	1.457576E-17
2.450000E+03	9.546024E-15	1.463357E-17
2.451000E+03	9.591672E-15	1.470354E-17
2.452000E+03	9.645852E-15	1.478660E-17
2.453000E+03	9.693753E-15	1.486003E-17
2.454000E+03	9.727315E-15	1.491148E-17
2.455000E+03	9.746540E-15	1.494095E-17
2.456000E+03	9.758772E-15	1.495970E-17
2.457000E+03	9.769464E-15	1.497609E-17
2.458000E+03	9.778495E-15	1.498994E-17
2.459000E+03	9.788711E-15	1.500560E-17
2.460000E+03	9.806391E-15	1.503270E-17
2.461000E+03	9.832131E-15	1.507215E-17
2.462000E+03	9.864151E-15	1.512124E-17
2.463000E+03	9.894985E-15	1.516850E-17
2.464000E+03	9.922976E-15	1.521141E-17
2.465000E+03	9.947647E-15	1.524923E-17
2.466000E+03	9.968052E-15	1.528051E-17
2.467000E+03	9.984781E-15	1.530615E-17
2.468000E+03	9.999614E-15	1.532888E-17
2.469000E+03	1.002891E-14	1.537378E-17
2.470000E+03	1.007195E-14	1.543976E-17
2.471000E+03	1.012755E-14	1.552499E-17
2.472000E+03	1.019714E-14	1.563167E-17
2.473000E+03	1.028179E-14	1.576142E-17
2.474000E+03	1.037947E-14	1.591116E-17
2.475000E+03	1.046506E-14	1.604236E-17
2.476000E+03	1.053384E-14	1.614778E-17
2.477000E+03	1.058375E-14	1.622428E-17
2.478000E+03	1.061636E-14	1.627427E-17
2.479000E+03	1.062420E-14	1.628628E-17
2.480000E+03	1.060892E-14	1.626285E-17
2.481000E+03	1.057978E-14	1.621817E-17
2.482000E+03	1.054695E-14	1.616784E-17
2.483000E+03	1.051198E-14	1.611423E-17
2.484000E+03	1.048935E-14	1.607952E-17
2.485000E+03	1.048532E-14	1.607334E-17
2.486000E+03	1.050098E-14	1.609733E-17
2.487000E+03	1.051496E-14	1.611876E-17
2.488000E+03	1.052742E-14	1.613785E-17
2.489000E+03	1.053785E-14	1.615383E-17
2.490000E+03	1.053512E-14	1.614964E-17
2.491000E+03	1.051485E-14	1.611854E-17
2.492000E+03	1.047336E-14	1.605493E-17
2.493000E+03	1.042651E-14	1.598311E-17
2.494000E+03	1.038075E-14	1.591294E-17
2.495000E+03	1.034268E-14	1.585457E-17
2.496000E+03	1.030912E-14	1.580312E-17
2.497000E+03	1.027721E-14	1.575420E-17
2.498000E+03	1.024199E-14	1.570019E-17
2.499000E+03	1.020723E-14	1.564690E-17
2.500000E+03	1.017437E-14	1.559652E-17
2.501000E+03	1.014021E-14	1.554413E-17
2.502000E+03	1.010474E-14	1.548975E-17
2.503000E+03	1.007009E-14	1.543663E-17
2.504000E+03	1.003237E-14	1.537878E-17
2.505000E+03	9.991199E-15	1.531566E-17
2.506000E+03	9.949910E-15	1.525235E-17
2.507000E+03	9.917868E-15	1.520322E-17
2.508000E+03	9.892464E-15	1.516427E-17
2.509000E+03	9.866703E-15	1.512476E-17
2.510000E+03	9.841770E-15	1.508653E-17
2.511000E+03	9.827626E-15	1.506483E-17
2.512000E+03	9.824153E-15	1.505949E-17
2.513000E+03	9.828505E-15	1.506615E-17
2.514000E+03	9.832618E-15	1.507244E-17
2.515000E+03	9.836967E-15	1.507909E-17
2.516000E+03	9.841671E-15	1.508628E-17
2.517000E+03	9.843647E-15	1.508930E-17
2.518000E+03	9.840995E-15	1.508521E-17
2.519000E+03	9.833717E-15	1.507404E-17
2.520000E+03	9.823119E-15	1.505778E-17
2.521000E+03	9.808723E-15	1.503569E-17
2.522000E+03	9.789346E-15	1.500597E-17
2.523000E+03	9.764749E-15	1.496825E-17
2.524000E+03	9.739676E-15	1.492980E-17
2.525000E+03	9.717566E-15	1.489589E-17
2.526000E+03	9.700553E-15	1.486979E-17
2.527000E+03	9.691960E-15	1.485660E-17
2.528000E+03	9.691429E-15	1.485577E-17
2.529000E+03	9.698368E-15	1.486639E-17
2.530000E+03	9.710524E-15	1.488500E-17
2.531000E+03	9.727303E-15	1.491071E-17
2.532000E+03	9.746929E-15	1.494077E-17
2.533000E+03	9.772602E-15	1.498010E-17
2.534000E+03	9.804084E-15	1.502834E-17
2.535000E+03	9.841020E-15	1.508494E-17
2.536000E+03	9.881988E-15	1.514772E-17
2.537000E+03	9.924972E-15	1.521359E-17
2.538000E+03	9.970326E-15	1.528309E-17
2.539000E+03	1.001544E-14	1.535222E-17
2.540000E+03	1.006079E-14	1.542172E-17
2.541000E+03	1.010579E-14	1.549067E-17
2.542000E+03	1.014912E-14	1.555707E-17
2.543000E+03	1.018807E-14	1.561674E-17
2.544000E+03	1.022167E-14	1.566823E-17
2.545000E+03	1.025291E-14	1.571608E-17
2.546000E+03	1.028580E-14	1.576648E-17
2.547000E+03	1.032177E-14	1.582160E-17
2.548000E+03	1.035976E-14	1.587981E-17
2.549000E+03	1.039787E-14	1.593820E-17
2.550000E+03	1.043502E-14	1.599512E-17
2.551000E+03	1.047039E-14	1.604932E-17
2.552000E+03	1.050150E-14	1.609698E-17
2.553000E+03	1.052988E-14	1.614045E-17
2.554000E+03	1.055599E-14	1.618045E-17
2.555000E+03	1.058246E-14	1.622100E-17
2.556000E+03	1.060692E-14	1.625846E-17
2.557000E+03	1.062817E-14	1.629101E-17
2.558000E+03	1.064372E-14	1.631483E-17
2.559000E+03	1.065406E-14	1.633064E-17
2.560000E+03	1.065917E-14	1.633846E-17
2.561000E+03	1.066310E-14	1.634445E-17
2.562000E+03	1.066774E-14	1.635153E-17
2.563000E+03	1.067392E-14	1.636098E-17
2.564000E+03	1.067072E-14	1.635606E-17
2.565000E+03	1.065448E-14	1.633113E-17
2.566000E+03	1.062341E-14	1.628348E-17
2.567000E+03	1.058700E-14	1.622764E-17
2.568000E+03	1.055082E-14	1.617216E-17
2.569000E+03	1.052223E-14	1.612832E-17
2.570000E+03	1.050764E-14	1.610592E-17
2.571000E+03	1.050550E-14	1.610262E-17
2.572000E+03	1.051569E-14	1.611821E-17
2.573000E+03	1.053702E-14	1.615089E-17
2.574000E+03	1.056299E-14	1.619066E-17
2.575000E+03	1.059108E-14	1.623370E-17
2.576000E+03	1.061349E-14	1.626801E-17
2.577000E+03	1.062972E-14	1.629286E-17
2.578000E+03	1.063942E-14	1.630770E-17
2.579000E+03	1.064035E-14	1.630910E-17
2.580000E+03	1.063238E-14	1.629685E-17
2.581000E+03	1.061634E-14	1.627224E-17
2.582000E+03	1.059389E-14	1.623781E-17
2.583000E+03	1.056800E-14	1.619810E-17
2.584000E+03	1.053938E-14	1.615421E-17
2.585000E+03	1.050887E-14	1.610741E-17
2.586000E+03	1.048203E-14	1.606625E-17
2.587000E+03	1.046064E-14	1.603344E-17
2.588000E+03	1.044577E-14	1.601061E-17
2.589000E+03	1.043540E-14	1.599470E-17
2.590000E+03	1.042812E-14	1.598351E-17
2.591000E+03	1.042381E-14	1.597687E-17
2.592000E+03	1.041996E-14	1.597096E-17
2.593000E+03	1.041303E-14	1.596030E-17
2.594000E+03	1.040218E-14	1.594365E-17
2.595000E+03	1.038647E-14	1.591953E-17
2.596000E+03	1.035972E-14	1.587852E-17
2.597000E+03	1.032183E-14	1.582041E-17
2.598000E+03	1.027290E-14	1.574539E-17
2.599000E+03	1.021021E-14	1.564929E-17
2.600000E+03	1.013294E-14	1.553082E-17
2.601000E+03	1.004143E-14	1.539054E-17
2.602000E+03	9.951940E-15	1.525335E-17
2.603000E+03	9.871578E-15	1.513016E-17
2.604000E+03	9.802126E-15	1.502368E-17
2.605000E+03	9.738365E-15	1.492593E-17
2.606000E+03	9.677923E-15	1.483327E-17
2.607000E+03	9.621393E-15	1.474660E-17
2.608000E+03	9.567588E-15	1.466411E-17
2.609000E+03	9.518645E-15	1.458908E-17
2.610000E+03	9.475155E-15	1.452240E-17
2.611000E+03	9.436050E-15	1.446244E-17
2.612000E+03	9.399079E-15	1.440575E-17
2.613000E+03	9.362462E-15	1.434961E-17
2.614000E+03	9.327621E-15	1.429619E-17
2.615000E+03	9.301317E-15	1.425585E-17
2.616000E+03	9.286751E-15	1.423350E-17
2.617000E+03	9.285462E-15	1.423151E-17
2.618000E+03	9.282985E-15	1.422769E-17
2.619000E+03	9.274814E-15	1.421515E-17
2.620000E+03	9.259409E-15	1.419151E-17
2.621000E+03	9.236412E-15	1.415625E-17
2.622000E+03	9.202979E-15	1.410499E-17
2.623000E+03	9.156027E-15	1.403301E-17
2.624000E+03	9.098877E-15	1.394540E-17
2.625000E+03	9.034731E-15	1.384706E-17
2.626000E+03	8.974377E-15	1.375454E-17
2.627000E+03	8.923034E-15	1.367583E-17
2.628000E+03	8.888762E-15	1.362329E-17
2.629000E+03	8.872271E-15	1.359800E-17
2.630000E+03	8.871429E-15	1.359669E-17
2.631000E+03	8.877698E-15	1.360628E-17
2.632000E+03	8.890128E-15	1.362531E-17
2.633000E+03	8.907416E-15	1.365179E-17
2.634000E+03	8.926953E-15	1.368172E-17
2.635000E+03	8.949569E-15	1.371637E-17
2.636000E+03	8.979175E-15	1.376173E-17
2.637000E+03	9.014586E-15	1.381598E-17
2.638000E+03	9.055209E-15	1.387823E-17
2.639000E+03	9.101517E-15	1.394918E-17
2.640000E+03	9.154579E-15	1.403049E-17
2.641000E+03	9.214746E-15	1.412269E-17
2.642000E+03	9.280124E-15	1.422288E-17
2.643000E+03	9.341704E-15	1.431724E-17
2.644000E+03	9.391661E-15	1.439379E-17
2.645000E+03	9.428814E-15	1.445072E-17
2.646000E+03	9.455649E-15	1.449183E-17
2.647000E+03	9.476199E-15	1.452332E-17
2.648000E+03	9.489515E-15	1.454371E-17
2.649000E+03	9.493345E-15	1.454957E-17
2.650000E+03	9.491839E-15	1.454725E-17
2.651000E+03	9.486300E-15	1.453875E-17
2.652000E+03	9.478151E-15	1.452625E-17
2.653000E+03	9.477820E-15	1.452573E-17
2.654000E+03	9.490165E-15	1.454464E-17
2.655000E+03	9.517911E-15	1.458716E-17
