#wls	flux	fluxerr
1.600000E+03	9.751853E-16	7.512819E-18
1.640000E+03	1.040030E-15	8.012379E-18
1.680000E+03	1.102143E-15	8.490898E-18
1.720000E+03	1.160420E-15	8.939865E-18
1.760000E+03	1.211716E-15	9.335049E-18
1.800000E+03	1.255061E-15	9.668975E-18
1.840000E+03	1.290651E-15	9.943154E-18
1.880000E+03	1.318616E-15	1.015860E-17
1.920000E+03	1.343429E-15	1.034976E-17
1.960000E+03	1.369746E-15	1.055250E-17
2.000000E+03	1.404597E-15	1.082099E-17
2.040000E+03	1.453677E-15	1.119910E-17
2.080000E+03	1.521113E-15	1.171863E-17
2.120000E+03	1.607509E-15	1.238422E-17
2.160000E+03	1.709679E-15	1.317134E-17
2.200000E+03	1.815693E-15	1.398806E-17
2.240000E+03	1.909413E-15	1.471008E-17
2.280000E+03	1.980375E-15	1.525676E-17
2.320000E+03	2.039209E-15	1.571002E-17
2.360000E+03	2.111792E-15	1.626919E-17
2.400000E+03	2.219564E-15	1.709946E-17
2.440000E+03	2.363560E-15	1.820881E-17
2.480000E+03	2.528439E-15	1.947902E-17
2.520000E+03	2.686225E-15	2.069460E-17
2.560000E+03	2.811898E-15	2.166278E-17
2.600000E+03	2.896743E-15	2.231643E-17
2.640000E+03	2.957562E-15	2.278497E-17
2.680000E+03	3.018037E-15	2.325087E-17
2.720000E+03	3.092629E-15	2.382552E-17
2.760000E+03	3.184976E-15	2.453695E-17
2.800000E+03	3.271288E-15	2.520190E-17
2.840000E+03	3.310880E-15	2.550691E-17
2.880000E+03	3.259593E-15	2.511179E-17
2.920000E+03	3.103959E-15	2.391280E-17
2.960000E+03	2.872933E-15	2.213297E-17
3.000000E+03	2.626932E-15	2.023779E-17
3.010000E+03	2.571144E-15	1.980800E-17
3.020000E+03	2.519352E-15	1.940900E-17
3.030000E+03	2.472779E-15	1.905020E-17
3.040000E+03	2.431523E-15	1.873237E-17
3.050000E+03	2.396552E-15	1.846295E-17
3.060000E+03	2.368213E-15	1.824462E-17
3.070000E+03	2.346286E-15	1.807570E-17
3.080000E+03	2.331779E-15	1.796394E-17
3.090000E+03	2.323809E-15	1.790254E-17
3.100000E+03	2.323130E-15	1.789731E-17
3.110000E+03	2.329104E-15	1.794333E-17
3.120000E+03	2.341851E-15	1.804153E-17
3.130000E+03	2.360991E-15	1.818899E-17
3.140000E+03	2.385688E-15	1.837925E-17
3.150000E+03	2.416270E-15	1.861485E-17
3.160000E+03	2.451421E-15	1.888566E-17
3.170000E+03	2.491823E-15	1.919691E-17
3.180000E+03	2.535752E-15	1.953534E-17
3.190000E+03	2.583913E-15	1.990637E-17
3.200000E+03	2.635447E-15	2.030339E-17
3.210000E+03	2.689951E-15	2.072328E-17
3.220000E+03	2.747486E-15	2.116653E-17
3.230000E+03	2.807384E-15	2.162797E-17
3.240000E+03	2.870257E-15	2.211235E-17
3.250000E+03	2.935591E-15	2.261568E-17
3.260000E+03	3.003335E-15	2.313757E-17
3.270000E+03	3.073894E-15	2.368116E-17
3.280000E+03	3.147302E-15	2.424669E-17
3.290000E+03	3.223997E-15	2.483755E-17
3.300000E+03	3.303577E-15	2.545063E-17
3.310000E+03	3.386372E-15	2.608848E-17
3.320000E+03	3.472189E-15	2.674960E-17
3.330000E+03	3.561072E-15	2.743436E-17
3.340000E+03	3.652034E-15	2.813512E-17
3.350000E+03	3.745043E-15	2.885166E-17
3.360000E+03	3.838557E-15	2.957209E-17
3.360459E+03	3.634418E-15	2.799941E-17
3.364541E+03	3.678088E-15	2.833584E-17
3.368622E+03	3.745901E-15	2.885827E-17
3.372704E+03	3.817852E-15	2.941258E-17
3.376785E+03	3.892029E-15	2.998403E-17
3.380867E+03	3.958075E-15	3.049285E-17
3.384948E+03	4.020913E-15	3.097695E-17
3.389030E+03	4.072598E-15	3.137512E-17
3.393111E+03	4.120772E-15	3.174626E-17
3.397193E+03	4.165333E-15	3.208955E-17
3.401274E+03	4.212017E-15	3.244921E-17
3.405356E+03	4.255390E-15	3.278335E-17
3.409437E+03	4.307731E-15	3.318658E-17
3.413519E+03	4.347702E-15	3.349452E-17
3.417600E+03	4.378318E-15	3.373038E-17
3.421682E+03	4.396558E-15	3.387090E-17
3.425763E+03	4.407250E-15	3.395328E-17
3.429845E+03	4.404753E-15	3.393403E-17
3.433926E+03	4.393495E-15	3.384731E-17
3.438008E+03	4.376092E-15	3.371323E-17
3.442089E+03	4.373093E-15	3.369013E-17
3.446171E+03	4.382788E-15	3.376482E-17
3.450252E+03	4.391177E-15	3.382944E-17
3.454334E+03	4.405715E-15	3.394145E-17
3.458416E+03	4.427816E-15	3.411171E-17
3.462497E+03	4.457884E-15	3.434335E-17
3.466579E+03	4.489674E-15	3.458826E-17
3.470660E+03	4.524192E-15	3.485419E-17
3.474742E+03	4.569205E-15	3.520096E-17
3.478823E+03	4.615538E-15	3.555791E-17
3.482905E+03	4.657244E-15	3.587921E-17
3.486986E+03	4.704708E-15	3.624487E-17
3.491068E+03	4.739578E-15	3.651351E-17
3.495149E+03	4.777279E-15	3.680395E-17
3.499231E+03	4.807928E-15	3.704007E-17
3.503312E+03	4.846153E-15	3.733456E-17
3.507394E+03	4.881965E-15	3.761045E-17
3.511475E+03	4.929693E-15	3.797815E-17
3.515557E+03	4.989744E-15	3.844078E-17
3.519638E+03	5.042644E-15	3.884832E-17
3.523720E+03	5.083041E-15	3.915953E-17
3.527801E+03	5.107801E-15	3.935028E-17
3.531883E+03	5.121159E-15	3.945319E-17
3.535964E+03	5.114834E-15	3.940446E-17
3.540046E+03	5.106387E-15	3.933939E-17
3.544127E+03	5.087741E-15	3.919573E-17
3.548209E+03	5.070204E-15	3.906063E-17
3.552291E+03	5.058220E-15	3.896831E-17
3.556372E+03	5.061390E-15	3.899273E-17
3.560454E+03	5.052942E-15	3.892765E-17
3.564535E+03	5.044697E-15	3.886413E-17
3.568617E+03	5.040697E-15	3.883331E-17
3.572698E+03	5.025883E-15	3.871918E-17
3.576780E+03	4.997624E-15	3.850148E-17
3.580861E+03	4.959051E-15	3.820431E-17
3.584943E+03	4.912988E-15	3.784945E-17
3.589024E+03	4.870760E-15	3.752413E-17
3.593106E+03	4.849659E-15	3.736156E-17
3.597187E+03	4.827746E-15	3.719275E-17
3.601269E+03	4.825453E-15	3.717508E-17
3.605350E+03	4.833579E-15	3.723768E-17
3.609432E+03	4.849095E-15	3.735722E-17
3.613513E+03	4.875341E-15	3.755942E-17
3.617595E+03	4.914042E-15	3.785756E-17
3.621676E+03	4.971172E-15	3.829769E-17
3.625758E+03	5.041171E-15	3.883696E-17
3.629839E+03	5.113415E-15	3.939352E-17
3.633921E+03	5.196510E-15	4.003368E-17
3.638002E+03	5.269703E-15	4.059756E-17
3.642084E+03	5.342815E-15	4.116081E-17
3.646165E+03	5.410881E-15	4.168519E-17
3.650247E+03	5.491018E-15	4.230256E-17
3.654329E+03	5.562058E-15	4.284985E-17
3.658410E+03	5.624810E-15	4.333329E-17
3.662492E+03	5.663871E-15	4.363421E-17
3.666573E+03	5.689160E-15	4.382903E-17
3.670655E+03	5.685473E-15	4.380063E-17
3.674736E+03	5.663745E-15	4.363324E-17
3.678818E+03	5.634817E-15	4.341038E-17
3.682899E+03	5.606999E-15	4.319607E-17
3.686981E+03	5.589214E-15	4.305905E-17
3.691062E+03	5.570817E-15	4.291733E-17
3.695144E+03	5.552215E-15	4.277401E-17
3.699225E+03	5.537768E-15	4.266272E-17
3.703307E+03	5.529000E-15	4.259517E-17
3.707388E+03	5.515361E-15	4.249010E-17
3.711470E+03	5.496444E-15	4.234436E-17
3.715551E+03	5.474073E-15	4.217201E-17
3.719633E+03	5.425515E-15	4.179792E-17
3.723714E+03	5.378771E-15	4.143781E-17
3.727796E+03	5.320446E-15	4.098847E-17
3.731877E+03	5.256727E-15	4.049759E-17
3.735959E+03	5.191774E-15	3.999719E-17
3.740040E+03	5.131884E-15	3.953580E-17
3.744122E+03	5.070050E-15	3.905944E-17
3.748203E+03	5.011147E-15	3.860565E-17
3.752285E+03	4.954060E-15	3.816586E-17
3.756367E+03	4.902344E-15	3.776744E-17
3.760448E+03	4.868399E-15	3.750592E-17
3.764530E+03	4.861376E-15	3.745182E-17
3.768611E+03	4.878136E-15	3.758094E-17
3.772693E+03	4.899678E-15	3.774690E-17
3.776774E+03	4.925903E-15	3.794893E-17
3.780856E+03	4.954065E-15	3.816589E-17
3.784937E+03	4.987727E-15	3.842522E-17
3.789019E+03	5.030856E-15	3.875748E-17
3.793100E+03	5.085388E-15	3.917760E-17
3.797182E+03	5.146138E-15	3.964561E-17
3.801263E+03	5.203038E-15	4.008397E-17
3.805345E+03	5.251812E-15	4.045972E-17
3.809426E+03	5.278414E-15	4.066466E-17
3.813508E+03	5.290062E-15	4.075439E-17
3.817589E+03	5.276773E-15	4.065202E-17
3.821671E+03	5.254422E-15	4.047983E-17
3.825752E+03	5.236544E-15	4.034210E-17
3.829834E+03	5.228641E-15	4.028121E-17
3.833915E+03	5.233976E-15	4.032231E-17
3.837997E+03	5.249396E-15	4.044110E-17
3.842078E+03	5.265022E-15	4.056149E-17
3.846160E+03	5.286459E-15	4.072664E-17
3.850242E+03	5.304336E-15	4.086436E-17
3.854323E+03	5.325477E-15	4.102723E-17
3.858405E+03	5.346419E-15	4.118856E-17
3.862486E+03	5.369915E-15	4.136958E-17
3.866568E+03	5.383018E-15	4.147052E-17
3.870649E+03	5.401832E-15	4.161547E-17
3.874731E+03	5.409639E-15	4.167561E-17
3.878812E+03	5.408779E-15	4.166898E-17
3.882894E+03	5.405470E-15	4.164349E-17
3.886975E+03	5.397876E-15	4.158498E-17
3.891057E+03	5.388341E-15	4.151152E-17
3.895138E+03	5.370947E-15	4.137752E-17
3.899220E+03	5.357935E-15	4.127728E-17
3.903301E+03	5.362778E-15	4.131459E-17
3.907383E+03	5.396099E-15	4.157129E-17
3.911464E+03	5.457091E-15	4.204117E-17
3.915546E+03	5.534636E-15	4.263857E-17
3.919627E+03	5.619142E-15	4.328961E-17
3.923709E+03	5.710918E-15	4.399664E-17
3.927790E+03	5.790664E-15	4.461101E-17
3.931872E+03	5.858579E-15	4.513422E-17
3.935953E+03	5.924570E-15	4.564261E-17
3.940035E+03	5.994559E-15	4.618180E-17
3.944116E+03	6.061703E-15	4.669907E-17
3.948198E+03	6.129475E-15	4.722119E-17
3.952280E+03	6.189902E-15	4.768671E-17
3.956361E+03	6.232865E-15	4.801769E-17
3.960443E+03	6.254775E-15	4.818649E-17
3.964524E+03	6.257061E-15	4.820410E-17
3.968606E+03	6.247993E-15	4.813424E-17
3.972687E+03	6.227776E-15	4.797849E-17
3.976769E+03	6.201722E-15	4.777777E-17
3.980850E+03	6.170955E-15	4.754074E-17
3.984932E+03	6.136289E-15	4.727368E-17
3.989013E+03	6.098955E-15	4.698606E-17
3.993095E+03	6.063861E-15	4.671569E-17
3.997176E+03	6.036943E-15	4.650832E-17
4.001258E+03	6.032227E-15	4.647199E-17
4.005339E+03	6.045625E-15	4.657521E-17
4.009421E+03	6.070593E-15	4.676756E-17
4.013502E+03	6.099864E-15	4.699306E-17
4.017584E+03	6.134260E-15	4.725805E-17
4.021665E+03	6.169891E-15	4.753254E-17
4.025747E+03	6.205731E-15	4.780866E-17
4.029828E+03	6.244754E-15	4.810928E-17
4.033910E+03	6.280812E-15	4.838707E-17
4.037991E+03	6.316363E-15	4.866096E-17
4.042073E+03	6.344848E-15	4.888041E-17
4.046154E+03	6.375387E-15	4.911568E-17
4.050236E+03	6.411772E-15	4.939598E-17
4.054318E+03	6.466510E-15	4.981768E-17
4.058399E+03	6.516850E-15	5.020550E-17
4.062481E+03	6.555714E-15	5.050491E-17
4.066562E+03	6.575205E-15	5.065506E-17
4.070644E+03	6.579621E-15	5.068908E-17
4.074725E+03	6.569984E-15	5.061484E-17
4.078807E+03	6.552649E-15	5.048129E-17
4.082888E+03	6.547823E-15	5.044411E-17
4.086970E+03	6.553251E-15	5.048593E-17
4.091051E+03	6.558882E-15	5.052931E-17
4.095133E+03	6.571795E-15	5.062879E-17
4.099214E+03	6.588198E-15	5.075515E-17
4.103296E+03	6.606036E-15	5.089258E-17
4.107377E+03	6.619974E-15	5.099996E-17
4.111459E+03	6.634118E-15	5.110892E-17
4.115540E+03	6.654521E-15	5.126611E-17
4.119622E+03	6.680881E-15	5.146918E-17
4.123703E+03	6.712069E-15	5.170945E-17
4.127785E+03	6.740178E-15	5.192600E-17
4.131866E+03	6.767158E-15	5.213386E-17
4.135948E+03	6.781402E-15	5.224359E-17
4.140029E+03	6.780748E-15	5.223855E-17
4.144111E+03	6.772898E-15	5.217807E-17
4.148193E+03	6.750245E-15	5.200356E-17
4.152274E+03	6.717512E-15	5.175138E-17
4.156355E+03	6.673257E-15	5.141045E-17
4.160437E+03	6.627551E-15	5.105833E-17
4.164519E+03	6.573402E-15	5.064117E-17
4.168600E+03	6.517797E-15	5.021279E-17
4.172682E+03	6.458682E-15	4.975737E-17
4.176763E+03	6.397084E-15	4.928282E-17
4.180845E+03	6.335572E-15	4.880893E-17
4.184926E+03	6.278260E-15	4.836740E-17
4.189008E+03	6.220726E-15	4.792417E-17
4.193089E+03	6.165955E-15	4.750222E-17
4.197171E+03	6.117547E-15	4.712928E-17
4.201252E+03	6.075709E-15	4.680696E-17
4.205334E+03	6.024805E-15	4.641480E-17
4.209415E+03	5.963597E-15	4.594326E-17
4.213497E+03	5.895788E-15	4.542086E-17
4.217578E+03	5.837224E-15	4.496968E-17
4.221660E+03	5.783791E-15	4.455804E-17
4.225741E+03	5.738888E-15	4.421210E-17
4.229823E+03	5.694692E-15	4.387163E-17
4.233904E+03	5.655117E-15	4.356674E-17
4.237986E+03	5.613677E-15	4.324749E-17
4.242067E+03	5.576446E-15	4.296066E-17
4.246149E+03	5.544250E-15	4.271263E-17
4.250230E+03	5.525329E-15	4.256686E-17
4.254312E+03	5.511034E-15	4.245673E-17
4.258394E+03	5.503221E-15	4.239654E-17
4.262475E+03	5.500139E-15	4.237280E-17
4.266556E+03	5.507456E-15	4.242917E-17
4.270638E+03	5.523114E-15	4.254979E-17
4.274720E+03	5.546598E-15	4.273072E-17
4.278801E+03	5.574820E-15	4.294814E-17
4.282883E+03	5.592634E-15	4.308537E-17
4.286964E+03	5.607146E-15	4.319717E-17
4.291046E+03	5.628354E-15	4.336056E-17
4.295127E+03	5.641931E-15	4.346515E-17
4.299209E+03	5.629221E-15	4.336723E-17
4.303290E+03	5.560943E-15	4.284122E-17
4.307372E+03	5.454302E-15	4.201967E-17
4.311453E+03	5.343311E-15	4.116460E-17
4.315535E+03	5.240135E-15	4.036974E-17
4.319616E+03	5.153645E-15	3.970342E-17
4.323698E+03	5.087760E-15	3.919585E-17
4.327779E+03	5.043620E-15	3.885579E-17
4.331861E+03	5.029270E-15	3.874525E-17
4.335942E+03	5.036056E-15	3.879753E-17
4.340024E+03	5.062742E-15	3.900311E-17
4.344105E+03	5.102008E-15	3.930561E-17
4.348187E+03	5.157260E-15	3.973127E-17
4.352269E+03	5.228191E-15	4.027772E-17
4.356350E+03	5.308819E-15	4.089888E-17
4.360431E+03	5.395433E-15	4.156614E-17
4.364513E+03	5.483286E-15	4.224296E-17
4.368595E+03	5.572276E-15	4.292854E-17
4.372676E+03	5.659410E-15	4.359981E-17
4.376758E+03	5.729107E-15	4.413675E-17
4.380839E+03	5.785904E-15	4.457431E-17
4.384921E+03	5.824331E-15	4.487035E-17
4.389002E+03	5.852331E-15	4.508606E-17
4.393084E+03	5.873928E-15	4.525244E-17
4.397165E+03	5.885817E-15	4.534404E-17
4.401247E+03	5.888721E-15	4.536641E-17
4.405328E+03	5.879644E-15	4.529648E-17
4.409410E+03	5.851982E-15	4.508337E-17
4.413491E+03	5.820388E-15	4.483997E-17
4.417573E+03	5.788165E-15	4.459173E-17
4.421654E+03	5.770384E-15	4.445474E-17
4.425736E+03	5.763434E-15	4.440120E-17
4.429817E+03	5.774955E-15	4.448996E-17
4.433899E+03	5.820743E-15	4.484270E-17
4.437980E+03	5.900490E-15	4.545708E-17
4.442062E+03	5.991591E-15	4.615891E-17
4.446144E+03	6.062660E-15	4.670642E-17
4.450225E+03	6.098312E-15	4.698108E-17
4.454306E+03	6.117645E-15	4.713003E-17
4.458388E+03	6.139656E-15	4.729959E-17
4.462470E+03	6.158667E-15	4.744605E-17
4.466551E+03	6.173746E-15	4.756222E-17
4.470633E+03	6.183862E-15	4.764016E-17
4.474714E+03	6.194487E-15	4.772201E-17
4.478796E+03	6.208719E-15	4.783165E-17
4.482877E+03	6.225319E-15	4.795953E-17
4.486959E+03	6.240982E-15	4.808021E-17
4.491040E+03	6.257258E-15	4.820559E-17
4.495122E+03	6.281580E-15	4.839297E-17
4.499203E+03	6.308373E-15	4.859938E-17
4.503285E+03	6.334438E-15	4.880018E-17
4.507366E+03	6.360597E-15	4.900171E-17
4.511448E+03	6.386129E-15	4.919841E-17
4.515529E+03	6.414442E-15	4.941653E-17
4.519611E+03	6.438513E-15	4.960197E-17
4.523692E+03	6.452663E-15	4.971099E-17
4.527774E+03	6.461126E-15	4.977618E-17
4.531855E+03	6.465760E-15	4.981188E-17
4.535937E+03	6.469664E-15	4.984196E-17
4.540018E+03	6.464989E-15	4.980594E-17
4.544100E+03	6.447708E-15	4.967281E-17
4.548181E+03	6.419061E-15	4.945211E-17
4.552263E+03	6.381320E-15	4.916136E-17
4.556345E+03	6.338924E-15	4.883474E-17
4.560426E+03	6.301272E-15	4.854467E-17
4.564507E+03	6.268157E-15	4.828955E-17
4.568589E+03	6.247218E-15	4.812825E-17
4.572671E+03	6.223692E-15	4.794700E-17
4.576752E+03	6.208418E-15	4.782933E-17
4.580834E+03	6.200882E-15	4.777127E-17
4.584915E+03	6.201909E-15	4.777918E-17
4.588997E+03	6.212530E-15	4.786101E-17
4.593078E+03	6.223968E-15	4.794913E-17
4.597160E+03	6.245311E-15	4.811355E-17
4.601241E+03	6.266438E-15	4.827631E-17
4.605323E+03	6.291067E-15	4.846605E-17
4.609404E+03	6.320436E-15	4.869231E-17
4.613486E+03	6.345254E-15	4.888350E-17
4.617567E+03	6.366965E-15	4.905077E-17
4.621649E+03	6.384023E-15	4.918218E-17
4.625730E+03	6.398181E-15	4.929125E-17
4.629812E+03	6.404899E-15	4.934300E-17
4.633893E+03	6.396642E-15	4.927939E-17
4.637975E+03	6.382494E-15	4.917040E-17
4.642056E+03	6.354922E-15	4.895798E-17
4.646138E+03	6.313618E-15	4.863978E-17
4.650220E+03	6.256002E-15	4.819591E-17
4.654301E+03	6.188270E-15	4.767411E-17
4.658382E+03	6.114860E-15	4.710856E-17
4.662464E+03	6.038869E-15	4.652313E-17
4.666546E+03	5.961845E-15	4.592974E-17
4.670627E+03	5.887811E-15	4.535939E-17
4.674709E+03	5.826779E-15	4.488920E-17
4.678790E+03	5.770180E-15	4.445316E-17
4.682872E+03	5.719151E-15	4.406004E-17
4.686953E+03	5.668738E-15	4.367166E-17
4.691035E+03	5.615332E-15	4.326022E-17
4.695116E+03	5.556147E-15	4.280427E-17
4.699198E+03	5.493765E-15	4.232367E-17
4.703279E+03	5.432620E-15	4.185262E-17
4.707361E+03	5.374980E-15	4.140856E-17
4.711442E+03	5.319095E-15	4.097802E-17
4.715524E+03	5.268571E-15	4.058879E-17
4.719605E+03	5.220210E-15	4.021623E-17
4.723687E+03	5.175769E-15	3.987385E-17
4.727768E+03	5.133182E-15	3.954576E-17
4.731850E+03	5.097811E-15	3.927327E-17
4.735931E+03	5.059447E-15	3.897772E-17
4.740013E+03	5.013248E-15	3.862180E-17
4.744095E+03	4.969626E-15	3.828573E-17
4.748176E+03	4.920952E-15	3.791075E-17
4.752257E+03	4.868362E-15	3.750560E-17
4.756339E+03	4.817421E-15	3.711316E-17
4.760421E+03	4.772460E-15	3.676678E-17
4.764502E+03	4.733783E-15	3.646882E-17
4.768584E+03	4.711181E-15	3.629469E-17
4.772665E+03	4.711036E-15	3.629357E-17
4.776747E+03	4.729944E-15	3.643924E-17
4.780828E+03	4.763368E-15	3.669674E-17
4.784910E+03	4.810378E-15	3.705890E-17
4.788991E+03	4.856961E-15	3.741777E-17
4.793073E+03	4.906929E-15	3.780272E-17
4.797154E+03	4.953588E-15	3.816218E-17
4.801236E+03	5.000953E-15	3.852708E-17
4.805317E+03	5.050465E-15	3.890852E-17
4.809399E+03	5.104905E-15	3.932791E-17
4.813480E+03	5.172505E-15	3.984870E-17
4.817562E+03	5.237719E-15	4.035111E-17
4.821643E+03	5.255670E-15	4.048940E-17
4.825725E+03	5.196629E-15	4.003455E-17
4.829806E+03	5.099207E-15	3.928402E-17
4.833888E+03	5.012086E-15	3.861284E-17
4.837969E+03	4.960162E-15	3.821282E-17
4.842051E+03	4.944558E-15	3.809261E-17
4.846132E+03	4.958165E-15	3.819744E-17
4.850214E+03	5.005500E-15	3.856210E-17
4.854296E+03	5.079764E-15	3.913423E-17
4.858377E+03	5.176838E-15	3.988208E-17
4.862458E+03	5.291466E-15	4.076517E-17
4.866540E+03	5.419018E-15	4.174783E-17
4.870622E+03	5.556406E-15	4.280625E-17
4.874703E+03	5.707736E-15	4.397209E-17
4.878785E+03	5.863033E-15	4.516849E-17
4.882866E+03	6.010477E-15	4.630440E-17
4.886948E+03	6.138047E-15	4.728719E-17
4.891029E+03	6.240817E-15	4.807892E-17
4.895111E+03	6.324345E-15	4.872241E-17
4.899192E+03	6.377949E-15	4.913538E-17
4.903274E+03	6.412531E-15	4.940180E-17
4.907355E+03	6.414951E-15	4.942044E-17
4.911437E+03	6.386040E-15	4.919771E-17
4.915518E+03	6.330842E-15	4.877247E-17
4.919600E+03	6.253371E-15	4.817564E-17
4.923681E+03	6.165851E-15	4.750139E-17
4.927763E+03	6.060484E-15	4.668965E-17
4.931844E+03	5.945694E-15	4.580531E-17
4.935926E+03	5.823435E-15	4.486343E-17
4.940007E+03	5.704481E-15	4.394701E-17
4.944089E+03	5.600937E-15	4.314932E-17
4.948171E+03	5.532286E-15	4.262044E-17
4.952252E+03	5.504257E-15	4.240450E-17
4.956333E+03	5.532216E-15	4.261989E-17
4.960415E+03	5.601476E-15	4.315347E-17
4.964497E+03	5.668557E-15	4.367026E-17
4.968578E+03	5.691431E-15	4.384648E-17
4.972660E+03	5.664074E-15	4.363572E-17
4.976741E+03	5.624932E-15	4.333418E-17
4.980823E+03	5.589687E-15	4.306265E-17
4.984904E+03	5.551881E-15	4.277139E-17
4.988986E+03	5.515306E-15	4.248962E-17
4.993067E+03	5.484265E-15	4.225048E-17
4.997149E+03	5.461108E-15	4.207209E-17
5.001230E+03	5.441226E-15	4.191891E-17
5.005312E+03	5.427483E-15	4.181303E-17
5.009393E+03	5.417112E-15	4.173314E-17
5.013475E+03	5.404996E-15	4.163980E-17
5.017556E+03	5.396559E-15	4.157480E-17
5.021638E+03	5.397321E-15	4.158067E-17
5.025719E+03	5.398586E-15	4.159041E-17
5.029801E+03	5.396058E-15	4.157094E-17
5.033882E+03	5.383912E-15	4.147737E-17
5.037964E+03	5.364603E-15	4.132861E-17
5.042046E+03	5.347950E-15	4.120032E-17
5.046127E+03	5.323118E-15	4.100901E-17
5.050208E+03	5.305438E-15	4.087281E-17
5.054290E+03	5.281013E-15	4.068464E-17
5.058372E+03	5.256178E-15	4.049331E-17
5.062453E+03	5.232261E-15	4.030906E-17
5.066535E+03	5.209570E-15	4.013425E-17
5.070616E+03	5.191473E-15	3.999482E-17
5.074698E+03	5.169187E-15	3.982314E-17
5.078779E+03	5.148431E-15	3.966324E-17
5.082861E+03	5.125327E-15	3.948524E-17
5.086942E+03	5.097633E-15	3.927189E-17
5.091024E+03	5.069837E-15	3.905775E-17
5.095105E+03	5.048060E-15	3.888998E-17
5.099187E+03	5.023631E-15	3.870178E-17
5.103268E+03	5.012657E-15	3.861724E-17
5.107350E+03	5.008199E-15	3.858290E-17
5.111431E+03	5.015452E-15	3.863877E-17
5.115513E+03	5.034713E-15	3.878716E-17
5.119594E+03	5.058132E-15	3.896758E-17
5.123676E+03	5.084384E-15	3.916982E-17
5.127757E+03	5.099009E-15	3.928249E-17
5.131839E+03	5.093973E-15	3.924369E-17
5.135920E+03	5.085675E-15	3.917976E-17
5.140002E+03	5.080421E-15	3.913929E-17
5.144083E+03	5.082586E-15	3.915597E-17
5.148165E+03	5.090435E-15	3.921643E-17
5.152247E+03	5.104879E-15	3.932771E-17
