#wls	flux	fluxerr
1.600000E+03	1.385316E-16	3.111552E-20
1.640000E+03	1.448862E-16	3.254282E-20
1.680000E+03	1.512849E-16	3.398002E-20
1.720000E+03	1.580179E-16	3.549232E-20
1.760000E+03	1.649481E-16	3.704891E-20
1.800000E+03	1.724610E-16	3.873638E-20
1.840000E+03	1.804872E-16	4.053914E-20
1.880000E+03	1.895076E-16	4.256520E-20
1.920000E+03	1.996363E-16	4.484020E-20
1.960000E+03	2.111157E-16	4.741858E-20
2.000000E+03	2.241541E-16	5.034711E-20
2.040000E+03	2.390455E-16	5.369185E-20
2.080000E+03	2.558144E-16	5.745831E-20
2.120000E+03	2.741167E-16	6.156917E-20
2.160000E+03	2.937239E-16	6.597314E-20
2.200000E+03	3.140572E-16	7.054017E-20
2.240000E+03	3.344891E-16	7.512937E-20
2.280000E+03	3.545391E-16	7.963277E-20
2.320000E+03	3.739670E-16	8.399645E-20
2.360000E+03	3.930316E-16	8.827854E-20
2.400000E+03	4.117028E-16	9.247226E-20
2.440000E+03	4.303228E-16	9.665448E-20
2.480000E+03	4.489342E-16	1.008348E-19
2.520000E+03	4.666532E-16	1.048146E-19
2.560000E+03	4.826727E-16	1.084127E-19
2.600000E+03	4.957379E-16	1.113473E-19
2.640000E+03	5.052859E-16	1.134918E-19
2.680000E+03	5.109534E-16	1.147648E-19
2.720000E+03	5.124193E-16	1.150940E-19
2.760000E+03	5.106415E-16	1.146947E-19
2.800000E+03	5.059502E-16	1.136410E-19
2.840000E+03	4.991536E-16	1.121144E-19
2.880000E+03	4.909243E-16	1.102660E-19
2.920000E+03	4.824650E-16	1.083660E-19
2.960000E+03	4.749068E-16	1.066683E-19
3.000000E+03	4.694447E-16	1.054415E-19
3.010000E+03	4.686241E-16	1.052572E-19
3.020000E+03	4.679673E-16	1.051096E-19
3.030000E+03	4.674868E-16	1.050017E-19
3.040000E+03	4.673379E-16	1.049683E-19
3.050000E+03	4.675242E-16	1.050101E-19
3.060000E+03	4.679086E-16	1.050964E-19
3.070000E+03	4.686363E-16	1.052599E-19
3.080000E+03	4.697071E-16	1.055004E-19
3.090000E+03	4.711199E-16	1.058177E-19
3.100000E+03	4.727398E-16	1.061816E-19
3.110000E+03	4.748283E-16	1.066507E-19
3.120000E+03	4.771172E-16	1.071648E-19
3.130000E+03	4.798574E-16	1.077802E-19
3.140000E+03	4.829096E-16	1.084658E-19
3.150000E+03	4.862624E-16	1.092189E-19
3.160000E+03	4.900258E-16	1.100641E-19
3.170000E+03	4.940597E-16	1.109702E-19
3.180000E+03	4.984677E-16	1.119603E-19
3.190000E+03	5.031093E-16	1.130028E-19
3.200000E+03	5.082003E-16	1.141463E-19
3.210000E+03	5.134795E-16	1.153320E-19
3.220000E+03	5.190402E-16	1.165810E-19
3.230000E+03	5.248559E-16	1.178873E-19
3.240000E+03	5.310126E-16	1.192701E-19
3.250000E+03	5.373674E-16	1.206975E-19
3.260000E+03	5.438927E-16	1.221631E-19
3.270000E+03	5.506717E-16	1.236857E-19
3.280000E+03	5.576753E-16	1.252588E-19
3.290000E+03	5.648760E-16	1.268761E-19
3.300000E+03	5.722484E-16	1.285320E-19
3.310000E+03	5.797696E-16	1.302213E-19
3.320000E+03	5.875258E-16	1.319635E-19
3.330000E+03	5.953944E-16	1.337308E-19
3.340000E+03	6.034679E-16	1.355442E-19
3.350000E+03	6.117377E-16	1.374016E-19
3.360000E+03	6.202008E-16	1.393025E-19
3.366015E+03	5.160319E-16	1.159053E-19
3.370087E+03	5.281020E-16	1.186163E-19
3.374159E+03	5.474520E-16	1.229625E-19
3.378231E+03	5.706501E-16	1.281730E-19
3.382302E+03	5.951773E-16	1.336820E-19
3.386374E+03	6.165109E-16	1.384737E-19
3.390446E+03	6.280058E-16	1.410556E-19
3.394518E+03	6.402148E-16	1.437978E-19
3.398590E+03	6.525131E-16	1.465601E-19
3.402662E+03	6.660511E-16	1.496009E-19
3.406733E+03	6.810371E-16	1.529669E-19
3.410805E+03	6.939008E-16	1.558562E-19
3.414877E+03	7.040270E-16	1.581306E-19
3.418949E+03	7.068636E-16	1.587677E-19
3.423021E+03	7.022318E-16	1.577274E-19
3.427092E+03	6.987010E-16	1.569343E-19
3.431164E+03	6.906477E-16	1.551255E-19
3.435236E+03	6.792024E-16	1.525548E-19
3.439308E+03	6.702365E-16	1.505410E-19
3.443379E+03	6.603284E-16	1.483155E-19
3.447451E+03	6.472070E-16	1.453683E-19
3.451523E+03	6.351368E-16	1.426572E-19
3.455595E+03	6.301977E-16	1.415479E-19
3.459667E+03	6.262801E-16	1.406680E-19
3.463738E+03	6.232849E-16	1.399952E-19
3.467810E+03	6.199326E-16	1.392422E-19
3.471882E+03	6.180878E-16	1.388279E-19
3.475954E+03	6.248221E-16	1.403405E-19
3.480026E+03	6.358113E-16	1.428087E-19
3.484097E+03	6.511345E-16	1.462505E-19
3.488169E+03	6.639089E-16	1.491197E-19
3.492241E+03	6.768717E-16	1.520312E-19
3.496313E+03	6.942877E-16	1.559430E-19
3.500385E+03	7.113069E-16	1.597657E-19
3.504456E+03	7.335330E-16	1.647579E-19
3.508528E+03	7.520499E-16	1.689169E-19
3.512600E+03	7.681764E-16	1.725391E-19
3.516672E+03	7.839460E-16	1.760811E-19
3.520743E+03	8.040200E-16	1.805899E-19
3.524815E+03	8.194921E-16	1.840650E-19
3.528887E+03	8.314433E-16	1.867493E-19
3.532959E+03	8.342401E-16	1.873775E-19
3.537031E+03	8.287158E-16	1.861367E-19
3.541102E+03	8.219219E-16	1.846108E-19
3.545174E+03	8.122520E-16	1.824388E-19
3.549246E+03	8.034051E-16	1.804517E-19
3.553318E+03	7.981585E-16	1.792733E-19
3.557390E+03	7.919003E-16	1.778676E-19
3.561461E+03	7.873282E-16	1.768407E-19
3.565533E+03	7.804649E-16	1.752991E-19
3.569605E+03	7.729570E-16	1.736128E-19
3.573677E+03	7.717272E-16	1.733366E-19
3.577749E+03	7.657764E-16	1.720000E-19
3.581820E+03	7.592107E-16	1.705253E-19
3.585892E+03	7.567015E-16	1.699617E-19
3.589964E+03	7.540434E-16	1.693646E-19
3.594036E+03	7.533987E-16	1.692198E-19
3.598108E+03	7.566717E-16	1.699550E-19
3.602179E+03	7.633267E-16	1.714497E-19
3.606251E+03	7.712511E-16	1.732296E-19
3.610323E+03	7.798401E-16	1.751588E-19
3.614395E+03	7.888257E-16	1.771770E-19
3.618466E+03	8.000034E-16	1.796876E-19
3.622538E+03	8.112205E-16	1.822071E-19
3.626610E+03	8.231320E-16	1.848825E-19
3.630682E+03	8.370966E-16	1.880191E-19
3.634754E+03	8.488989E-16	1.906700E-19
3.638825E+03	8.625361E-16	1.937330E-19
3.642897E+03	8.748741E-16	1.965042E-19
3.646969E+03	8.867558E-16	1.991730E-19
3.651041E+03	9.026146E-16	2.027350E-19
3.655113E+03	9.171544E-16	2.060007E-19
3.659184E+03	9.273996E-16	2.083019E-19
3.663256E+03	9.323389E-16	2.094113E-19
3.667328E+03	9.341538E-16	2.098189E-19
3.671400E+03	9.338959E-16	2.097610E-19
3.675472E+03	9.380912E-16	2.107033E-19
3.679543E+03	9.419989E-16	2.115810E-19
3.683615E+03	9.469678E-16	2.126971E-19
3.687687E+03	9.462636E-16	2.125389E-19
3.691759E+03	9.440718E-16	2.120466E-19
3.695831E+03	9.401541E-16	2.111666E-19
3.699902E+03	9.369111E-16	2.104382E-19
3.703974E+03	9.330132E-16	2.095627E-19
3.708046E+03	9.307222E-16	2.090482E-19
3.712118E+03	9.269434E-16	2.081994E-19
3.716189E+03	9.187711E-16	2.063638E-19
3.720261E+03	9.063934E-16	2.035837E-19
3.724333E+03	8.895725E-16	1.998056E-19
3.728405E+03	8.717598E-16	1.958047E-19
3.732477E+03	8.549786E-16	1.920355E-19
3.736548E+03	8.367296E-16	1.879366E-19
3.740620E+03	8.201468E-16	1.842119E-19
3.744692E+03	8.051111E-16	1.808348E-19
3.748764E+03	7.936360E-16	1.782574E-19
3.752836E+03	7.860290E-16	1.765488E-19
3.756907E+03	7.825477E-16	1.757669E-19
3.760979E+03	7.832717E-16	1.759295E-19
3.765051E+03	7.857513E-16	1.764864E-19
3.769123E+03	7.891234E-16	1.772438E-19
3.773195E+03	7.917516E-16	1.778341E-19
3.777266E+03	7.923666E-16	1.779723E-19
3.781338E+03	7.931401E-16	1.781460E-19
3.785410E+03	7.960362E-16	1.787965E-19
3.789482E+03	8.049029E-16	1.807880E-19
3.793553E+03	8.146522E-16	1.829778E-19
3.797625E+03	8.169631E-16	1.834968E-19
3.801697E+03	8.166656E-16	1.834300E-19
3.805769E+03	8.161597E-16	1.833164E-19
3.809841E+03	8.085725E-16	1.816122E-19
3.813912E+03	7.982479E-16	1.792932E-19
3.817984E+03	7.854736E-16	1.764240E-19
3.822056E+03	7.753077E-16	1.741407E-19
3.826128E+03	7.667782E-16	1.722249E-19
3.830200E+03	7.624639E-16	1.712558E-19
3.834271E+03	7.599348E-16	1.706878E-19
3.838343E+03	7.612737E-16	1.709885E-19
3.842415E+03	7.634953E-16	1.714875E-19
3.846487E+03	7.661831E-16	1.720912E-19
3.850559E+03	7.711322E-16	1.732028E-19
3.854630E+03	7.762895E-16	1.743612E-19
3.858702E+03	7.832023E-16	1.759139E-19
3.862774E+03	7.890539E-16	1.772282E-19
3.866846E+03	7.940823E-16	1.783576E-19
3.870918E+03	7.999637E-16	1.796786E-19
3.874989E+03	8.061724E-16	1.810731E-19
3.879061E+03	8.128174E-16	1.825656E-19
3.883133E+03	8.198095E-16	1.841361E-19
3.887205E+03	8.298565E-16	1.863928E-19
3.891276E+03	8.391397E-16	1.884778E-19
3.895348E+03	8.481948E-16	1.905117E-19
3.899420E+03	8.590749E-16	1.929554E-19
3.903492E+03	8.752312E-16	1.965843E-19
3.907564E+03	8.961383E-16	2.012802E-19
3.911635E+03	9.193662E-16	2.064974E-19
3.915707E+03	9.441016E-16	2.120532E-19
3.919779E+03	9.705429E-16	2.179921E-19
3.923851E+03	9.960615E-16	2.237238E-19
3.927923E+03	1.021551E-15	2.294489E-19
3.931994E+03	1.041189E-15	2.338598E-19
3.936066E+03	1.061818E-15	2.384933E-19
3.940138E+03	1.075802E-15	2.416342E-19
3.944210E+03	1.082943E-15	2.432381E-19
3.948282E+03	1.093853E-15	2.456886E-19
3.952353E+03	1.106548E-15	2.485399E-19
3.956425E+03	1.115970E-15	2.506563E-19
3.960497E+03	1.122120E-15	2.520375E-19
3.964569E+03	1.123409E-15	2.523270E-19
3.968640E+03	1.125789E-15	2.528616E-19
3.972712E+03	1.129756E-15	2.537526E-19
3.976784E+03	1.136302E-15	2.552229E-19
3.980856E+03	1.143641E-15	2.568714E-19
3.984928E+03	1.151278E-15	2.585867E-19
3.988999E+03	1.161295E-15	2.608366E-19
3.993071E+03	1.174585E-15	2.638217E-19
3.997143E+03	1.190752E-15	2.674528E-19
4.001215E+03	1.208703E-15	2.714849E-19
4.005287E+03	1.229730E-15	2.762076E-19
4.009358E+03	1.251549E-15	2.811084E-19
4.013430E+03	1.273269E-15	2.859869E-19
4.017502E+03	1.291915E-15	2.901748E-19
4.021574E+03	1.310561E-15	2.943630E-19
4.025646E+03	1.332380E-15	2.992638E-19
4.029717E+03	1.354299E-15	3.041869E-19
4.033789E+03	1.374134E-15	3.086421E-19
4.037861E+03	1.388020E-15	3.117609E-19
4.041933E+03	1.395260E-15	3.133870E-19
4.046005E+03	1.397542E-15	3.138995E-19
4.050076E+03	1.400814E-15	3.146345E-19
4.054148E+03	1.405476E-15	3.156815E-19
4.058220E+03	1.410733E-15	3.168623E-19
4.062292E+03	1.413806E-15	3.175527E-19
4.066363E+03	1.415691E-15	3.179760E-19
4.070435E+03	1.415393E-15	3.179091E-19
4.074507E+03	1.413311E-15	3.174414E-19
4.078579E+03	1.407856E-15	3.162163E-19
4.082651E+03	1.404286E-15	3.154142E-19
4.086722E+03	1.402897E-15	3.151023E-19
4.090794E+03	1.403294E-15	3.151915E-19
4.094866E+03	1.407955E-15	3.162383E-19
4.098938E+03	1.413806E-15	3.175526E-19
4.103010E+03	1.421245E-15	3.192234E-19
4.107081E+03	1.427196E-15	3.205600E-19
4.111153E+03	1.434833E-15	3.222753E-19
4.115225E+03	1.445544E-15	3.246812E-19
4.119297E+03	1.459033E-15	3.277109E-19
4.123369E+03	1.473414E-15	3.309409E-19
4.127440E+03	1.485514E-15	3.336587E-19
4.131512E+03	1.495829E-15	3.359755E-19
4.135584E+03	1.504854E-15	3.380027E-19
4.139656E+03	1.508920E-15	3.389160E-19
4.143727E+03	1.509614E-15	3.390718E-19
4.147799E+03	1.506936E-15	3.384704E-19
4.151871E+03	1.502076E-15	3.373787E-19
4.155943E+03	1.496522E-15	3.361313E-19
4.160015E+03	1.488489E-15	3.343270E-19
4.164087E+03	1.479861E-15	3.323890E-19
4.168158E+03	1.470538E-15	3.302949E-19
4.172230E+03	1.460817E-15	3.281117E-19
4.176302E+03	1.450206E-15	3.257282E-19
4.180374E+03	1.440188E-15	3.234781E-19
4.184445E+03	1.427692E-15	3.206714E-19
4.188517E+03	1.413113E-15	3.173967E-19
4.192589E+03	1.398732E-15	3.141667E-19
4.196661E+03	1.386235E-15	3.113597E-19
4.200733E+03	1.374631E-15	3.087534E-19
4.204804E+03	1.362927E-15	3.061248E-19
4.208876E+03	1.346563E-15	3.024491E-19
4.212948E+03	1.328016E-15	2.982835E-19
4.217020E+03	1.311155E-15	2.944963E-19
4.221092E+03	1.293700E-15	2.905757E-19
4.225163E+03	1.277633E-15	2.869669E-19
4.229235E+03	1.263054E-15	2.836922E-19
4.233307E+03	1.251747E-15	2.811528E-19
4.237379E+03	1.244309E-15	2.794820E-19
4.241450E+03	1.237663E-15	2.779894E-19
4.245522E+03	1.233597E-15	2.770761E-19
4.249594E+03	1.228836E-15	2.760068E-19
4.253666E+03	1.220704E-15	2.741802E-19
4.257738E+03	1.213860E-15	2.726430E-19
4.261810E+03	1.207414E-15	2.711951E-19
4.265881E+03	1.203347E-15	2.702816E-19
4.269953E+03	1.202752E-15	2.701481E-19
4.274025E+03	1.203050E-15	2.702149E-19
4.278097E+03	1.201364E-15	2.698362E-19
4.282168E+03	1.196504E-15	2.687446E-19
4.286240E+03	1.187875E-15	2.668065E-19
4.290312E+03	1.179742E-15	2.649797E-19
4.294384E+03	1.168138E-15	2.623734E-19
4.298456E+03	1.151674E-15	2.586755E-19
4.302527E+03	1.127177E-15	2.531732E-19
4.306599E+03	1.097027E-15	2.464013E-19
4.310671E+03	1.069256E-15	2.401636E-19
4.314743E+03	1.041486E-15	2.339262E-19
4.318815E+03	1.020163E-15	2.291368E-19
4.322886E+03	1.006972E-15	2.261741E-19
4.326958E+03	1.002509E-15	2.251716E-19
4.331030E+03	1.005682E-15	2.258845E-19
4.335102E+03	1.017682E-15	2.285798E-19
4.339173E+03	1.037618E-15	2.330575E-19
4.343245E+03	1.062810E-15	2.387158E-19
4.347317E+03	1.091175E-15	2.450869E-19
4.351389E+03	1.122615E-15	2.521484E-19
4.355461E+03	1.152270E-15	2.588092E-19
4.359533E+03	1.179346E-15	2.648908E-19
4.363604E+03	1.202852E-15	2.701703E-19
4.367676E+03	1.220109E-15	2.740464E-19
4.371748E+03	1.235184E-15	2.774324E-19
4.375820E+03	1.246093E-15	2.798827E-19
4.379891E+03	1.251549E-15	2.811081E-19
4.383963E+03	1.254623E-15	2.817985E-19
4.388035E+03	1.255516E-15	2.819991E-19
4.392107E+03	1.256309E-15	2.821772E-19
4.396179E+03	1.252044E-15	2.812193E-19
4.400250E+03	1.242919E-15	2.791698E-19
4.404322E+03	1.232010E-15	2.767195E-19
4.408394E+03	1.219414E-15	2.738903E-19
4.412466E+03	1.208802E-15	2.715069E-19
4.416538E+03	1.203347E-15	2.702815E-19
4.420609E+03	1.201165E-15	2.697915E-19
4.424681E+03	1.205430E-15	2.707494E-19
4.428753E+03	1.218621E-15	2.737122E-19
4.432825E+03	1.238853E-15	2.782565E-19
4.436896E+03	1.265731E-15	2.842935E-19
4.440968E+03	1.296675E-15	2.912438E-19
4.445040E+03	1.323454E-15	2.972585E-19
4.449112E+03	1.344777E-15	3.020479E-19
4.453184E+03	1.361638E-15	3.058350E-19
4.457255E+03	1.375920E-15	3.090427E-19
4.461327E+03	1.386532E-15	3.114264E-19
4.465399E+03	1.398533E-15	3.141219E-19
4.469471E+03	1.409343E-15	3.165499E-19
4.473543E+03	1.420253E-15	3.190004E-19
4.477614E+03	1.432155E-15	3.216736E-19
4.481686E+03	1.442469E-15	3.239903E-19
4.485758E+03	1.449610E-15	3.255942E-19
4.489830E+03	1.456950E-15	3.272427E-19
4.493902E+03	1.460322E-15	3.280001E-19
4.497973E+03	1.463099E-15	3.286239E-19
4.502045E+03	1.467363E-15	3.295817E-19
4.506117E+03	1.470834E-15	3.303613E-19
4.510189E+03	1.473611E-15	3.309850E-19
4.514261E+03	1.476190E-15	3.315643E-19
4.518332E+03	1.479661E-15	3.323439E-19
4.522404E+03	1.481744E-15	3.328118E-19
4.526476E+03	1.480851E-15	3.326111E-19
4.530548E+03	1.480356E-15	3.324999E-19
4.534619E+03	1.480157E-15	3.324553E-19
4.538691E+03	1.478868E-15	3.321657E-19
4.542763E+03	1.477579E-15	3.318762E-19
4.546835E+03	1.476190E-15	3.315643E-19
4.550907E+03	1.474504E-15	3.311856E-19
4.554978E+03	1.476190E-15	3.315643E-19
4.559050E+03	1.484720E-15	3.334800E-19
4.563122E+03	1.496621E-15	3.361532E-19
4.567194E+03	1.511894E-15	3.395837E-19
4.571266E+03	1.531433E-15	3.439722E-19
4.575337E+03	1.553153E-15	3.488507E-19
4.579409E+03	1.576758E-15	3.541525E-19
4.583481E+03	1.600859E-15	3.595658E-19
4.587553E+03	1.628133E-15	3.656918E-19
4.591625E+03	1.653225E-15	3.713278E-19
4.595696E+03	1.678219E-15	3.769414E-19
4.599768E+03	1.699344E-15	3.816864E-19
4.603840E+03	1.717890E-15	3.858520E-19
4.607912E+03	1.735644E-15	3.898396E-19
4.611984E+03	1.753397E-15	3.938271E-19
4.616055E+03	1.770357E-15	3.976365E-19
4.620127E+03	1.786325E-15	4.012230E-19
4.624199E+03	1.799912E-15	4.042747E-19
4.628271E+03	1.808442E-15	4.061906E-19
4.632342E+03	1.811813E-15	4.069479E-19
4.636414E+03	1.809533E-15	4.064356E-19
4.640486E+03	1.800309E-15	4.043638E-19
4.644558E+03	1.786126E-15	4.011783E-19
4.648630E+03	1.769365E-15	3.974135E-19
4.652701E+03	1.750918E-15	3.932702E-19
4.656773E+03	1.734454E-15	3.895722E-19
4.660845E+03	1.717990E-15	3.858743E-19
4.664917E+03	1.704600E-15	3.828669E-19
4.668989E+03	1.693393E-15	3.803497E-19
4.673060E+03	1.684467E-15	3.783448E-19
4.677132E+03	1.674747E-15	3.761616E-19
4.681204E+03	1.663738E-15	3.736890E-19
4.685276E+03	1.648961E-15	3.703698E-19
4.689347E+03	1.630315E-15	3.661819E-19
4.693419E+03	1.608892E-15	3.613700E-19
4.697491E+03	1.586081E-15	3.562465E-19
4.701563E+03	1.564757E-15	3.514569E-19
4.705635E+03	1.547500E-15	3.475809E-19
4.709707E+03	1.527367E-15	3.430588E-19
4.713778E+03	1.508323E-15	3.387815E-19
4.717850E+03	1.489083E-15	3.344601E-19
4.721922E+03	1.468949E-15	3.299378E-19
4.725994E+03	1.449510E-15	3.255715E-19
4.730065E+03	1.429277E-15	3.210271E-19
4.734137E+03	1.407359E-15	3.161040E-19
4.738209E+03	1.385043E-15	3.110918E-19
4.742281E+03	1.363125E-15	3.061687E-19
4.746353E+03	1.340511E-15	3.010896E-19
4.750424E+03	1.318890E-15	2.962333E-19
4.754496E+03	1.299947E-15	2.919785E-19
4.758568E+03	1.286657E-15	2.889935E-19
4.762640E+03	1.279814E-15	2.874565E-19
4.766712E+03	1.278624E-15	2.871892E-19
4.770783E+03	1.281401E-15	2.878129E-19
4.774855E+03	1.289136E-15	2.895503E-19
4.778927E+03	1.294493E-15	2.907534E-19
4.782999E+03	1.296376E-15	2.911765E-19
4.787070E+03	1.295484E-15	2.909761E-19
4.791142E+03	1.290327E-15	2.898178E-19
4.795214E+03	1.281598E-15	2.878572E-19
4.799286E+03	1.272970E-15	2.859192E-19
4.803358E+03	1.266226E-15	2.844045E-19
4.807430E+03	1.259581E-15	2.829118E-19
4.811501E+03	1.257994E-15	2.825554E-19
4.815573E+03	1.258490E-15	2.826669E-19
4.819645E+03	1.254821E-15	2.818427E-19
4.823717E+03	1.234488E-15	2.772759E-19
4.827788E+03	1.200371E-15	2.696129E-19
4.831860E+03	1.162384E-15	2.610808E-19
4.835932E+03	1.133126E-15	2.545093E-19
4.840004E+03	1.120035E-15	2.515688E-19
4.844076E+03	1.122911E-15	2.522148E-19
4.848147E+03	1.143342E-15	2.568037E-19
4.852219E+03	1.180832E-15	2.652244E-19
4.856291E+03	1.226455E-15	2.754716E-19
4.860363E+03	1.281400E-15	2.878126E-19
4.864435E+03	1.345073E-15	3.021142E-19
4.868506E+03	1.415689E-15	3.179751E-19
4.872578E+03	1.490074E-15	3.346824E-19
4.876650E+03	1.563070E-15	3.510781E-19
4.880722E+03	1.630413E-15	3.662038E-19
4.884793E+03	1.689524E-15	3.794806E-19
4.888865E+03	1.738122E-15	3.903961E-19
4.892937E+03	1.775314E-15	3.987497E-19
4.897009E+03	1.801597E-15	4.046531E-19
4.901081E+03	1.819449E-15	4.086627E-19
4.905153E+03	1.826788E-15	4.103112E-19
4.909224E+03	1.824904E-15	4.098881E-19
4.913296E+03	1.813498E-15	4.073261E-19
4.917368E+03	1.792671E-15	4.026482E-19
4.921440E+03	1.764504E-15	3.963216E-19
4.925511E+03	1.727014E-15	3.879010E-19
4.929583E+03	1.685260E-15	3.785227E-19
4.933655E+03	1.639538E-15	3.682532E-19
4.937727E+03	1.594807E-15	3.582064E-19
4.941799E+03	1.554144E-15	3.490731E-19
4.945870E+03	1.522406E-15	3.419445E-19
4.949942E+03	1.506140E-15	3.382911E-19
4.954014E+03	1.506934E-15	3.384694E-19
4.958086E+03	1.522604E-15	3.419891E-19
4.962158E+03	1.545218E-15	3.470682E-19
4.966229E+03	1.563863E-15	3.512561E-19
4.970301E+03	1.570012E-15	3.526373E-19
4.974373E+03	1.564755E-15	3.514565E-19
4.978445E+03	1.556822E-15	3.496745E-19
4.982516E+03	1.549284E-15	3.479815E-19
4.986588E+03	1.541151E-15	3.461547E-19
4.990660E+03	1.535498E-15	3.448849E-19
4.994732E+03	1.536886E-15	3.451968E-19
4.998804E+03	1.540655E-15	3.460434E-19
5.002876E+03	1.543234E-15	3.466225E-19
5.006947E+03	1.547399E-15	3.475581E-19
5.011019E+03	1.558012E-15	3.499417E-19
5.015091E+03	1.572293E-15	3.531495E-19
5.019163E+03	1.587666E-15	3.566025E-19
5.023234E+03	1.604129E-15	3.603002E-19
5.027306E+03	1.620197E-15	3.639092E-19
5.031378E+03	1.632594E-15	3.666936E-19
5.035450E+03	1.642413E-15	3.688989E-19
5.039522E+03	1.650248E-15	3.706588E-19
5.043593E+03	1.656398E-15	3.720400E-19
5.047665E+03	1.661356E-15	3.731537E-19
5.051737E+03	1.662051E-15	3.733097E-19
5.055809E+03	1.661158E-15	3.731093E-19
5.059881E+03	1.658380E-15	3.724854E-19
5.063952E+03	1.653422E-15	3.713717E-19
5.068024E+03	1.647372E-15	3.700128E-19
5.072096E+03	1.637751E-15	3.678518E-19
5.076168E+03	1.623966E-15	3.647555E-19
5.080239E+03	1.604824E-15	3.604562E-19
5.084311E+03	1.582707E-15	3.554885E-19
5.088383E+03	1.559102E-15	3.501867E-19
5.092455E+03	1.534506E-15	3.446622E-19
5.096527E+03	1.512389E-15	3.396945E-19
5.100599E+03	1.493247E-15	3.353951E-19
5.104670E+03	1.477180E-15	3.317863E-19
5.108742E+03	1.466171E-15	3.293135E-19
5.112814E+03	1.460220E-15	3.279769E-19
5.116886E+03	1.456451E-15	3.271305E-19
5.120957E+03	1.452682E-15	3.262839E-19
5.125029E+03	1.450004E-15	3.256824E-19
5.129101E+03	1.442963E-15	3.241008E-19
5.133173E+03	1.431657E-15	3.215614E-19
5.137245E+03	1.421243E-15	3.192223E-19
5.141316E+03	1.414597E-15	3.177297E-19
5.145388E+03	1.410630E-15	3.168387E-19
5.149460E+03	1.409539E-15	3.165937E-19
5.153532E+03	1.411225E-15	3.169722E-19
