#wls	flux	fluxerr
1.567091E+03	-1.382627E-18	-2.616569E-19
1.606268E+03	-1.425732E-18	-2.697634E-19
1.645446E+03	-1.459384E-18	-2.760771E-19
1.684623E+03	-1.482723E-18	-2.804367E-19
1.723800E+03	-1.494618E-18	-2.826293E-19
1.762977E+03	-1.492637E-18	-2.821961E-19
1.802155E+03	-1.473519E-18	-2.785228E-19
1.841332E+03	-1.433934E-18	-2.709818E-19
1.880509E+03	-1.371337E-18	-2.590951E-19
1.919687E+03	-1.285561E-18	-2.428340E-19
1.958864E+03	-1.181088E-18	-2.230482E-19
1.998041E+03	-1.069056E-18	-2.018435E-19
2.037218E+03	-9.669278E-19	-1.825172E-19
2.076396E+03	-8.942712E-19	-1.687612E-19
2.115573E+03	-8.666185E-19	-1.635018E-19
2.154750E+03	-8.917383E-19	-1.681981E-19
2.193928E+03	-9.696198E-19	-1.828404E-19
2.233105E+03	-1.094088E-18	-2.062566E-19
2.272282E+03	-1.254866E-18	-2.365023E-19
2.311459E+03	-1.440195E-18	-2.713563E-19
2.350637E+03	-1.639410E-18	-3.088050E-19
2.389814E+03	-1.844453E-18	-3.473285E-19
2.428991E+03	-2.050152E-18	-3.859517E-19
2.468168E+03	-2.253707E-18	-4.241468E-19
2.507346E+03	-2.453957E-18	-4.616952E-19
2.546523E+03	-2.650718E-18	-4.985623E-19
2.585700E+03	-2.844292E-18	-5.348052E-19
2.624878E+03	-3.035133E-18	-5.705090E-19
2.664055E+03	-3.223641E-18	-6.057490E-19
2.703232E+03	-3.410014E-18	-6.405625E-19
2.742409E+03	-3.594154E-18	-6.749310E-19
2.781587E+03	-3.775589E-18	-7.087659E-19
2.820764E+03	-3.953425E-18	-7.418995E-19
2.859941E+03	-4.126285E-18	-7.740740E-19
2.899119E+03	-4.292279E-18	-8.049356E-19
2.938296E+03	-4.448988E-18	-8.340316E-19
2.948090E+03	-4.486381E-18	-8.409675E-19
2.957884E+03	-4.522961E-18	-8.477497E-19
2.967679E+03	-4.558677E-18	-8.543684E-19
2.977473E+03	-4.593586E-18	-8.608345E-19
2.987267E+03	-4.628038E-18	-8.672137E-19
2.997062E+03	-4.662396E-18	-8.735738E-19
3.006856E+03	-4.696470E-18	-8.798795E-19
3.016650E+03	-4.730087E-18	-8.860984E-19
3.026445E+03	-4.763076E-18	-8.921980E-19
3.036239E+03	-4.795346E-18	-8.981620E-19
3.046033E+03	-4.826712E-18	-9.039551E-19
3.055828E+03	-4.857456E-18	-9.096306E-19
3.065622E+03	-4.887371E-18	-9.151497E-19
3.075416E+03	-4.916272E-18	-9.204779E-19
3.085211E+03	-4.943979E-18	-9.255811E-19
3.095005E+03	-4.970327E-18	-9.304290E-19
3.104799E+03	-4.995164E-18	-9.349929E-19
3.114594E+03	-5.018342E-18	-9.392453E-19
3.124388E+03	-5.039732E-18	-9.431622E-19
3.134182E+03	-5.059213E-18	-9.467210E-19
3.143976E+03	-5.076681E-18	-9.499022E-19
3.153771E+03	-5.092038E-18	-9.526877E-19
3.163565E+03	-5.105203E-18	-9.550625E-19
3.173359E+03	-5.116107E-18	-9.570138E-19
3.183154E+03	-5.124692E-18	-9.585307E-19
3.192948E+03	-5.130917E-18	-9.596059E-19
3.202742E+03	-5.134751E-18	-9.602335E-19
3.212537E+03	-5.136179E-18	-9.604110E-19
3.222331E+03	-5.135203E-18	-9.601388E-19
3.232125E+03	-5.131831E-18	-9.594187E-19
3.241920E+03	-5.126096E-18	-9.582568E-19
3.251714E+03	-5.118039E-18	-9.566608E-19
3.261508E+03	-5.107715E-18	-9.546415E-19
3.271303E+03	-5.095198E-18	-9.522125E-19
3.281097E+03	-5.080572E-18	-9.493898E-19
3.290891E+03	-5.063939E-18	-9.461925E-19
3.300686E+03	-5.045414E-18	-9.426423E-19
3.310480E+03	-5.025121E-18	-9.387622E-19
3.320274E+03	-5.003202E-18	-9.345791E-19
3.330069E+03	-4.979806E-18	-9.301209E-19
3.339863E+03	-4.955097E-18	-9.254182E-19
3.349657E+03	-4.929244E-18	-9.205026E-19
3.359452E+03	-4.902428E-18	-9.154080E-19
3.369246E+03	-4.874823E-18	-9.101671E-19
3.379040E+03	-4.846624E-18	-9.048162E-19
3.388834E+03	-4.818009E-18	-8.993887E-19
3.398629E+03	-4.789161E-18	-8.939185E-19
3.408423E+03	-4.760248E-18	-8.884373E-19
3.418217E+03	-4.731425E-18	-8.829738E-19
3.428012E+03	-4.702828E-18	-8.775536E-19
3.437806E+03	-4.674559E-18	-8.721954E-19
3.447600E+03	-4.646688E-18	-8.669126E-19
3.457395E+03	-4.619236E-18	-8.617090E-19
3.467189E+03	-4.592183E-18	-8.565808E-19
3.476983E+03	-4.565437E-18	-8.515108E-19
3.486778E+03	-4.538863E-18	-8.464737E-19
3.496572E+03	-4.512254E-18	-8.414312E-19
3.506366E+03	-4.485366E-18	-8.363375E-19
3.516161E+03	-4.457901E-18	-8.311373E-19
3.525955E+03	-4.429537E-18	-8.257707E-19
3.535749E+03	-4.399931E-18	-8.201734E-19
3.545544E+03	-4.368744E-18	-8.142824E-19
3.555338E+03	-4.335670E-18	-8.080411E-19
3.565132E+03	-4.300469E-18	-8.014046E-19
3.574927E+03	-4.262975E-18	-7.943423E-19
3.584721E+03	-4.223137E-18	-7.868445E-19
3.594515E+03	-4.181025E-18	-7.789245E-19
3.604310E+03	-4.136854E-18	-7.706224E-19
3.614104E+03	-4.090987E-18	-7.620063E-19
3.623898E+03	-4.043947E-18	-7.531734E-19
3.633692E+03	-3.996409E-18	-7.442494E-19
3.643487E+03	-3.949195E-18	-7.353875E-19
3.653281E+03	-3.903249E-18	-7.267635E-19
3.663075E+03	-3.859624E-18	-7.185734E-19
3.672870E+03	-3.819450E-18	-7.110271E-19
3.682664E+03	-3.783906E-18	-7.043444E-19
3.692458E+03	-3.754191E-18	-6.987479E-19
3.702253E+03	-3.731503E-18	-6.944605E-19
3.712047E+03	-3.717020E-18	-6.917007E-19
3.721841E+03	-3.711856E-18	-6.906756E-19
3.731636E+03	-3.717077E-18	-6.915830E-19
3.741430E+03	-3.733661E-18	-6.946044E-19
3.751224E+03	-3.762481E-18	-6.999017E-19
3.761019E+03	-3.804310E-18	-7.076175E-19
3.770813E+03	-3.859771E-18	-7.178677E-19
3.780607E+03	-3.929333E-18	-7.307386E-19
3.790402E+03	-4.013275E-18	-7.462812E-19
3.800196E+03	-4.111643E-18	-7.645036E-19
3.809990E+03	-4.224216E-18	-7.853638E-19
3.819785E+03	-4.350469E-18	-8.087635E-19
3.829579E+03	-4.489518E-18	-8.345379E-19
3.839373E+03	-4.640109E-18	-8.624532E-19
3.849167E+03	-4.800579E-18	-8.922000E-19
3.858962E+03	-4.968877E-18	-9.233963E-19
3.868756E+03	-5.142583E-18	-9.555924E-19
3.878550E+03	-5.318960E-18	-9.882792E-19
3.888345E+03	-5.495061E-18	-1.020909E-18
3.898139E+03	-5.667829E-18	-1.052915E-18
3.907933E+03	-5.834251E-18	-1.083737E-18
3.917728E+03	-5.991497E-18	-1.112849E-18
3.927522E+03	-6.137060E-18	-1.139787E-18
3.937316E+03	-6.268911E-18	-1.164175E-18
3.947111E+03	-6.385582E-18	-1.185740E-18
3.956905E+03	-6.486235E-18	-1.204327E-18
3.966699E+03	-6.570683E-18	-1.219904E-18
3.976494E+03	-6.639379E-18	-1.232554E-18
3.986288E+03	-6.693335E-18	-1.242466E-18
3.996082E+03	-6.734028E-18	-1.249916E-18
4.005877E+03	-6.763297E-18	-1.255245E-18
4.015671E+03	-6.783189E-18	-1.258833E-18
4.025465E+03	-6.795848E-18	-1.261079E-18
4.035260E+03	-6.803386E-18	-1.262376E-18
4.045054E+03	-6.807784E-18	-1.263090E-18
4.054848E+03	-6.810820E-18	-1.263552E-18
4.064643E+03	-6.813990E-18	-1.264039E-18
4.074437E+03	-6.818507E-18	-1.264777E-18
4.084231E+03	-6.825252E-18	-1.265929E-18
4.094025E+03	-6.834784E-18	-1.267599E-18
4.103820E+03	-6.847366E-18	-1.269834E-18
4.113614E+03	-6.862976E-18	-1.272632E-18
4.123408E+03	-6.881335E-18	-1.275940E-18
4.133203E+03	-6.901961E-18	-1.279668E-18
4.142997E+03	-6.924195E-18	-1.283695E-18
4.152791E+03	-6.947255E-18	-1.287875E-18
4.162586E+03	-6.970257E-18	-1.292045E-18
4.172380E+03	-6.992273E-18	-1.296032E-18
4.182174E+03	-7.012351E-18	-1.299660E-18
4.191969E+03	-7.029572E-18	-1.302760E-18
4.201763E+03	-7.043060E-18	-1.305168E-18
4.211557E+03	-7.052042E-18	-1.306742E-18
4.221352E+03	-7.055867E-18	-1.307361E-18
4.231146E+03	-7.054076E-18	-1.306941E-18
4.240940E+03	-7.046405E-18	-1.305432E-18
4.250735E+03	-7.032859E-18	-1.302837E-18
4.260529E+03	-7.013732E-18	-1.299209E-18
4.270323E+03	-6.989645E-18	-1.294664E-18
4.280118E+03	-6.961565E-18	-1.289381E-18
4.289912E+03	-6.930809E-18	-1.283604E-18
4.299706E+03	-6.899010E-18	-1.277636E-18
4.309500E+03	-6.868035E-18	-1.271823E-18
4.319295E+03	-6.839915E-18	-1.266540E-18
4.329089E+03	-6.816761E-18	-1.262178E-18
4.338883E+03	-6.800640E-18	-1.259120E-18
4.348678E+03	-6.793497E-18	-1.257725E-18
4.358472E+03	-6.797007E-18	-1.258304E-18
4.368266E+03	-6.812525E-18	-1.261107E-18
4.378061E+03	-6.840991E-18	-1.266308E-18
4.387855E+03	-6.882903E-18	-1.273997E-18
4.397649E+03	-6.938294E-18	-1.284182E-18
4.407444E+03	-7.006701E-18	-1.296776E-18
4.417238E+03	-7.087190E-18	-1.311606E-18
4.427032E+03	-7.178391E-18	-1.328417E-18
4.436827E+03	-7.278496E-18	-1.346876E-18
4.446621E+03	-7.385361E-18	-1.366585E-18
4.456415E+03	-7.496545E-18	-1.387093E-18
4.466210E+03	-7.609400E-18	-1.407908E-18
4.476004E+03	-7.721168E-18	-1.428523E-18
4.485798E+03	-7.829062E-18	-1.448419E-18
4.495593E+03	-7.930362E-18	-1.467096E-18
4.505387E+03	-8.022493E-18	-1.484076E-18
4.515181E+03	-8.103091E-18	-1.498922E-18
4.524976E+03	-8.170063E-18	-1.511248E-18
4.534770E+03	-8.221623E-18	-1.520723E-18
4.544564E+03	-8.256320E-18	-1.527080E-18
4.554358E+03	-8.273046E-18	-1.530115E-18
4.564153E+03	-8.271069E-18	-1.529691E-18
4.573947E+03	-8.250006E-18	-1.525739E-18
4.583741E+03	-8.209854E-18	-1.518258E-18
4.593536E+03	-8.150985E-18	-1.507318E-18
4.603330E+03	-8.074136E-18	-1.493055E-18
4.613124E+03	-7.980406E-18	-1.475673E-18
4.622919E+03	-7.871246E-18	-1.455440E-18
4.632713E+03	-7.748420E-18	-1.432683E-18
4.642507E+03	-7.613965E-18	-1.407779E-18
4.652302E+03	-7.470148E-18	-1.381146E-18
4.662096E+03	-7.319402E-18	-1.353235E-18
4.671890E+03	-7.164245E-18	-1.324512E-18
4.681685E+03	-7.007234E-18	-1.295448E-18
4.691479E+03	-6.850855E-18	-1.266504E-18
4.701273E+03	-6.697494E-18	-1.238121E-18
4.711068E+03	-6.549336E-18	-1.210702E-18
4.720862E+03	-6.408336E-18	-1.184609E-18
4.730656E+03	-6.276177E-18	-1.160152E-18
4.740451E+03	-6.154233E-18	-1.137585E-18
4.750245E+03	-6.043573E-18	-1.117106E-18
4.760039E+03	-5.944951E-18	-1.098854E-18
4.769833E+03	-5.858800E-18	-1.082909E-18
4.779628E+03	-5.785274E-18	-1.069300E-18
4.789422E+03	-5.724235E-18	-1.057999E-18
4.799216E+03	-5.675276E-18	-1.048933E-18
4.809011E+03	-5.637748E-18	-1.041980E-18
4.818805E+03	-5.610758E-18	-1.036976E-18
4.828599E+03	-5.593232E-18	-1.033723E-18
4.838394E+03	-5.583919E-18	-1.031988E-18
4.848188E+03	-5.581442E-18	-1.031518E-18
4.857982E+03	-5.584386E-18	-1.032051E-18
4.867777E+03	-5.591345E-18	-1.033326E-18
4.877571E+03	-5.601003E-18	-1.035102E-18
4.887365E+03	-5.612236E-18	-1.037169E-18
4.897160E+03	-5.624178E-18	-1.039368E-18
4.906954E+03	-5.636263E-18	-1.041595E-18
4.916748E+03	-5.648277E-18	-1.043810E-18
4.926543E+03	-5.660343E-18	-1.046035E-18
4.936337E+03	-5.672897E-18	-1.048352E-18
4.946131E+03	-5.686627E-18	-1.050886E-18
4.955926E+03	-5.702385E-18	-1.053797E-18
4.965720E+03	-5.721088E-18	-1.057253E-18
4.975514E+03	-5.743640E-18	-1.061421E-18
4.985309E+03	-5.770828E-18	-1.066447E-18
4.995103E+03	-5.803263E-18	-1.072444E-18
5.004897E+03	-5.841331E-18	-1.079483E-18
5.014691E+03	-5.885145E-18	-1.087585E-18
5.024486E+03	-5.934578E-18	-1.096727E-18
5.034280E+03	-5.989249E-18	-1.106837E-18
5.044074E+03	-6.048563E-18	-1.117808E-18
5.053869E+03	-6.111779E-18	-1.129500E-18
5.063663E+03	-6.178027E-18	-1.141755E-18
5.073457E+03	-6.246375E-18	-1.154399E-18
5.083252E+03	-6.315855E-18	-1.167254E-18
5.093046E+03	-6.385516E-18	-1.180144E-18
5.102840E+03	-6.454411E-18	-1.192893E-18
5.112635E+03	-6.521615E-18	-1.205332E-18
5.122429E+03	-6.586221E-18	-1.217293E-18
5.132223E+03	-6.647323E-18	-1.228608E-18
5.142018E+03	-6.704031E-18	-1.239112E-18
5.151812E+03	-6.755439E-18	-1.248639E-18
5.161606E+03	-6.800647E-18	-1.257021E-18
5.171401E+03	-6.838797E-18	-1.264100E-18
5.181195E+03	-6.869068E-18	-1.269725E-18
5.190989E+03	-6.890743E-18	-1.273763E-18
5.200784E+03	-6.903231E-18	-1.276104E-18
5.210578E+03	-6.906111E-18	-1.276670E-18
5.220372E+03	-6.899168E-18	-1.275422E-18
5.230167E+03	-6.882415E-18	-1.272362E-18
5.239961E+03	-6.856095E-18	-1.267535E-18
5.249755E+03	-6.820680E-18	-1.261027E-18
5.259549E+03	-6.776850E-18	-1.252965E-18
5.269344E+03	-6.725476E-18	-1.243509E-18
5.279138E+03	-6.667564E-18	-1.232844E-18
5.288932E+03	-6.604231E-18	-1.221178E-18
5.298727E+03	-6.536636E-18	-1.208725E-18
5.308521E+03	-6.465965E-18	-1.195703E-18
5.318315E+03	-6.393370E-18	-1.182326E-18
5.328110E+03	-6.319942E-18	-1.168796E-18
5.337904E+03	-6.246694E-18	-1.155299E-18
5.347698E+03	-6.174508E-18	-1.141999E-18
5.357493E+03	-6.104152E-18	-1.129037E-18
5.367287E+03	-6.036200E-18	-1.116521E-18
5.377081E+03	-5.970993E-18	-1.104512E-18
5.386876E+03	-5.908588E-18	-1.093022E-18
5.396670E+03	-5.848716E-18	-1.082001E-18
5.406464E+03	-5.790912E-18	-1.071363E-18
5.416259E+03	-5.734618E-18	-1.061004E-18
5.426053E+03	-5.679290E-18	-1.050824E-18
5.435847E+03	-5.624446E-18	-1.040734E-18
5.445642E+03	-5.569723E-18	-1.030667E-18
5.455436E+03	-5.514901E-18	-1.020581E-18
5.465230E+03	-5.459893E-18	-1.010460E-18
5.475024E+03	-5.404786E-18	-1.000321E-18
5.484819E+03	-5.349781E-18	-9.902015E-19
5.494613E+03	-5.295239E-18	-9.801670E-19
5.504407E+03	-5.241599E-18	-9.702994E-19
5.514202E+03	-5.189406E-18	-9.606992E-19
5.523996E+03	-5.139254E-18	-9.514768E-19
5.533790E+03	-5.091787E-18	-9.427512E-19
5.543585E+03	-5.047673E-18	-9.346463E-19
5.553379E+03	-5.007602E-18	-9.272898E-19
5.563173E+03	-4.972277E-18	-9.208122E-19
5.572968E+03	-4.942411E-18	-9.153455E-19
5.582762E+03	-4.918721E-18	-9.110229E-19
5.592556E+03	-4.901927E-18	-9.079776E-19
5.602351E+03	-4.892733E-18	-9.063408E-19
5.612145E+03	-4.891823E-18	-9.062391E-19
5.621939E+03	-4.899836E-18	-9.077914E-19
5.631734E+03	-4.917351E-18	-9.111052E-19
5.641528E+03	-4.944861E-18	-9.162723E-19
5.651322E+03	-4.982749E-18	-9.233641E-19
5.661117E+03	-5.031267E-18	-9.324279E-19
5.670911E+03	-5.090514E-18	-9.434824E-19
5.680705E+03	-5.160415E-18	-9.565139E-19
5.690500E+03	-5.240703E-18	-9.714740E-19
5.700294E+03	-5.330914E-18	-9.882766E-19
5.710088E+03	-5.430372E-18	-1.006797E-18
5.719882E+03	-5.538193E-18	-1.026872E-18
5.729677E+03	-5.653285E-18	-1.048299E-18
5.739471E+03	-5.774370E-18	-1.070842E-18
5.749265E+03	-5.899972E-18	-1.094228E-18
5.759060E+03	-6.028479E-18	-1.118156E-18
5.768854E+03	-6.158150E-18	-1.142306E-18
5.778648E+03	-6.287153E-18	-1.166336E-18
5.788443E+03	-6.413637E-18	-1.189904E-18
5.798237E+03	-6.535756E-18	-1.212667E-18
5.808031E+03	-6.651779E-18	-1.234304E-18
5.817826E+03	-6.760111E-18	-1.254518E-18
5.827620E+03	-6.859360E-18	-1.273050E-18
5.837414E+03	-6.948430E-18	-1.289697E-18
5.847209E+03	-7.026495E-18	-1.304305E-18
5.857003E+03	-7.093077E-18	-1.316785E-18
5.866797E+03	-7.148009E-18	-1.327104E-18
5.876592E+03	-7.191419E-18	-1.335287E-18
5.886386E+03	-7.223715E-18	-1.341408E-18
5.896180E+03	-7.245517E-18	-1.345582E-18
5.905975E+03	-7.257606E-18	-1.347954E-18
5.915769E+03	-7.260859E-18	-1.348685E-18
5.925563E+03	-7.256210E-18	-1.347949E-18
5.935357E+03	-7.244583E-18	-1.345917E-18
5.945152E+03	-7.226870E-18	-1.342754E-18
5.954946E+03	-7.203872E-18	-1.338610E-18
5.964740E+03	-7.176318E-18	-1.333618E-18
5.974535E+03	-7.144818E-18	-1.327892E-18
5.984329E+03	-7.109875E-18	-1.321526E-18
5.994123E+03	-7.071908E-18	-1.314597E-18
6.003918E+03	-7.031247E-18	-1.307167E-18
6.013712E+03	-6.988169E-18	-1.299285E-18
6.023506E+03	-6.942938E-18	-1.291003E-18
6.033301E+03	-6.895805E-18	-1.282365E-18
6.043095E+03	-6.847097E-18	-1.273433E-18
6.052889E+03	-6.797204E-18	-1.264279E-18
6.062684E+03	-6.746655E-18	-1.255002E-18
6.072478E+03	-6.696140E-18	-1.245730E-18
6.082272E+03	-6.646520E-18	-1.236622E-18
6.092067E+03	-6.598842E-18	-1.227875E-18
6.101861E+03	-6.554301E-18	-1.219710E-18
6.111655E+03	-6.514153E-18	-1.212360E-18
6.121450E+03	-6.479611E-18	-1.206054E-18
6.131244E+03	-6.451789E-18	-1.200996E-18
6.141038E+03	-6.431674E-18	-1.197373E-18
6.150833E+03	-6.420169E-18	-1.195353E-18
6.160627E+03	-6.418016E-18	-1.195074E-18
6.170421E+03	-6.425805E-18	-1.196646E-18
6.180215E+03	-6.443887E-18	-1.200136E-18
6.190010E+03	-6.472348E-18	-1.205560E-18
6.199804E+03	-6.511007E-18	-1.212885E-18
6.209598E+03	-6.559396E-18	-1.222024E-18
6.219393E+03	-6.616760E-18	-1.232837E-18
6.229187E+03	-6.682109E-18	-1.245141E-18
6.238981E+03	-6.754222E-18	-1.258708E-18
6.248776E+03	-6.831715E-18	-1.273281E-18
6.258570E+03	-6.913054E-18	-1.288573E-18
6.268364E+03	-6.996653E-18	-1.304290E-18
6.278159E+03	-7.080911E-18	-1.320133E-18
6.287953E+03	-7.164252E-18	-1.335809E-18
6.297747E+03	-7.245238E-18	-1.351049E-18
6.307542E+03	-7.322568E-18	-1.365610E-18
6.317336E+03	-7.395169E-18	-1.379292E-18
6.327130E+03	-7.462221E-18	-1.391942E-18
6.336925E+03	-7.523181E-18	-1.403458E-18
6.346719E+03	-7.577822E-18	-1.413797E-18
6.356513E+03	-7.626231E-18	-1.422976E-18
6.366308E+03	-7.668792E-18	-1.431065E-18
6.376102E+03	-7.706163E-18	-1.438188E-18
6.385896E+03	-7.739248E-18	-1.444512E-18
6.395690E+03	-7.769128E-18	-1.450238E-18
6.405485E+03	-7.797041E-18	-1.455599E-18
6.415279E+03	-7.824271E-18	-1.460833E-18
6.425073E+03	-7.852113E-18	-1.466183E-18
6.434868E+03	-7.881819E-18	-1.471882E-18
6.444662E+03	-7.914484E-18	-1.478134E-18
6.454456E+03	-7.951048E-18	-1.485116E-18
6.464251E+03	-7.992209E-18	-1.492958E-18
6.474045E+03	-8.038388E-18	-1.501739E-18
6.483839E+03	-8.089736E-18	-1.511487E-18
6.493634E+03	-8.146104E-18	-1.522175E-18
6.503428E+03	-8.207057E-18	-1.533722E-18
6.513222E+03	-8.271911E-18	-1.546000E-18
6.523017E+03	-8.339779E-18	-1.558844E-18
6.532811E+03	-8.409608E-18	-1.572057E-18
6.542605E+03	-8.480238E-18	-1.585422E-18
6.552400E+03	-8.550473E-18	-1.598716E-18
6.562194E+03	-8.619139E-18	-1.611719E-18
6.571988E+03	-8.685137E-18	-1.624226E-18
6.581783E+03	-8.747469E-18	-1.636048E-18
6.591577E+03	-8.805316E-18	-1.647035E-18
6.601371E+03	-8.858019E-18	-1.657061E-18
6.611166E+03	-8.905121E-18	-1.666041E-18
6.620960E+03	-8.946366E-18	-1.673926E-18
6.630754E+03	-8.981676E-18	-1.680702E-18
6.640548E+03	-9.011156E-18	-1.686388E-18
6.650343E+03	-9.035091E-18	-1.691038E-18
6.660137E+03	-9.053878E-18	-1.694724E-18
6.669931E+03	-9.068040E-18	-1.697544E-18
6.679726E+03	-9.078176E-18	-1.699612E-18
6.689520E+03	-9.084962E-18	-1.701052E-18
6.699314E+03	-9.089087E-18	-1.701993E-18
6.709109E+03	-9.091254E-18	-1.702568E-18
6.718903E+03	-9.092169E-18	-1.702908E-18
6.728697E+03	-9.092490E-18	-1.703137E-18
6.738492E+03	-9.092855E-18	-1.703373E-18
6.748286E+03	-9.093860E-18	-1.703729E-18
6.758080E+03	-9.096053E-18	-1.704307E-18
6.767875E+03	-9.099929E-18	-1.705201E-18
6.777669E+03	-9.105946E-18	-1.706495E-18
6.787463E+03	-9.114518E-18	-1.708268E-18
6.797258E+03	-9.126021E-18	-1.710590E-18
6.807052E+03	-9.140783E-18	-1.713523E-18
6.816846E+03	-9.159085E-18	-1.717120E-18
6.826641E+03	-9.181150E-18	-1.721423E-18
6.836435E+03	-9.207145E-18	-1.726463E-18
6.846229E+03	-9.237152E-18	-1.732256E-18
6.856024E+03	-9.271163E-18	-1.738801E-18
6.865818E+03	-9.309091E-18	-1.746081E-18
6.875612E+03	-9.350753E-18	-1.754062E-18
6.885406E+03	-9.395856E-18	-1.762690E-18
6.895201E+03	-9.444035E-18	-1.771896E-18
6.904995E+03	-9.494858E-18	-1.781600E-18
6.914789E+03	-9.547823E-18	-1.791707E-18
6.924584E+03	-9.602414E-18	-1.802120E-18
6.934378E+03	-9.658096E-18	-1.812740E-18
6.944172E+03	-9.714344E-18	-1.823467E-18
6.953967E+03	-9.770673E-18	-1.834211E-18
6.963761E+03	-9.826644E-18	-1.844889E-18
6.973555E+03	-9.881877E-18	-1.855430E-18
6.983350E+03	-9.936057E-18	-1.865775E-18
6.993144E+03	-9.988950E-18	-1.875879E-18
7.002938E+03	-1.004038E-17	-1.885709E-18
7.012733E+03	-1.009023E-17	-1.895244E-18
7.022527E+03	-1.013842E-17	-1.904470E-18
7.032321E+03	-1.018492E-17	-1.913378E-18
7.042116E+03	-1.022969E-17	-1.921961E-18
7.051910E+03	-1.027267E-17	-1.930210E-18
7.061704E+03	-1.031380E-17	-1.938112E-18
7.071499E+03	-1.035295E-17	-1.945642E-18
7.081293E+03	-1.038994E-17	-1.952767E-18
7.091087E+03	-1.042452E-17	-1.959441E-18
7.100881E+03	-1.045637E-17	-1.965600E-18
7.110676E+03	-1.048508E-17	-1.971171E-18
7.120470E+03	-1.051020E-17	-1.976067E-18
7.130264E+03	-1.053120E-17	-1.980189E-18
7.140059E+03	-1.054752E-17	-1.983430E-18
7.149853E+03	-1.055856E-17	-1.985678E-18
7.159647E+03	-1.056373E-17	-1.986821E-18
7.169442E+03	-1.056242E-17	-1.986746E-18
7.179236E+03	-1.055408E-17	-1.985347E-18
7.189030E+03	-1.053816E-17	-1.982522E-18
7.198825E+03	-1.051425E-17	-1.978191E-18
7.208619E+03	-1.048194E-17	-1.972280E-18
7.218413E+03	-1.044100E-17	-1.964742E-18
7.228208E+03	-1.039125E-17	-1.955545E-18
7.238002E+03	-1.033268E-17	-1.944685E-18
7.247796E+03	-1.026537E-17	-1.932177E-18
7.257591E+03	-1.018954E-17	-1.918063E-18
7.267385E+03	-1.010553E-17	-1.902406E-18
7.277179E+03	-1.001378E-17	-1.885289E-18
7.286974E+03	-9.914834E-18	-1.866814E-18
7.296768E+03	-9.809319E-18	-1.847098E-18
7.306562E+03	-9.697923E-18	-1.826270E-18
7.316357E+03	-9.581368E-18	-1.804467E-18
7.326151E+03	-9.460431E-18	-1.781834E-18
7.335945E+03	-9.335900E-18	-1.758520E-18
7.345739E+03	-9.208574E-18	-1.734676E-18
7.355534E+03	-9.079287E-18	-1.710457E-18
