#wls	flux	fluxerr
1.567091E+03	5.555100E-18	1.256330E-22
1.606268E+03	5.779637E-18	1.307111E-22
1.645446E+03	5.972426E-18	1.350712E-22
1.684623E+03	6.128229E-18	1.385947E-22
1.723800E+03	6.243821E-18	1.412090E-22
1.762977E+03	6.306663E-18	1.426302E-22
1.802155E+03	6.301695E-18	1.425178E-22
1.841332E+03	6.212479E-18	1.405001E-22
1.880509E+03	6.025513E-18	1.362717E-22
1.919687E+03	5.735548E-18	1.297139E-22
1.958864E+03	5.357347E-18	1.211606E-22
1.998041E+03	4.937329E-18	1.116616E-22
2.037218E+03	4.554345E-18	1.030001E-22
2.076396E+03	4.303541E-18	9.732791E-23
2.115573E+03	4.270276E-18	9.657561E-23
2.154750E+03	4.508449E-18	1.019621E-22
2.193928E+03	5.041742E-18	1.140229E-22
2.233105E+03	5.864437E-18	1.326287E-22
2.272282E+03	6.951551E-18	1.572147E-22
2.311459E+03	8.265107E-18	1.869217E-22
2.350637E+03	9.770975E-18	2.209781E-22
2.389814E+03	1.144295E-17	2.587911E-22
2.428991E+03	1.327017E-17	3.001151E-22
2.468168E+03	1.525365E-17	3.449728E-22
2.507346E+03	1.740326E-17	3.935879E-22
2.546523E+03	1.973936E-17	4.464205E-22
2.585700E+03	2.228556E-17	5.040048E-22
2.624878E+03	2.507520E-17	5.670946E-22
2.664055E+03	2.814110E-17	6.364320E-22
2.703232E+03	3.152337E-17	7.129246E-22
2.742409E+03	3.526402E-17	7.975220E-22
2.781587E+03	3.940810E-17	8.912434E-22
2.820764E+03	4.400553E-17	9.952177E-22
2.859941E+03	4.910288E-17	1.110498E-21
2.899119E+03	5.476468E-17	1.238544E-21
2.938296E+03	6.105854E-17	1.380884E-21
2.948090E+03	6.274131E-17	1.418941E-21
2.957884E+03	6.446697E-17	1.457968E-21
2.967679E+03	6.623899E-17	1.498043E-21
2.977473E+03	6.805957E-17	1.539217E-21
2.987267E+03	6.993845E-17	1.581709E-21
2.997062E+03	7.188295E-17	1.625686E-21
3.006856E+03	7.388916E-17	1.671057E-21
3.016650E+03	7.596258E-17	1.717949E-21
3.026445E+03	7.809913E-17	1.766269E-21
3.036239E+03	8.030232E-17	1.816096E-21
3.046033E+03	8.256724E-17	1.867318E-21
3.055828E+03	8.490693E-17	1.920232E-21
3.065622E+03	8.731612E-17	1.974718E-21
3.075416E+03	8.979623E-17	2.030807E-21
3.085211E+03	9.234511E-17	2.088452E-21
3.095005E+03	9.496033E-17	2.147597E-21
3.104799E+03	9.764293E-17	2.208266E-21
3.114594E+03	1.003901E-16	2.270395E-21
3.124388E+03	1.031987E-16	2.333914E-21
3.134182E+03	1.060691E-16	2.398830E-21
3.143976E+03	1.089976E-16	2.465059E-21
3.153771E+03	1.119799E-16	2.532507E-21
3.163565E+03	1.150156E-16	2.601160E-21
3.173359E+03	1.180996E-16	2.670907E-21
3.183154E+03	1.212264E-16	2.741624E-21
3.192948E+03	1.243943E-16	2.813266E-21
3.202742E+03	1.276007E-16	2.885783E-21
3.212537E+03	1.308346E-16	2.958920E-21
3.222331E+03	1.340967E-16	3.032693E-21
3.232125E+03	1.373702E-16	3.106725E-21
3.241920E+03	1.406588E-16	3.181101E-21
3.251714E+03	1.439488E-16	3.255506E-21
3.261508E+03	1.472298E-16	3.329708E-21
3.271303E+03	1.504995E-16	3.403655E-21
3.281097E+03	1.537419E-16	3.476984E-21
3.290891E+03	1.569447E-16	3.549416E-21
3.300686E+03	1.601037E-16	3.620861E-21
3.310480E+03	1.632013E-16	3.690913E-21
3.320274E+03	1.662234E-16	3.759261E-21
3.330069E+03	1.691605E-16	3.825685E-21
3.339863E+03	1.719983E-16	3.889864E-21
3.349657E+03	1.747227E-16	3.951478E-21
3.359452E+03	1.773200E-16	4.010218E-21
3.369246E+03	1.797729E-16	4.065692E-21
3.379040E+03	1.820741E-16	4.117735E-21
3.388834E+03	1.842135E-16	4.166120E-21
3.398629E+03	1.861707E-16	4.210382E-21
3.408423E+03	1.879495E-16	4.250611E-21
3.418217E+03	1.895407E-16	4.286597E-21
3.428012E+03	1.909442E-16	4.318339E-21
3.437806E+03	1.921663E-16	4.345977E-21
3.447600E+03	1.932173E-16	4.369746E-21
3.457395E+03	1.941215E-16	4.390196E-21
3.467189E+03	1.949094E-16	4.408014E-21
3.476983E+03	1.956289E-16	4.424286E-21
3.486778E+03	1.963291E-16	4.440121E-21
3.496572E+03	1.970660E-16	4.456786E-21
3.506366E+03	1.979010E-16	4.475670E-21
3.516161E+03	1.988822E-16	4.497862E-21
3.525955E+03	2.000138E-16	4.523453E-21
3.535749E+03	2.012122E-16	4.550556E-21
3.545544E+03	2.023291E-16	4.575814E-21
3.555338E+03	2.032234E-16	4.596040E-21
3.565132E+03	2.037463E-16	4.607867E-21
3.574927E+03	2.037896E-16	4.608846E-21
3.584721E+03	2.032692E-16	4.597076E-21
3.594515E+03	2.021209E-16	4.571105E-21
3.604310E+03	2.003229E-16	4.530442E-21
3.614104E+03	1.978850E-16	4.475308E-21
3.623898E+03	1.948439E-16	4.406531E-21
3.633692E+03	1.912614E-16	4.325510E-21
3.643487E+03	1.872277E-16	4.234285E-21
3.653281E+03	1.828569E-16	4.135437E-21
3.663075E+03	1.782748E-16	4.031809E-21
3.672870E+03	1.736240E-16	3.926628E-21
3.682664E+03	1.690488E-16	3.823156E-21
3.692458E+03	1.647018E-16	3.724846E-21
3.702253E+03	1.607248E-16	3.634904E-21
3.712047E+03	1.572609E-16	3.556565E-21
3.721841E+03	1.544336E-16	3.492623E-21
3.731636E+03	1.523627E-16	3.445788E-21
3.741430E+03	1.511551E-16	3.418478E-21
3.751224E+03	1.509088E-16	3.412907E-21
3.761019E+03	1.517152E-16	3.431144E-21
3.770813E+03	1.536666E-16	3.475275E-21
3.780607E+03	1.568579E-16	3.547449E-21
3.790402E+03	1.613855E-16	3.649844E-21
3.800196E+03	1.673453E-16	3.784629E-21
3.809990E+03	1.748424E-16	3.954182E-21
3.819785E+03	1.839728E-16	4.160670E-21
3.829579E+03	1.948221E-16	4.406036E-21
3.830850E+03	1.275291E-16	2.884159E-21
3.832290E+03	1.275187E-16	2.883924E-21
3.833730E+03	1.291431E-16	2.920659E-21
3.835170E+03	1.325313E-16	2.997286E-21
3.836610E+03	1.363454E-16	3.083545E-21
3.838050E+03	1.390736E-16	3.145246E-21
3.839490E+03	1.409835E-16	3.188439E-21
3.840930E+03	1.449823E-16	3.278875E-21
3.842370E+03	1.499824E-16	3.391954E-21
3.843810E+03	1.531471E-16	3.463527E-21
3.845250E+03	1.569819E-16	3.550253E-21
3.846690E+03	1.631394E-16	3.689510E-21
3.848130E+03	1.679044E-16	3.797273E-21
3.849570E+03	1.724050E-16	3.899057E-21
3.851010E+03	1.785763E-16	4.038626E-21
3.852451E+03	1.839465E-16	4.160077E-21
3.853890E+03	1.899949E-16	4.296866E-21
3.855330E+03	1.951308E-16	4.413018E-21
3.856770E+03	2.012049E-16	4.550386E-21
3.858210E+03	2.077679E-16	4.698814E-21
3.859650E+03	2.116343E-16	4.786254E-21
3.861090E+03	2.160231E-16	4.885510E-21
3.862530E+03	2.231703E-16	5.047151E-21
3.863970E+03	2.299067E-16	5.199499E-21
3.865410E+03	2.348791E-16	5.311953E-21
3.866850E+03	2.426655E-16	5.488046E-21
3.868290E+03	2.499888E-16	5.653668E-21
3.869730E+03	2.550084E-16	5.767191E-21
3.871170E+03	2.597886E-16	5.875298E-21
3.872610E+03	2.656493E-16	6.007841E-21
3.874040E+03	2.718612E-16	6.148328E-21
3.875480E+03	2.794863E-16	6.320775E-21
3.876920E+03	2.865085E-16	6.479586E-21
3.878360E+03	2.931703E-16	6.630247E-21
3.879800E+03	2.988099E-16	6.757790E-21
3.881240E+03	3.053591E-16	6.905905E-21
3.882680E+03	3.124179E-16	7.065546E-21
3.884119E+03	3.195170E-16	7.226095E-21
3.885560E+03	3.244423E-16	7.337484E-21
3.887000E+03	3.301558E-16	7.466700E-21
3.888440E+03	3.374958E-16	7.632698E-21
3.889881E+03	3.434103E-16	7.766458E-21
3.891320E+03	3.484738E-16	7.880974E-21
3.892760E+03	3.547631E-16	8.023211E-21
3.894200E+03	3.593802E-16	8.127629E-21
3.895640E+03	3.631622E-16	8.213161E-21
3.897080E+03	3.680480E-16	8.323658E-21
3.898520E+03	3.746509E-16	8.472987E-21
3.899960E+03	3.793871E-16	8.580099E-21
3.901400E+03	3.839694E-16	8.683732E-21
3.902840E+03	3.875921E-16	8.765661E-21
3.904280E+03	3.924085E-16	8.874586E-21
3.905720E+03	3.981216E-16	9.003792E-21
3.907160E+03	4.003866E-16	9.055017E-21
3.908600E+03	4.039157E-16	9.134829E-21
3.910040E+03	4.080259E-16	9.227784E-21
3.911480E+03	4.109112E-16	9.293037E-21
3.912920E+03	4.145183E-16	9.374615E-21
3.914360E+03	4.167586E-16	9.425282E-21
3.915800E+03	4.176307E-16	9.445003E-21
3.917240E+03	4.191711E-16	9.479841E-21
3.918680E+03	4.211342E-16	9.524238E-21
3.920120E+03	4.219037E-16	9.541641E-21
3.921560E+03	4.230251E-16	9.567003E-21
3.923000E+03	4.246932E-16	9.604727E-21
3.924440E+03	4.257286E-16	9.628143E-21
3.925880E+03	4.267298E-16	9.650786E-21
3.927320E+03	4.266220E-16	9.648348E-21
3.928760E+03	4.273774E-16	9.665432E-21
3.930200E+03	4.276753E-16	9.672168E-21
3.931640E+03	4.278499E-16	9.676118E-21
3.933080E+03	4.278484E-16	9.676084E-21
3.934510E+03	4.274046E-16	9.666046E-21
3.935950E+03	4.257436E-16	9.628481E-21
3.937390E+03	4.239929E-16	9.588889E-21
3.938830E+03	4.245198E-16	9.600805E-21
3.940270E+03	4.266381E-16	9.648711E-21
3.941710E+03	4.286159E-16	9.693442E-21
3.943150E+03	4.305070E-16	9.736211E-21
3.944590E+03	4.327182E-16	9.786217E-21
3.946030E+03	4.362582E-16	9.866276E-21
3.947470E+03	4.380302E-16	9.906351E-21
3.948910E+03	4.382984E-16	9.912418E-21
3.950350E+03	4.389740E-16	9.927696E-21
3.951790E+03	4.400580E-16	9.952211E-21
3.953230E+03	4.415329E-16	9.985568E-21
3.954670E+03	4.452083E-16	1.006869E-20
3.956110E+03	4.484427E-16	1.014184E-20
3.957550E+03	4.502065E-16	1.018173E-20
3.958990E+03	4.529301E-16	1.024332E-20
3.960430E+03	4.562244E-16	1.031783E-20
3.961870E+03	4.587394E-16	1.037470E-20
3.963310E+03	4.580917E-16	1.036006E-20
3.964750E+03	4.590443E-16	1.038160E-20
3.966190E+03	4.606200E-16	1.041724E-20
3.967630E+03	4.607732E-16	1.042070E-20
3.969071E+03	4.626714E-16	1.046363E-20
3.970510E+03	4.655506E-16	1.052875E-20
3.971950E+03	4.666857E-16	1.055441E-20
3.973390E+03	4.675721E-16	1.057446E-20
3.974830E+03	4.704920E-16	1.064050E-20
3.976270E+03	4.733961E-16	1.070618E-20
3.977710E+03	4.752497E-16	1.074809E-20
3.979150E+03	4.766939E-16	1.078076E-20
3.980590E+03	4.792820E-16	1.083929E-20
3.982030E+03	4.822475E-16	1.090636E-20
3.983470E+03	4.834280E-16	1.093305E-20
3.984910E+03	4.832326E-16	1.092863E-20
3.986350E+03	4.853621E-16	1.097680E-20
3.987790E+03	4.884415E-16	1.104644E-20
3.989230E+03	4.897514E-16	1.107606E-20
3.990670E+03	4.901132E-16	1.108424E-20
3.992110E+03	4.906187E-16	1.109568E-20
3.993549E+03	4.923964E-16	1.113588E-20
3.994990E+03	4.929209E-16	1.114774E-20
3.996430E+03	4.929619E-16	1.114867E-20
3.997860E+03	4.927144E-16	1.114307E-20
3.999300E+03	4.924500E-16	1.113709E-20
4.000740E+03	4.925267E-16	1.113882E-20
4.002180E+03	4.917412E-16	1.112106E-20
4.003620E+03	4.907576E-16	1.109882E-20
4.005060E+03	4.889647E-16	1.105827E-20
4.006500E+03	4.848873E-16	1.096606E-20
4.007940E+03	4.833962E-16	1.093233E-20
4.009380E+03	4.815264E-16	1.089005E-20
4.010820E+03	4.786472E-16	1.082493E-20
4.012260E+03	4.777824E-16	1.080537E-20
4.013700E+03	4.773312E-16	1.079517E-20
4.015140E+03	4.749155E-16	1.074054E-20
4.016580E+03	4.708399E-16	1.064836E-20
4.018020E+03	4.669053E-16	1.055938E-20
4.019460E+03	4.645372E-16	1.050582E-20
4.020900E+03	4.617160E-16	1.044202E-20
4.022340E+03	4.588929E-16	1.037817E-20
4.023780E+03	4.551462E-16	1.029344E-20
4.025220E+03	4.508371E-16	1.019599E-20
4.026660E+03	4.460185E-16	1.008701E-20
4.028100E+03	4.425160E-16	1.000780E-20
4.029540E+03	4.401502E-16	9.954295E-21
4.030980E+03	4.367513E-16	9.877428E-21
4.032420E+03	4.320829E-16	9.771848E-21
4.033860E+03	4.283887E-16	9.688301E-21
4.035300E+03	4.237861E-16	9.584210E-21
4.036739E+03	4.194878E-16	9.487001E-21
4.038180E+03	4.153676E-16	9.393820E-21
4.039620E+03	4.114256E-16	9.304669E-21
4.041060E+03	4.082425E-16	9.232681E-21
4.042500E+03	4.063270E-16	9.189361E-21
4.043940E+03	4.041743E-16	9.140675E-21
4.045380E+03	4.004399E-16	9.056219E-21
4.046820E+03	3.955399E-16	8.945402E-21
4.048261E+03	3.926535E-16	8.880124E-21
4.049700E+03	3.915101E-16	8.854266E-21
4.051140E+03	3.904022E-16	8.829210E-21
4.052580E+03	3.891297E-16	8.800431E-21
4.054020E+03	3.875285E-16	8.764219E-21
4.055460E+03	3.864176E-16	8.739095E-21
4.056900E+03	3.850872E-16	8.709007E-21
4.058330E+03	3.842468E-16	8.690001E-21
4.059770E+03	3.843547E-16	8.692442E-21
4.061210E+03	3.822743E-16	8.645392E-21
4.062650E+03	3.798820E-16	8.591289E-21
4.064090E+03	3.788384E-16	8.567686E-21
4.065530E+03	3.772646E-16	8.532093E-21
4.066970E+03	3.753424E-16	8.488622E-21
4.068410E+03	3.727795E-16	8.430662E-21
4.069850E+03	3.705251E-16	8.379677E-21
4.071290E+03	3.689638E-16	8.344365E-21
4.072730E+03	3.669255E-16	8.298269E-21
4.074170E+03	3.646116E-16	8.245937E-21
4.075610E+03	3.626799E-16	8.202251E-21
4.077050E+03	3.600875E-16	8.143623E-21
4.078490E+03	3.577679E-16	8.091162E-21
4.079930E+03	3.568210E-16	8.069747E-21
4.081370E+03	3.560197E-16	8.051627E-21
4.082810E+03	3.538241E-16	8.001972E-21
4.084250E+03	3.537732E-16	8.000821E-21
4.085690E+03	3.544009E-16	8.015016E-21
4.087130E+03	3.539645E-16	8.005147E-21
4.088570E+03	3.540052E-16	8.006068E-21
4.090010E+03	3.526861E-16	7.976234E-21
4.091450E+03	3.499143E-16	7.913548E-21
4.092890E+03	3.465333E-16	7.837084E-21
4.094330E+03	3.432051E-16	7.761815E-21
4.095770E+03	3.408863E-16	7.709374E-21
4.097210E+03	3.385102E-16	7.655636E-21
4.098650E+03	3.367218E-16	7.615190E-21
4.100090E+03	3.353001E-16	7.583039E-21
4.101530E+03	3.337484E-16	7.547944E-21
4.102970E+03	3.302415E-16	7.468634E-21
4.104410E+03	3.272665E-16	7.401353E-21
4.105850E+03	3.267613E-16	7.389927E-21
4.107290E+03	3.256835E-16	7.365553E-21
4.108730E+03	3.240140E-16	7.327796E-21
4.110170E+03	3.213276E-16	7.267041E-21
4.111610E+03	3.189533E-16	7.213343E-21
4.113050E+03	3.172237E-16	7.174228E-21
4.114490E+03	3.162695E-16	7.152647E-21
4.115929E+03	3.142968E-16	7.108034E-21
4.117370E+03	3.117308E-16	7.050002E-21
4.118800E+03	3.107539E-16	7.027910E-21
4.120240E+03	3.106285E-16	7.025073E-21
4.121680E+03	3.110588E-16	7.034803E-21
4.123120E+03	3.108222E-16	7.029454E-21
4.124560E+03	3.098623E-16	7.007744E-21
4.126000E+03	3.090871E-16	6.990213E-21
4.127440E+03	3.097023E-16	7.004126E-21
4.128881E+03	3.103738E-16	7.019313E-21
4.130320E+03	3.101545E-16	7.014353E-21
4.131760E+03	3.109935E-16	7.033327E-21
4.133200E+03	3.125576E-16	7.068701E-21
4.134640E+03	3.134722E-16	7.089385E-21
4.136080E+03	3.148152E-16	7.119758E-21
4.137520E+03	3.156568E-16	7.138792E-21
4.138960E+03	3.165361E-16	7.158677E-21
4.140400E+03	3.179372E-16	7.190363E-21
4.141840E+03	3.187059E-16	7.207747E-21
4.143280E+03	3.197360E-16	7.231044E-21
4.144720E+03	3.205060E-16	7.248459E-21
4.146160E+03	3.225437E-16	7.294542E-21
4.147600E+03	3.248254E-16	7.346145E-21
4.149040E+03	3.261012E-16	7.374997E-21
4.150480E+03	3.270047E-16	7.395431E-21
4.151920E+03	3.278529E-16	7.414614E-21
4.153360E+03	3.288882E-16	7.438028E-21
4.154800E+03	3.309889E-16	7.485536E-21
4.156240E+03	3.330724E-16	7.532656E-21
4.157680E+03	3.357929E-16	7.594182E-21
4.159120E+03	3.382906E-16	7.650670E-21
4.160560E+03	3.383584E-16	7.652203E-21
4.162000E+03	3.389685E-16	7.666001E-21
4.163440E+03	3.399721E-16	7.688697E-21
4.164880E+03	3.414259E-16	7.721577E-21
4.166320E+03	3.438362E-16	7.776086E-21
4.167760E+03	3.447298E-16	7.796296E-21
4.169200E+03	3.463177E-16	7.832208E-21
4.170640E+03	3.474941E-16	7.858813E-21
4.172080E+03	3.487460E-16	7.887126E-21
4.173520E+03	3.503180E-16	7.922678E-21
4.174960E+03	3.513088E-16	7.945084E-21
4.176400E+03	3.525444E-16	7.973029E-21
4.177830E+03	3.537236E-16	7.999696E-21
4.179270E+03	3.548480E-16	8.025125E-21
4.180710E+03	3.557472E-16	8.045461E-21
4.182150E+03	3.554620E-16	8.039011E-21
4.183590E+03	3.558725E-16	8.048294E-21
4.185030E+03	3.555302E-16	8.040553E-21
4.186470E+03	3.567507E-16	8.068156E-21
4.187910E+03	3.577645E-16	8.091085E-21
4.189350E+03	3.567247E-16	8.067569E-21
4.190790E+03	3.561932E-16	8.055549E-21
4.192230E+03	3.573584E-16	8.081900E-21
4.193670E+03	3.582979E-16	8.103147E-21
4.195110E+03	3.592000E-16	8.123549E-21
4.196550E+03	3.607256E-16	8.158051E-21
4.197990E+03	3.608736E-16	8.161398E-21
4.199430E+03	3.597746E-16	8.136544E-21
4.200870E+03	3.596008E-16	8.132614E-21
4.202310E+03	3.593134E-16	8.126112E-21
4.203750E+03	3.590252E-16	8.119595E-21
4.205190E+03	3.584532E-16	8.106658E-21
4.206630E+03	3.575205E-16	8.085567E-21
4.208071E+03	3.563794E-16	8.059759E-21
4.209510E+03	3.558997E-16	8.048909E-21
4.210950E+03	3.561396E-16	8.054336E-21
4.212390E+03	3.546927E-16	8.021612E-21
4.213830E+03	3.530929E-16	7.985431E-21
4.215270E+03	3.516627E-16	7.953087E-21
4.216710E+03	3.522042E-16	7.965333E-21
4.218150E+03	3.529927E-16	7.983166E-21
4.219590E+03	3.527561E-16	7.977816E-21
4.221030E+03	3.522917E-16	7.967313E-21
4.222470E+03	3.517316E-16	7.954645E-21
4.223910E+03	3.511709E-16	7.941965E-21
4.225350E+03	3.525106E-16	7.972263E-21
4.226790E+03	3.533950E-16	7.992265E-21
4.228230E+03	3.536139E-16	7.997214E-21
4.229670E+03	3.541180E-16	8.008615E-21
4.231110E+03	3.550221E-16	8.029061E-21
4.232550E+03	3.554506E-16	8.038753E-21
4.233990E+03	3.543932E-16	8.014839E-21
4.235430E+03	3.531442E-16	7.986592E-21
4.236870E+03	3.520086E-16	7.960909E-21
4.238310E+03	3.504524E-16	7.925715E-21
4.239750E+03	3.492383E-16	7.898257E-21
4.241190E+03	3.478129E-16	7.866022E-21
4.242620E+03	3.474170E-16	7.857067E-21
4.244060E+03	3.480716E-16	7.871872E-21
4.245500E+03	3.485163E-16	7.881929E-21
4.246940E+03	3.482731E-16	7.876428E-21
4.248380E+03	3.466339E-16	7.839357E-21
4.249820E+03	3.445727E-16	7.792741E-21
4.251261E+03	3.435813E-16	7.770319E-21
4.252700E+03	3.428377E-16	7.753503E-21
4.254140E+03	3.398152E-16	7.685148E-21
4.255580E+03	3.373455E-16	7.629294E-21
4.257020E+03	3.367326E-16	7.615433E-21
4.258460E+03	3.372882E-16	7.627997E-21
4.259900E+03	3.377861E-16	7.639257E-21
4.261340E+03	3.372488E-16	7.627107E-21
4.262780E+03	3.357708E-16	7.593681E-21
4.264220E+03	3.350402E-16	7.577158E-21
4.265660E+03	3.358636E-16	7.595778E-21
4.267100E+03	3.360345E-16	7.599645E-21
4.268540E+03	3.354369E-16	7.586130E-21
4.269980E+03	3.344160E-16	7.563041E-21
4.271420E+03	3.341822E-16	7.557753E-21
4.272860E+03	3.342367E-16	7.558986E-21
4.274300E+03	3.349257E-16	7.574568E-21
4.275739E+03	3.351337E-16	7.579272E-21
4.277180E+03	3.342255E-16	7.558732E-21
4.278620E+03	3.341441E-16	7.556892E-21
4.280060E+03	3.346405E-16	7.568118E-21
4.281500E+03	3.353298E-16	7.583706E-21
4.282940E+03	3.353253E-16	7.583604E-21
4.284380E+03	3.342602E-16	7.559516E-21
4.285820E+03	3.341586E-16	7.557218E-21
4.287260E+03	3.351755E-16	7.580217E-21
4.288700E+03	3.360386E-16	7.599738E-21
4.290140E+03	3.359174E-16	7.596996E-21
4.291580E+03	3.362594E-16	7.604731E-21
4.293020E+03	3.375479E-16	7.633870E-21
4.294460E+03	3.387600E-16	7.661283E-21
4.295900E+03	3.383293E-16	7.651542E-21
4.297340E+03	3.382653E-16	7.650094E-21
4.298780E+03	3.387044E-16	7.660025E-21
4.300220E+03	3.392014E-16	7.671265E-21
4.301660E+03	3.399305E-16	7.687755E-21
4.303090E+03	3.393814E-16	7.675337E-21
4.304530E+03	3.380578E-16	7.645401E-21
4.305970E+03	3.378956E-16	7.641735E-21
4.307410E+03	3.392834E-16	7.673119E-21
4.308850E+03	3.413312E-16	7.719431E-21
4.310290E+03	3.421388E-16	7.737696E-21
4.311730E+03	3.430630E-16	7.758597E-21
4.313170E+03	3.436381E-16	7.771605E-21
4.314610E+03	3.447571E-16	7.796911E-21
4.316050E+03	3.466339E-16	7.839356E-21
4.317490E+03	3.471908E-16	7.851950E-21
4.318929E+03	3.476116E-16	7.861467E-21
4.320370E+03	3.485184E-16	7.881976E-21
4.321810E+03	3.484732E-16	7.880953E-21
4.323250E+03	3.485051E-16	7.881675E-21
4.324690E+03	3.485952E-16	7.883712E-21
4.326130E+03	3.480429E-16	7.871222E-21
4.327570E+03	3.469647E-16	7.846836E-21
4.329010E+03	3.468393E-16	7.844001E-21
4.330450E+03	3.481747E-16	7.874201E-21
4.331890E+03	3.487315E-16	7.886795E-21
4.333330E+03	3.484697E-16	7.880874E-21
4.334770E+03	3.472520E-16	7.853334E-21
4.336210E+03	3.458575E-16	7.821798E-21
4.337650E+03	3.458670E-16	7.822012E-21
4.339090E+03	3.455833E-16	7.815596E-21
4.340530E+03	3.429957E-16	7.757076E-21
4.341970E+03	3.411681E-16	7.715743E-21
4.343410E+03	3.398271E-16	7.685415E-21
4.344850E+03	3.369612E-16	7.620600E-21
4.346290E+03	3.343667E-16	7.561926E-21
4.347730E+03	3.332371E-16	7.536378E-21
4.349170E+03	3.315392E-16	7.497979E-21
4.350610E+03	3.285683E-16	7.430791E-21
4.352050E+03	3.251649E-16	7.353821E-21
4.353490E+03	3.231101E-16	7.307349E-21
4.354929E+03	3.205249E-16	7.248883E-21
4.356370E+03	3.164105E-16	7.155832E-21
4.357810E+03	3.127437E-16	7.072905E-21
4.359250E+03	3.096233E-16	7.002336E-21
4.360690E+03	3.071675E-16	6.946797E-21
4.362120E+03	3.049446E-16	6.896525E-21
4.363570E+03	3.029176E-16	6.850682E-21
4.365000E+03	2.999657E-16	6.783923E-21
4.366440E+03	2.964039E-16	6.703372E-21
4.367880E+03	2.927417E-16	6.620548E-21
4.369320E+03	2.897057E-16	6.551887E-21
4.370760E+03	2.874534E-16	6.500950E-21
4.372200E+03	2.853961E-16	6.454423E-21
4.373640E+03	2.827281E-16	6.394082E-21
4.375080E+03	2.808841E-16	6.352381E-21
4.376520E+03	2.793732E-16	6.318211E-21
4.377960E+03	2.774284E-16	6.274227E-21
4.379400E+03	2.754626E-16	6.229769E-21
4.380840E+03	2.730034E-16	6.174152E-21
4.382280E+03	2.713498E-16	6.136756E-21
4.383720E+03	2.696163E-16	6.097551E-21
