#wls	flux	fluxerr
1.567091E+03	7.739938E-20	3.032394E-20
1.606268E+03	7.866064E-20	3.058753E-20
1.645446E+03	7.929840E-20	3.059747E-20
1.684623E+03	7.931495E-20	3.036004E-20
1.723800E+03	7.864718E-20	2.985693E-20
1.762977E+03	7.721150E-20	2.906320E-20
1.802155E+03	7.486619E-20	2.793365E-20
1.841332E+03	7.151911E-20	2.644366E-20
1.880509E+03	6.708065E-20	2.457124E-20
1.919687E+03	6.162591E-20	2.235590E-20
1.958864E+03	5.543883E-20	1.991159E-20
1.998041E+03	4.909371E-20	1.745180E-20
2.037218E+03	4.339723E-20	1.526348E-20
2.076396E+03	3.919826E-20	1.363594E-20
2.115573E+03	3.706505E-20	1.274834E-20
2.154750E+03	3.718093E-20	1.263919E-20
2.193928E+03	3.937681E-20	1.322459E-20
2.233105E+03	4.323798E-20	1.434092E-20
2.272282E+03	4.821876E-20	1.578767E-20
2.311459E+03	5.376493E-20	1.737025E-20
2.350637E+03	5.942608E-20	1.893635E-20
2.389814E+03	6.487706E-20	2.038087E-20
2.428991E+03	6.993870E-20	2.164981E-20
2.468168E+03	7.453783E-20	2.272495E-20
2.507346E+03	7.868371E-20	2.361441E-20
2.546523E+03	8.240269E-20	2.433141E-20
2.585700E+03	8.575406E-20	2.489848E-20
2.624878E+03	8.882154E-20	2.534413E-20
2.664055E+03	9.166610E-20	2.568901E-20
2.703232E+03	9.437850E-20	2.596086E-20
2.742409E+03	9.702251E-20	2.617835E-20
2.781587E+03	9.969367E-20	2.636729E-20
2.820764E+03	1.024620E-19	2.654487E-20
2.859941E+03	1.054348E-19	2.673620E-20
2.899119E+03	1.086979E-19	2.695869E-20
2.938296E+03	1.123829E-19	2.723881E-20
2.948090E+03	1.133800E-19	2.731936E-20
2.957884E+03	1.144289E-19	2.740893E-20
2.967679E+03	1.154981E-19	2.749986E-20
2.977473E+03	1.166270E-19	2.760134E-20
2.987267E+03	1.177943E-19	2.770809E-20
2.997062E+03	1.190479E-19	2.783114E-20
3.006856E+03	1.203706E-19	2.796611E-20
3.016650E+03	1.217628E-19	2.811275E-20
3.026445E+03	1.232250E-19	2.827092E-20
3.036239E+03	1.247603E-19	2.844095E-20
3.046033E+03	1.263693E-19	2.862269E-20
3.055828E+03	1.280652E-19	2.881872E-20
3.065622E+03	1.298674E-19	2.903302E-20
3.075416E+03	1.317403E-19	2.925716E-20
3.085211E+03	1.337233E-19	2.949954E-20
3.095005E+03	1.357807E-19	2.975181E-20
3.104799E+03	1.379539E-19	3.002263E-20
3.114594E+03	1.402272E-19	3.030806E-20
3.124388E+03	1.426044E-19	3.060848E-20
3.134182E+03	1.450898E-19	3.092429E-20
3.143976E+03	1.476884E-19	3.125605E-20
3.153771E+03	1.504054E-19	3.160432E-20
3.163565E+03	1.532685E-19	3.197433E-20
3.173359E+03	1.562413E-19	3.235783E-20
3.183154E+03	1.593745E-19	3.276476E-20
3.192948E+03	1.626316E-19	3.318687E-20
3.202742E+03	1.660659E-19	3.363441E-20
3.212537E+03	1.696643E-19	3.410388E-20
3.222331E+03	1.734365E-19	3.459646E-20
3.232125E+03	1.773931E-19	3.511339E-20
3.241920E+03	1.815454E-19	3.565604E-20
3.251714E+03	1.859058E-19	3.622587E-20
3.261508E+03	1.904871E-19	3.682439E-20
3.271303E+03	1.953304E-19	3.745843E-20
3.281097E+03	2.003979E-19	3.811951E-20
3.290891E+03	2.057600E-19	3.881986E-20
3.300686E+03	2.113786E-19	3.955098E-20
3.310480E+03	2.173294E-19	4.032565E-20
3.320274E+03	2.236045E-19	4.114081E-20
3.330069E+03	2.302253E-19	4.199885E-20
3.339863E+03	2.372152E-19	4.290233E-20
3.349657E+03	2.445989E-19	4.385391E-20
3.359452E+03	2.524031E-19	4.485645E-20
3.369246E+03	2.606564E-19	4.591295E-20
3.379040E+03	2.693897E-19	4.702666E-20
3.388834E+03	2.786731E-19	4.820738E-20
3.398629E+03	2.884685E-19	4.944598E-20
3.408423E+03	2.988901E-19	5.075933E-20
3.418217E+03	3.099412E-19	5.214502E-20
3.428012E+03	3.216235E-19	5.360030E-20
3.437806E+03	3.340680E-19	5.514373E-20
3.447600E+03	3.472841E-19	5.677319E-20
3.457395E+03	3.613262E-19	5.849377E-20
3.467189E+03	3.762529E-19	6.031089E-20
3.476983E+03	3.921270E-19	6.223025E-20
3.486778E+03	4.090157E-19	6.425785E-20
3.496572E+03	4.270472E-19	6.640874E-20
3.506366E+03	4.461901E-19	6.867259E-20
3.516161E+03	4.665810E-19	7.106485E-20
3.525955E+03	4.883724E-19	7.360252E-20
3.535749E+03	5.115367E-19	7.627472E-20
3.545544E+03	5.363058E-19	7.910908E-20
3.555338E+03	5.627272E-19	8.210481E-20
3.565132E+03	5.908437E-19	8.526016E-20
3.574927E+03	6.209298E-19	8.860617E-20
3.584721E+03	6.530494E-19	9.214241E-20
3.594515E+03	6.873478E-19	9.587941E-20
3.604310E+03	7.239809E-19	9.982825E-20
3.614104E+03	7.631151E-19	1.040004E-19
3.623898E+03	8.049286E-19	1.084080E-19
3.633692E+03	8.496120E-19	1.130636E-19
3.643487E+03	8.973684E-19	1.179803E-19
3.653281E+03	9.485340E-19	1.231870E-19
3.663075E+03	1.003109E-18	1.286676E-19
3.672870E+03	1.061454E-18	1.344516E-19
3.682664E+03	1.123971E-18	1.405715E-19
3.692458E+03	1.190668E-18	1.470086E-19
3.702253E+03	1.262130E-18	1.538143E-19
3.712047E+03	1.338364E-18	1.609672E-19
3.721841E+03	1.420023E-18	1.685224E-19
3.731636E+03	1.507113E-18	1.764549E-19
3.741430E+03	1.600358E-18	1.848233E-19
3.751224E+03	1.699968E-18	1.936228E-19
3.761019E+03	1.806350E-18	2.028692E-19
3.770813E+03	1.919694E-18	2.125524E-19
3.780607E+03	2.040898E-18	2.227379E-19
3.790402E+03	2.170209E-18	2.334164E-19
3.800196E+03	2.308113E-18	2.446018E-19
3.809990E+03	2.455114E-18	2.563076E-19
3.819785E+03	2.611743E-18	2.685464E-19
3.829579E+03	2.778542E-18	2.813296E-19
3.839373E+03	2.956076E-18	2.946673E-19
3.849167E+03	3.144929E-18	3.085682E-19
3.858962E+03	3.345701E-18	3.230392E-19
3.868756E+03	3.559003E-18	3.380850E-19
3.878550E+03	3.785465E-18	3.537086E-19
3.888345E+03	4.025726E-18	3.699102E-19
3.898139E+03	4.280434E-18	3.866873E-19
3.907933E+03	4.550241E-18	4.040343E-19
3.917728E+03	4.835809E-18	4.219430E-19
3.927522E+03	5.137792E-18	4.404010E-19
3.937316E+03	5.456845E-18	4.593924E-19
3.947111E+03	5.793613E-18	4.788974E-19
3.956905E+03	6.148728E-18	4.988917E-19
3.966699E+03	6.522804E-18	5.193469E-19
3.976494E+03	6.916430E-18	5.402294E-19
3.986288E+03	7.330167E-18	5.615010E-19
3.996082E+03	7.764536E-18	5.831183E-19
4.005877E+03	8.220021E-18	6.050329E-19
4.015671E+03	8.697047E-18	6.271906E-19
4.025465E+03	9.195990E-18	6.495326E-19
4.035260E+03	9.717155E-18	6.719943E-19
4.045054E+03	1.026077E-17	6.945058E-19
4.054848E+03	1.082699E-17	7.169921E-19
4.064643E+03	1.141586E-17	7.393732E-19
4.074437E+03	1.202735E-17	7.615645E-19
4.084231E+03	1.266130E-17	7.834768E-19
4.094025E+03	1.331744E-17	8.050176E-19
4.103820E+03	1.399537E-17	8.260903E-19
4.113614E+03	1.469291E-17	8.465008E-19
4.123408E+03	1.541262E-17	8.663361E-19
4.133203E+03	1.615210E-17	8.854011E-19
4.142997E+03	1.690848E-17	9.034925E-19
4.152791E+03	1.768432E-17	9.207085E-19
4.162586E+03	1.847651E-17	9.368501E-19
4.172380E+03	1.928144E-17	9.517156E-19
4.182174E+03	2.010165E-17	9.654221E-19
4.191969E+03	2.093097E-17	9.776718E-19
4.201763E+03	2.176955E-17	9.884919E-19
4.211557E+03	2.261773E-17	9.979225E-19
4.221352E+03	2.346830E-17	1.005687E-18
4.231146E+03	2.432119E-17	1.011846E-18
4.240940E+03	2.517378E-17	1.016368E-18
4.250735E+03	2.602330E-17	1.019237E-18
4.260529E+03	2.686684E-17	1.020450E-18
4.270323E+03	2.770139E-17	1.020025E-18
4.280118E+03	2.852382E-17	1.018002E-18
4.289912E+03	2.933097E-17	1.014440E-18
4.299706E+03	3.011985E-17	1.009431E-18
4.309500E+03	3.088456E-17	1.002994E-18
4.319295E+03	3.162964E-17	9.955121E-19
4.329089E+03	3.234662E-17	9.869642E-19
4.338883E+03	3.304084E-17	9.777795E-19
4.348678E+03	3.370389E-17	9.679832E-19
4.358472E+03	3.433796E-17	9.579330E-19
4.368266E+03	3.494564E-17	9.479961E-19
4.378061E+03	3.551857E-17	9.382466E-19
4.387855E+03	3.605956E-17	9.290692E-19
4.397649E+03	3.656790E-17	9.207475E-19
4.407444E+03	3.703913E-17	9.134637E-19
4.417238E+03	3.748061E-17	9.076770E-19
4.427032E+03	3.788815E-17	9.035356E-19
4.436827E+03	3.825767E-17	9.011646E-19
4.446621E+03	3.859736E-17	9.009383E-19
4.456415E+03	3.889964E-17	9.027379E-19
4.466210E+03	3.916914E-17	9.066164E-19
4.476004E+03	3.940659E-17	9.124867E-19
4.485798E+03	3.961279E-17	9.202247E-19
4.495593E+03	3.978865E-17	9.296760E-19
4.505387E+03	3.993514E-17	9.406632E-19
4.515181E+03	4.005331E-17	9.529931E-19
4.524976E+03	4.014008E-17	9.663639E-19
4.534770E+03	4.020491E-17	9.807696E-19
4.544564E+03	4.024067E-17	9.958072E-19
4.554358E+03	4.025271E-17	1.011382E-18
4.564153E+03	4.024640E-17	1.027413E-18
4.573947E+03	4.021472E-17	1.043519E-18
4.583741E+03	4.015894E-17	1.059536E-18
4.593536E+03	4.008854E-17	1.075534E-18
4.603330E+03	4.000066E-17	1.091279E-18
4.613124E+03	3.989247E-17	1.106541E-18
4.622919E+03	3.977334E-17	1.121443E-18
4.632713E+03	3.963638E-17	1.135673E-18
4.642507E+03	3.948683E-17	1.149269E-18
4.652302E+03	3.932588E-17	1.162168E-18
4.662096E+03	3.915466E-17	1.174321E-18
4.671890E+03	3.897427E-17	1.185686E-18
4.681685E+03	3.878191E-17	1.196111E-18
4.691479E+03	3.858643E-17	1.205815E-18
4.701273E+03	3.838106E-17	1.214538E-18
4.711068E+03	3.817453E-17	1.222517E-18
4.720862E+03	3.796007E-17	1.229503E-18
4.730656E+03	3.774243E-17	1.235622E-18
4.740451E+03	3.751873E-17	1.240757E-18
4.750245E+03	3.729730E-17	1.245166E-18
4.760039E+03	3.707515E-17	1.248739E-18
4.769833E+03	3.684932E-17	1.251370E-18
4.779628E+03	3.662425E-17	1.253203E-18
4.789422E+03	3.640417E-17	1.254382E-18
4.799216E+03	3.618247E-17	1.254682E-18
4.809011E+03	3.595977E-17	1.254127E-18
4.818805E+03	3.574376E-17	1.252991E-18
4.828599E+03	3.553132E-17	1.251172E-18
4.838394E+03	3.531943E-17	1.248575E-18
4.848188E+03	3.511203E-17	1.245347E-18
4.857982E+03	3.491291E-17	1.241636E-18
4.867777E+03	3.471553E-17	1.237221E-18
4.877571E+03	3.452026E-17	1.232129E-18
4.887365E+03	3.433414E-17	1.226625E-18
4.897160E+03	3.415399E-17	1.220610E-18
4.906954E+03	3.397671E-17	1.213987E-18
4.916748E+03	3.380581E-17	1.206898E-18
4.926543E+03	3.364471E-17	1.199480E-18
4.936337E+03	3.348693E-17	1.191517E-18
4.946131E+03	3.333261E-17	1.183031E-18
4.955926E+03	3.318830E-17	1.174270E-18
4.965720E+03	3.305076E-17	1.165137E-18
4.975514E+03	3.291681E-17	1.155534E-18
4.985309E+03	3.278964E-17	1.145592E-18
4.995103E+03	3.267237E-17	1.135437E-18
5.004897E+03	3.255858E-17	1.124863E-18
5.014691E+03	3.244823E-17	1.113888E-18
5.024486E+03	3.234750E-17	1.102743E-18
5.034280E+03	3.225309E-17	1.091335E-18
5.044074E+03	3.216177E-17	1.079574E-18
5.053869E+03	3.207649E-17	1.067583E-18
5.063663E+03	3.199706E-17	1.055378E-18
5.073457E+03	3.192328E-17	1.042975E-18
5.083252E+03	3.185494E-17	1.030394E-18
5.093046E+03	3.179180E-17	1.017653E-18
5.102840E+03	3.173057E-17	1.004677E-18
5.112635E+03	3.167709E-17	9.916813E-19
5.122429E+03	3.162500E-17	9.784997E-19
5.132223E+03	3.157706E-17	9.652551E-19
5.142018E+03	3.153296E-17	9.519758E-19
5.151812E+03	3.149241E-17	9.386939E-19
5.161606E+03	3.145508E-17	9.254434E-19
5.171401E+03	3.141765E-17	9.121750E-19
5.181195E+03	3.138578E-17	8.991047E-19
5.190989E+03	3.135314E-17	8.861039E-19
5.200784E+03	3.132239E-17	8.733075E-19
5.210578E+03	3.129317E-17	8.607668E-19
5.220372E+03	3.126515E-17	8.485367E-19
5.230167E+03	3.123500E-17	8.365963E-19
5.239961E+03	3.120833E-17	8.251676E-19
5.249755E+03	3.117887E-17	8.141576E-19
5.259549E+03	3.115222E-17	8.037893E-19
5.269344E+03	3.112214E-17	7.939789E-19
5.279138E+03	3.109130E-17	7.848743E-19
5.288932E+03	3.105941E-17	7.765466E-19
5.298727E+03	3.102624E-17	7.690666E-19
5.308521E+03	3.098860E-17	7.624306E-19
5.318315E+03	3.095217E-17	7.568492E-19
5.328110E+03	3.091093E-17	7.522398E-19
5.337904E+03	3.086768E-17	7.487297E-19
5.347698E+03	3.082232E-17	7.463451E-19
5.357493E+03	3.077473E-17	7.450309E-19
5.367287E+03	3.072472E-17	7.447080E-19
5.377081E+03	3.067211E-17	7.452917E-19
5.386876E+03	3.061391E-17	7.466235E-19
5.396670E+03	3.055585E-17	7.487546E-19
5.406464E+03	3.049220E-17	7.514540E-19
5.416259E+03	3.042591E-17	7.547029E-19
5.426053E+03	3.035713E-17	7.584139E-19
5.435847E+03	3.028603E-17	7.625027E-19
5.445642E+03	3.021283E-17	7.668884E-19
5.455436E+03	3.013781E-17	7.714944E-19
5.465230E+03	3.006125E-17	7.762487E-19
5.475024E+03	2.998066E-17	7.810109E-19
5.484819E+03	2.989922E-17	7.857916E-19
5.494613E+03	2.982012E-17	7.906085E-19
5.504407E+03	2.973813E-17	7.952620E-19
5.514202E+03	2.965646E-17	7.997795E-19
5.523996E+03	2.957552E-17	8.041195E-19
5.533790E+03	2.949299E-17	8.081694E-19
5.543585E+03	2.941481E-17	8.120479E-19
5.553379E+03	2.933864E-17	8.156513E-19
5.563173E+03	2.926216E-17	8.188782E-19
5.572968E+03	2.918857E-17	8.217838E-19
5.582762E+03	2.911825E-17	8.243501E-19
5.592556E+03	2.905433E-17	8.266394E-19
5.602351E+03	2.899178E-17	8.284845E-19
5.612145E+03	2.893096E-17	8.298743E-19
5.621939E+03	2.887767E-17	8.309557E-19
5.631734E+03	2.882954E-17	8.316439E-19
5.641528E+03	2.878419E-17	8.318557E-19
5.651322E+03	2.874732E-17	8.317418E-19
5.661117E+03	2.871382E-17	8.311432E-19
5.670911E+03	2.868933E-17	8.302126E-19
5.680705E+03	2.866871E-17	8.287921E-19
5.690500E+03	2.865483E-17	8.269574E-19
5.700294E+03	2.864787E-17	8.247069E-19
5.710088E+03	2.864798E-17	8.220392E-19
5.719882E+03	2.865259E-17	8.188765E-19
5.729677E+03	2.866714E-17	8.153714E-19
5.739471E+03	2.868900E-17	8.114460E-19
5.749265E+03	2.871551E-17	8.070248E-19
5.759060E+03	2.874933E-17	8.021839E-19
5.768854E+03	2.879309E-17	7.969988E-19
5.778648E+03	2.884132E-17	7.913216E-19
5.788443E+03	2.889661E-17	7.852303E-19
5.798237E+03	2.895876E-17	7.787291E-19
5.808031E+03	2.902761E-17	7.718246E-19
5.817826E+03	2.910289E-17	7.645257E-19
5.827620E+03	2.918435E-17	7.568440E-19
5.837414E+03	2.926894E-17	7.487252E-19
5.847209E+03	2.936175E-17	7.403300E-19
5.857003E+03	2.945969E-17	7.316129E-19
5.866797E+03	2.955956E-17	7.225378E-19
5.876592E+03	2.966363E-17	7.132126E-19
5.886386E+03	2.977418E-17	7.037501E-19
5.896180E+03	2.988512E-17	6.940746E-19
5.905975E+03	2.999864E-17	6.843203E-19
5.915769E+03	3.011414E-17	6.745667E-19
5.925563E+03	3.023096E-17	6.649073E-19
5.935357E+03	3.034843E-17	6.554496E-19
5.945152E+03	3.046584E-17	6.463174E-19
5.954946E+03	3.058246E-17	6.376504E-19
5.964740E+03	3.069467E-17	6.295463E-19
5.974535E+03	3.080741E-17	6.222962E-19
5.984329E+03	3.091413E-17	6.159700E-19
5.994123E+03	3.101982E-17	6.108829E-19
6.003918E+03	3.111785E-17	6.071276E-19
6.013712E+03	3.121322E-17	6.050289E-19
6.023506E+03	3.129931E-17	6.046807E-19
6.033301E+03	3.137823E-17	6.063365E-19
6.043095E+03	3.144923E-17	6.101746E-19
6.052889E+03	3.151163E-17	6.163476E-19
6.062684E+03	3.156478E-17	6.249590E-19
6.072478E+03	3.160811E-17	6.359790E-19
6.082272E+03	3.164113E-17	6.493078E-19
6.092067E+03	3.166342E-17	6.648172E-19
6.101861E+03	3.167467E-17	6.823561E-19
6.111655E+03	3.167461E-17	7.017578E-19
6.121450E+03	3.166006E-17	7.227773E-19
6.131244E+03	3.163673E-17	7.453653E-19
6.141038E+03	3.159853E-17	7.692009E-19
6.150833E+03	3.155131E-17	7.942479E-19
6.160627E+03	3.148919E-17	8.201883E-19
6.170421E+03	3.141820E-17	8.470121E-19
6.180215E+03	3.133264E-17	8.744108E-19
6.190010E+03	3.123570E-17	9.023201E-19
6.199804E+03	3.113063E-17	9.306974E-19
6.209598E+03	3.101194E-17	9.592508E-19
6.219393E+03	3.088296E-17	9.879560E-19
6.229187E+03	3.074412E-17	1.016714E-18
6.238981E+03	3.059589E-17	1.045434E-18
6.248776E+03	3.043874E-17	1.074038E-18
6.258570E+03	3.027317E-17	1.102451E-18
6.268364E+03	3.009971E-17	1.130611E-18
6.278159E+03	2.991888E-17	1.158461E-18
6.287953E+03	2.973122E-17	1.185952E-18
6.297747E+03	2.953447E-17	1.212926E-18
6.307542E+03	2.933478E-17	1.239574E-18
6.317336E+03	2.912988E-17	1.265753E-18
6.327130E+03	2.891758E-17	1.291316E-18
6.336925E+03	2.870390E-17	1.316484E-18
6.346719E+03	2.848393E-17	1.340997E-18
6.356513E+03	2.826360E-17	1.365094E-18
6.366308E+03	2.803807E-17	1.388514E-18
6.376102E+03	2.781316E-17	1.411514E-18
6.385896E+03	2.758409E-17	1.433831E-18
6.395690E+03	2.735659E-17	1.455739E-18
6.405485E+03	2.712593E-17	1.476971E-18
6.415279E+03	2.689520E-17	1.497676E-18
6.425073E+03	2.666483E-17	1.517866E-18
6.434868E+03	2.643777E-17	1.537703E-18
6.444662E+03	2.620941E-17	1.556917E-18
6.454456E+03	2.598269E-17	1.575672E-18
6.464251E+03	2.575802E-17	1.593991E-18
6.474045E+03	2.553575E-17	1.611898E-18
6.483839E+03	2.531628E-17	1.629420E-18
6.493634E+03	2.509993E-17	1.646586E-18
6.503428E+03	2.488707E-17	1.663423E-18
6.513222E+03	2.467802E-17	1.679964E-18
6.523017E+03	2.447309E-17	1.696240E-18
6.532811E+03	2.427028E-17	1.712121E-18
6.542605E+03	2.407449E-17	1.727964E-18
6.552400E+03	2.388368E-17	1.743644E-18
6.562194E+03	2.369813E-17	1.759196E-18
6.571988E+03	2.351582E-17	1.774487E-18
6.581783E+03	2.334149E-17	1.789889E-18
6.591577E+03	2.317313E-17	1.805274E-18
6.601371E+03	2.300874E-17	1.820504E-18
6.611166E+03	2.285294E-17	1.835962E-18
6.620960E+03	2.270370E-17	1.851517E-18
6.630754E+03	2.255906E-17	1.867025E-18
6.640548E+03	2.242137E-17	1.882704E-18
6.650343E+03	2.229292E-17	1.898770E-18
6.660137E+03	2.216959E-17	1.914902E-18
6.669931E+03	2.205578E-17	1.931504E-18
6.679726E+03	2.194739E-17	1.948245E-18
6.689520E+03	2.184668E-17	1.965348E-18
6.699314E+03	2.175584E-17	1.983040E-18
6.709109E+03	2.167080E-17	2.000982E-18
6.718903E+03	2.159377E-17	2.019399E-18
6.728697E+03	2.152485E-17	2.038330E-18
6.738492E+03	2.146617E-17	2.058008E-18
6.748286E+03	2.141369E-17	2.078078E-18
6.758080E+03	2.136957E-17	2.098772E-18
6.767875E+03	2.133386E-17	2.120127E-18
6.777669E+03	2.130663E-17	2.142178E-18
6.787463E+03	2.128794E-17	2.164961E-18
6.797258E+03	2.127782E-17	2.188509E-18
6.807052E+03	2.127632E-17	2.212858E-18
6.816846E+03	2.128347E-17	2.238041E-18
6.826641E+03	2.129931E-17	2.264090E-18
6.836435E+03	2.132179E-17	2.290818E-18
6.846229E+03	2.135504E-17	2.318694E-18
6.856024E+03	2.139700E-17	2.347529E-18
6.865818E+03	2.144767E-17	2.377353E-18
6.875612E+03	2.150705E-17	2.408195E-18
6.885406E+03	2.157301E-17	2.439846E-18
6.895201E+03	2.164969E-17	2.472799E-18
6.904995E+03	2.173497E-17	2.506845E-18
6.914789E+03	2.182670E-17	2.541763E-18
6.924584E+03	2.192899E-17	2.578060E-18
6.934378E+03	2.203756E-17	2.615261E-18
6.944172E+03	2.215657E-17	2.653884E-18
6.953967E+03	2.228163E-17	2.693435E-18
6.963761E+03	2.241692E-17	2.734445E-18
6.973555E+03	2.255798E-17	2.776395E-18
6.983350E+03	2.270681E-17	2.819556E-18
6.993144E+03	2.286547E-17	2.864210E-18
7.002938E+03	2.302935E-17	2.909805E-18
7.012733E+03	2.320042E-17	2.956613E-18
7.022527E+03	2.337849E-17	3.004628E-18
7.032321E+03	2.356327E-17	3.053841E-18
7.042116E+03	2.375685E-17	3.104543E-18
7.051910E+03	2.395429E-17	3.156113E-18
7.061704E+03	2.415759E-17	3.208828E-18
7.071499E+03	2.436639E-17	3.262662E-18
7.081293E+03	2.458033E-17	3.317583E-18
7.091087E+03	2.479902E-17	3.373553E-18
7.100881E+03	2.502202E-17	3.430531E-18
7.110676E+03	2.524643E-17	3.488127E-18
7.120470E+03	2.547668E-17	3.546966E-18
7.130264E+03	2.570983E-17	3.606652E-18
7.140059E+03	2.594532E-17	3.667119E-18
7.149853E+03	2.618004E-17	3.727929E-18
7.159647E+03	2.641849E-17	3.789730E-18
7.169442E+03	2.665751E-17	3.852076E-18
7.179236E+03	2.689380E-17	3.914491E-18
7.189030E+03	2.713196E-17	3.977640E-18
7.198825E+03	2.736594E-17	4.040640E-18
7.208619E+03	2.760039E-17	4.104170E-18
7.218413E+03	2.782914E-17	4.167307E-18
7.228208E+03	2.805407E-17	4.230322E-18
7.238002E+03	2.827719E-17	4.293508E-18
7.247796E+03	2.849209E-17	4.355883E-18
7.257591E+03	2.870071E-17	4.417719E-18
7.267385E+03	2.890215E-17	4.478864E-18
7.277179E+03	2.909554E-17	4.539159E-18
7.286974E+03	2.927999E-17	4.598443E-18
7.296768E+03	2.945458E-17	4.656544E-18
7.306562E+03	2.961839E-17	4.713289E-18
7.316357E+03	2.977051E-17	4.768499E-18
7.326151E+03	2.990999E-17	4.821991E-18
7.335945E+03	3.003591E-17	4.873579E-18
7.345739E+03	3.014736E-17	4.923071E-18
7.355534E+03	3.024039E-17	4.969779E-18
7.365328E+03	3.032010E-17	5.014491E-18
7.375122E+03	3.038261E-17	5.056518E-18
7.384917E+03	3.042399E-17	5.095148E-18
7.394711E+03	3.044946E-17	5.131193E-18
7.404505E+03	3.045209E-17	5.163426E-18
7.414300E+03	3.043411E-17	5.192155E-18
7.424094E+03	3.039781E-17	5.217705E-18
7.433888E+03	3.033639E-17	5.238847E-18
7.443683E+03	3.025240E-17	5.255940E-18
7.453477E+03	3.014552E-17	5.268859E-18
7.463271E+03	3.001582E-17	5.277542E-18
7.473066E+03	2.986675E-17	5.282524E-18
7.482860E+03	2.969308E-17	5.282815E-18
7.492654E+03	2.949588E-17	5.278529E-18
7.502449E+03	2.928223E-17	5.270865E-18
7.512243E+03	2.905037E-17	5.259448E-18
7.522037E+03	2.880148E-17	5.244440E-18
7.531832E+03	2.853678E-17	5.226005E-18
7.541626E+03	2.825457E-17	5.203784E-18
7.551420E+03	2.796175E-17	5.178997E-18
7.561214E+03	2.765377E-17	5.150762E-18
7.571009E+03	2.733733E-17	5.120289E-18
7.580803E+03	2.700794E-17	5.086701E-18
7.590597E+03	2.667214E-17	5.051198E-18
7.600392E+03	2.632546E-17	5.012909E-18
