#wls	flux	fluxerr
1.573255E+03	5.353021E-03	1.126216E-03
1.612586E+03	5.903408E-03	1.241169E-03
1.651917E+03	6.483384E-03	1.362157E-03
1.691249E+03	7.085920E-03	1.487682E-03
1.730580E+03	7.700227E-03	1.615463E-03
1.769912E+03	8.309521E-03	1.741967E-03
1.809243E+03	8.890493E-03	1.862305E-03
1.848574E+03	9.412506E-03	1.970070E-03
1.887906E+03	9.837891E-03	2.057407E-03
1.927237E+03	1.012515E-02	2.115686E-03
1.966568E+03	1.023716E-02	2.137227E-03
2.005900E+03	1.015491E-02	2.118158E-03
2.045231E+03	9.891216E-03	2.061255E-03
2.084562E+03	9.490731E-03	1.975926E-03
2.123894E+03	9.008105E-03	1.873624E-03
2.163225E+03	8.479861E-03	1.761992E-03
2.202557E+03	7.916718E-03	1.643292E-03
2.241888E+03	7.318278E-03	1.517473E-03
2.281219E+03	6.689154E-03	1.385522E-03
2.320551E+03	6.043565E-03	1.250411E-03
2.359882E+03	5.401564E-03	1.116307E-03
2.399213E+03	4.783579E-03	9.874357E-04
2.438545E+03	4.206635E-03	8.672990E-04
2.477876E+03	3.682575E-03	7.583157E-04
2.517207E+03	3.217585E-03	6.617271E-04
2.556539E+03	2.812524E-03	5.776720E-04
2.595870E+03	2.463877E-03	5.053892E-04
2.635202E+03	2.165240E-03	4.435268E-04
2.674533E+03	1.909104E-03	3.905128E-04
2.713864E+03	1.688364E-03	3.448643E-04
2.753196E+03	1.497128E-03	3.053528E-04
2.792527E+03	1.330865E-03	2.710326E-04
2.831858E+03	1.186182E-03	2.411946E-04
2.871190E+03	1.060527E-03	2.153031E-04
2.910521E+03	9.519079E-04	1.929384E-04
2.949853E+03	8.587112E-04	1.737597E-04
2.959685E+03	8.376558E-04	1.694277E-04
2.969518E+03	8.174585E-04	1.652723E-04
2.979351E+03	7.980983E-04	1.612893E-04
2.989184E+03	7.795609E-04	1.574754E-04
2.999017E+03	7.618444E-04	1.538302E-04
3.008850E+03	7.449433E-04	1.503522E-04
3.018682E+03	7.288332E-04	1.470364E-04
3.028515E+03	7.134889E-04	1.438776E-04
3.038348E+03	6.988890E-04	1.408712E-04
3.048181E+03	6.850126E-04	1.380128E-04
3.058014E+03	6.718398E-04	1.352983E-04
3.067847E+03	6.593510E-04	1.327235E-04
3.077679E+03	6.475318E-04	1.302855E-04
3.087512E+03	6.363658E-04	1.279806E-04
3.097345E+03	6.258390E-04	1.258059E-04
3.107178E+03	6.159407E-04	1.237592E-04
3.117011E+03	6.066593E-04	1.218379E-04
3.126844E+03	5.979874E-04	1.200404E-04
3.136676E+03	5.899180E-04	1.183651E-04
3.146509E+03	5.824458E-04	1.168108E-04
3.156342E+03	5.755680E-04	1.153767E-04
3.166175E+03	5.692808E-04	1.140621E-04
3.176008E+03	5.635849E-04	1.128668E-04
3.185841E+03	5.584769E-04	1.117899E-04
3.195674E+03	5.539588E-04	1.108319E-04
3.205506E+03	5.500300E-04	1.099922E-04
3.215339E+03	5.466896E-04	1.092707E-04
3.225172E+03	5.439375E-04	1.086670E-04
3.235005E+03	5.417709E-04	1.081806E-04
3.244838E+03	5.401855E-04	1.078103E-04
3.254671E+03	5.391775E-04	1.075552E-04
3.264503E+03	5.387371E-04	1.074133E-04
3.274336E+03	5.388535E-04	1.073821E-04
3.284169E+03	5.395122E-04	1.074586E-04
3.294002E+03	5.406947E-04	1.076390E-04
3.303835E+03	5.423760E-04	1.079181E-04
3.313668E+03	5.445277E-04	1.082901E-04
3.323500E+03	5.471123E-04	1.087475E-04
3.333333E+03	5.500873E-04	1.092817E-04
3.343166E+03	5.533978E-04	1.098815E-04
3.352999E+03	5.569864E-04	1.105355E-04
3.362832E+03	5.607790E-04	1.112290E-04
3.372665E+03	5.646953E-04	1.119459E-04
3.382498E+03	5.686427E-04	1.126679E-04
3.392330E+03	5.725188E-04	1.133746E-04
3.402163E+03	5.762150E-04	1.140446E-04
3.411996E+03	5.796086E-04	1.146536E-04
3.421829E+03	5.825759E-04	1.151773E-04
3.431662E+03	5.849955E-04	1.155918E-04
3.441495E+03	5.867435E-04	1.158729E-04
3.451327E+03	5.877099E-04	1.159991E-04
3.461160E+03	5.878013E-04	1.159521E-04
3.470993E+03	5.869444E-04	1.157178E-04
3.480826E+03	5.850969E-04	1.152882E-04
3.490659E+03	5.822521E-04	1.146624E-04
3.500492E+03	5.784329E-04	1.138451E-04
3.510324E+03	5.737050E-04	1.128496E-04
3.520157E+03	5.681617E-04	1.116946E-04
3.529990E+03	5.619242E-04	1.104042E-04
3.539823E+03	5.551358E-04	1.090068E-04
3.549656E+03	5.479487E-04	1.075324E-04
3.559489E+03	5.405248E-04	1.060129E-04
3.569322E+03	5.330164E-04	1.044783E-04
3.579154E+03	5.255694E-04	1.029573E-04
3.588987E+03	5.183146E-04	1.014753E-04
3.598820E+03	5.113640E-04	1.000543E-04
3.608653E+03	5.048067E-04	9.871155E-05
3.618486E+03	4.987041E-04	9.745899E-05
3.628319E+03	4.930973E-04	9.630446E-05
3.638151E+03	4.879977E-04	9.525000E-05
3.647984E+03	4.833919E-04	9.429286E-05
3.657817E+03	4.792468E-04	9.342639E-05
3.667650E+03	4.755055E-04	9.263936E-05
3.677483E+03	4.720964E-04	9.191768E-05
3.687316E+03	4.689346E-04	9.124472E-05
3.697148E+03	4.659316E-04	9.060318E-05
3.706981E+03	4.629924E-04	8.997453E-05
3.716814E+03	4.600304E-04	8.934197E-05
3.726647E+03	4.569660E-04	8.869003E-05
3.736480E+03	4.537302E-04	8.800538E-05
3.746313E+03	4.502734E-04	8.727848E-05
3.756146E+03	4.465628E-04	8.650305E-05
3.765978E+03	4.425837E-04	8.567638E-05
3.775811E+03	4.383428E-04	8.479983E-05
3.785644E+03	4.338672E-04	8.387880E-05
3.795477E+03	4.291923E-04	8.292018E-05
3.805310E+03	4.243677E-04	8.193365E-05
3.815143E+03	4.194474E-04	8.092968E-05
3.824975E+03	4.144806E-04	7.991781E-05
3.834808E+03	4.095188E-04	7.890802E-05
3.844641E+03	4.045987E-04	7.790732E-05
3.854474E+03	3.997532E-04	7.692208E-05
3.864307E+03	3.950038E-04	7.595639E-05
3.874140E+03	3.903651E-04	7.501305E-05
3.883972E+03	3.858482E-04	7.409414E-05
3.893805E+03	3.814656E-04	7.320199E-05
3.903638E+03	3.772326E-04	7.233954E-05
3.913471E+03	3.731689E-04	7.151049E-05
3.923304E+03	3.692996E-04	7.071956E-05
3.933137E+03	3.656572E-04	6.997295E-05
3.942970E+03	3.622713E-04	6.927619E-05
3.952802E+03	3.591720E-04	6.863494E-05
3.962635E+03	3.563836E-04	6.805374E-05
3.972468E+03	3.539136E-04	6.753392E-05
3.982301E+03	3.517623E-04	6.707537E-05
3.992134E+03	3.499095E-04	6.667413E-05
4.001967E+03	3.483186E-04	6.632312E-05
4.011799E+03	3.469354E-04	6.601192E-05
4.021632E+03	3.456920E-04	6.572754E-05
4.031465E+03	3.445090E-04	6.545483E-05
4.041298E+03	3.432975E-04	6.517690E-05
4.051131E+03	3.419708E-04	6.487730E-05
4.060964E+03	3.404370E-04	6.453867E-05
4.070796E+03	3.386190E-04	6.414651E-05
4.080629E+03	3.364535E-04	6.368893E-05
4.090462E+03	3.338923E-04	6.315698E-05
4.100295E+03	3.309160E-04	6.254717E-05
4.110128E+03	3.275250E-04	6.185975E-05
4.119961E+03	3.237484E-04	6.110039E-05
4.129794E+03	3.196407E-04	6.027954E-05
4.139626E+03	3.152692E-04	5.941004E-05
4.149459E+03	3.107164E-04	5.850754E-05
4.159292E+03	3.060684E-04	5.758832E-05
4.169125E+03	3.014042E-04	5.666728E-05
4.178958E+03	2.968008E-04	5.575889E-05
4.188791E+03	2.923169E-04	5.487419E-05
4.198623E+03	2.880059E-04	5.402311E-05
4.208456E+03	2.839046E-04	5.321248E-05
4.218289E+03	2.800420E-04	5.244767E-05
4.228122E+03	2.764408E-04	5.173281E-05
4.237955E+03	2.731144E-04	5.107030E-05
4.247788E+03	2.700703E-04	5.046144E-05
4.257620E+03	2.673086E-04	4.990609E-05
4.267453E+03	2.648225E-04	4.940290E-05
4.277286E+03	2.626017E-04	4.894983E-05
4.287119E+03	2.606285E-04	4.854345E-05
4.296952E+03	2.588817E-04	4.817970E-05
4.306785E+03	2.573328E-04	4.785321E-05
4.316618E+03	2.559582E-04	4.755952E-05
4.326450E+03	2.547356E-04	4.729437E-05
4.336283E+03	2.536508E-04	4.705510E-05
4.346116E+03	2.526983E-04	4.684060E-05
4.355949E+03	2.518831E-04	4.665177E-05
4.365782E+03	2.512207E-04	4.649139E-05
4.375615E+03	2.507392E-04	4.636461E-05
4.385447E+03	2.504721E-04	4.627754E-05
4.395280E+03	2.504564E-04	4.623692E-05
4.405113E+03	2.507349E-04	4.625051E-05
4.414946E+03	2.513424E-04	4.632460E-05
4.424779E+03	2.523083E-04	4.646448E-05
4.434612E+03	2.536517E-04	4.667348E-05
4.444444E+03	2.553787E-04	4.695256E-05
4.454277E+03	2.574786E-04	4.729959E-05
4.464110E+03	2.599314E-04	4.771070E-05
4.473943E+03	2.627066E-04	4.818017E-05
4.483776E+03	2.657646E-04	4.870060E-05
4.493609E+03	2.690678E-04	4.926495E-05
4.503441E+03	2.725812E-04	4.986674E-05
4.513274E+03	2.762792E-04	5.050116E-05
4.523107E+03	2.801459E-04	5.116524E-05
4.532940E+03	2.841820E-04	5.185905E-05
4.542773E+03	2.883940E-04	5.258368E-05
4.552606E+03	2.927945E-04	5.334135E-05
4.562439E+03	2.973882E-04	5.413283E-05
4.572271E+03	3.021527E-04	5.495398E-05
4.582104E+03	3.070398E-04	5.579594E-05
4.591937E+03	3.119673E-04	5.664373E-05
4.601770E+03	3.168102E-04	5.747468E-05
4.611603E+03	3.214019E-04	5.825863E-05
4.621436E+03	3.255537E-04	5.896152E-05
4.631268E+03	3.290465E-04	5.954390E-05
4.641101E+03	3.316725E-04	5.996853E-05
4.650934E+03	3.332367E-04	6.020054E-05
4.660767E+03	3.335865E-04	6.021292E-05
4.670600E+03	3.326267E-04	5.998904E-05
4.680433E+03	3.303367E-04	5.952577E-05
4.690265E+03	3.267584E-04	5.883131E-05
4.700098E+03	3.220171E-04	5.792876E-05
4.709931E+03	3.162838E-04	5.684940E-05
4.719764E+03	3.097837E-04	5.563412E-05
4.729597E+03	3.027556E-04	5.432612E-05
4.739430E+03	2.954383E-04	5.296846E-05
4.749263E+03	2.880544E-04	5.160113E-05
4.759095E+03	2.807948E-04	5.025837E-05
4.768928E+03	2.738031E-04	4.896575E-05
4.778761E+03	2.671791E-04	4.774102E-05
4.788594E+03	2.609806E-04	4.659431E-05
4.798427E+03	2.552212E-04	4.552787E-05
4.808260E+03	2.498854E-04	4.453872E-05
4.818092E+03	2.449359E-04	4.362005E-05
4.827925E+03	2.403189E-04	4.276210E-05
4.837758E+03	2.359715E-04	4.195355E-05
4.847591E+03	2.318376E-04	4.118429E-05
4.857424E+03	2.278586E-04	4.044384E-05
4.867257E+03	2.239961E-04	3.972531E-05
4.877089E+03	2.202136E-04	3.902220E-05
4.886922E+03	2.164938E-04	3.833139E-05
4.896755E+03	2.128291E-04	3.765152E-05
4.906588E+03	2.092241E-04	3.698337E-05
4.916421E+03	2.056898E-04	3.632886E-05
4.926254E+03	2.022420E-04	3.569075E-05
4.936087E+03	1.988997E-04	3.507233E-05
4.945919E+03	1.956847E-04	3.447742E-05
4.955752E+03	1.926101E-04	3.390825E-05
4.965585E+03	1.896931E-04	3.336781E-05
4.975418E+03	1.869375E-04	3.285666E-05
4.985251E+03	1.843481E-04	3.237562E-05
4.995084E+03	1.819202E-04	3.192375E-05
5.004916E+03	1.796480E-04	3.150001E-05
5.014749E+03	1.775237E-04	3.110292E-05
5.024582E+03	1.755370E-04	3.073063E-05
5.034415E+03	1.736778E-04	3.038135E-05
5.044248E+03	1.719381E-04	3.005358E-05
5.054081E+03	1.703146E-04	2.974671E-05
5.063913E+03	1.688004E-04	2.945950E-05
5.073746E+03	1.673930E-04	2.919146E-05
5.083579E+03	1.660875E-04	2.894171E-05
5.093412E+03	1.648794E-04	2.870941E-05
5.103245E+03	1.637608E-04	2.849314E-05
5.113078E+03	1.627212E-04	2.829104E-05
5.122911E+03	1.617496E-04	2.810121E-05
5.132743E+03	1.608340E-04	2.792149E-05
5.142576E+03	1.599585E-04	2.774913E-05
5.152409E+03	1.591114E-04	2.758207E-05
5.162242E+03	1.582823E-04	2.741852E-05
5.172075E+03	1.574600E-04	2.725653E-05
5.181908E+03	1.566405E-04	2.709539E-05
5.191740E+03	1.558188E-04	2.693425E-05
5.201573E+03	1.549916E-04	2.677255E-05
5.211406E+03	1.541564E-04	2.660984E-05
5.221239E+03	1.533119E-04	2.644591E-05
5.231072E+03	1.524542E-04	2.628009E-05
5.240905E+03	1.515788E-04	2.611164E-05
5.250737E+03	1.506785E-04	2.593926E-05
5.260570E+03	1.497438E-04	2.576140E-05
5.270403E+03	1.487671E-04	2.557672E-05
5.280236E+03	1.477394E-04	2.538369E-05
5.290069E+03	1.466557E-04	2.518149E-05
5.299902E+03	1.455108E-04	2.496922E-05
5.309735E+03	1.443040E-04	2.474678E-05
5.319567E+03	1.430387E-04	2.451478E-05
5.329400E+03	1.417166E-04	2.427353E-05
5.339233E+03	1.403455E-04	2.402434E-05
5.349066E+03	1.389332E-04	2.376859E-05
5.358899E+03	1.374849E-04	2.350715E-05
5.368732E+03	1.360018E-04	2.324026E-05
5.378564E+03	1.344888E-04	2.296873E-05
5.388397E+03	1.329510E-04	2.269346E-05
5.398230E+03	1.313885E-04	2.241443E-05
5.408063E+03	1.297998E-04	2.213142E-05
5.417896E+03	1.281737E-04	2.184251E-05
5.427729E+03	1.265052E-04	2.154686E-05
5.437561E+03	1.247929E-04	2.124420E-05
5.447394E+03	1.230485E-04	2.093657E-05
5.457227E+03	1.212923E-04	2.062742E-05
5.467060E+03	1.195494E-04	2.032097E-05
5.476893E+03	1.178436E-04	2.002131E-05
5.486726E+03	1.161959E-04	1.973195E-05
5.496559E+03	1.146229E-04	1.945569E-05
5.506391E+03	1.131345E-04	1.919419E-05
5.516224E+03	1.117331E-04	1.894785E-05
5.526057E+03	1.104183E-04	1.871655E-05
5.535890E+03	1.091803E-04	1.849863E-05
5.545723E+03	1.080125E-04	1.829292E-05
5.555556E+03	1.069049E-04	1.809774E-05
5.565388E+03	1.058481E-04	1.791145E-05
5.575221E+03	1.048369E-04	1.773317E-05
5.585054E+03	1.038637E-04	1.756161E-05
5.594887E+03	1.029253E-04	1.739620E-05
5.604720E+03	1.020168E-04	1.723613E-05
5.614553E+03	1.011388E-04	1.708147E-05
5.624385E+03	1.002853E-04	1.693120E-05
5.634218E+03	9.945302E-05	1.678476E-05
5.644051E+03	9.863766E-05	1.664142E-05
5.653884E+03	9.783107E-05	1.649980E-05
5.663717E+03	9.702684E-05	1.635882E-05
5.673550E+03	9.621834E-05	1.621734E-05
5.683382E+03	9.539697E-05	1.607393E-05
5.693215E+03	9.455930E-05	1.592800E-05
5.703048E+03	9.369891E-05	1.577847E-05
5.712881E+03	9.281695E-05	1.562554E-05
5.722714E+03	9.191355E-05	1.546923E-05
5.732547E+03	9.099384E-05	1.531039E-05
5.742380E+03	9.006377E-05	1.515003E-05
5.752212E+03	8.913055E-05	1.498936E-05
5.762045E+03	8.820295E-05	1.482986E-05
5.771878E+03	8.728772E-05	1.467264E-05
5.781711E+03	8.638866E-05	1.451835E-05
5.791544E+03	8.551077E-05	1.436782E-05
5.801377E+03	8.465109E-05	1.422055E-05
5.811209E+03	8.380977E-05	1.407655E-05
5.821042E+03	8.297794E-05	1.393434E-05
5.830875E+03	8.214830E-05	1.379268E-05
5.840708E+03	8.131104E-05	1.364993E-05
5.850541E+03	8.045626E-05	1.350441E-05
5.860374E+03	7.957626E-05	1.335484E-05
5.870206E+03	7.866422E-05	1.320006E-05
5.880039E+03	7.771613E-05	1.303941E-05
5.889872E+03	7.673132E-05	1.287277E-05
5.899705E+03	7.571252E-05	1.270060E-05
5.909538E+03	7.466792E-05	1.252426E-05
5.919371E+03	7.360333E-05	1.234474E-05
5.929204E+03	7.253097E-05	1.216406E-05
5.939036E+03	7.146142E-05	1.198401E-05
5.948869E+03	7.040524E-05	1.180635E-05
5.958702E+03	6.937238E-05	1.163274E-05
5.968535E+03	6.837399E-05	1.146506E-05
5.978368E+03	6.741637E-05	1.130433E-05
5.988201E+03	6.650538E-05	1.115156E-05
5.998033E+03	6.564747E-05	1.100781E-05
6.007866E+03	6.484530E-05	1.087353E-05
6.017699E+03	6.410127E-05	1.074912E-05
6.027532E+03	6.341344E-05	1.063424E-05
6.037365E+03	6.278338E-05	1.052917E-05
6.047198E+03	6.220771E-05	1.043333E-05
6.057030E+03	6.168354E-05	1.034623E-05
6.066863E+03	6.120641E-05	1.026714E-05
6.076696E+03	6.077459E-05	1.019575E-05
6.086529E+03	6.038166E-05	1.013100E-05
6.096362E+03	6.002310E-05	1.007212E-05
6.106195E+03	5.969649E-05	1.001872E-05
6.116028E+03	5.939549E-05	9.969717E-06
6.125860E+03	5.911852E-05	9.924861E-06
6.135693E+03	5.886266E-05	9.883660E-06
6.145526E+03	5.862475E-05	9.845583E-06
6.155359E+03	5.840443E-05	9.810571E-06
6.165192E+03	5.820186E-05	9.778656E-06
6.175025E+03	5.801645E-05	9.749733E-06
6.184857E+03	5.784758E-05	9.723708E-06
6.194690E+03	5.769668E-05	9.700817E-06
6.204523E+03	5.756084E-05	9.680577E-06
6.214356E+03	5.744244E-05	9.663387E-06
6.224189E+03	5.733987E-05	9.648983E-06
6.234022E+03	5.725402E-05	9.637514E-06
6.243854E+03	5.718630E-05	9.629221E-06
6.253687E+03	5.713754E-05	9.624250E-06
6.263520E+03	5.711101E-05	9.623154E-06
6.273353E+03	5.710793E-05	9.626142E-06
6.283186E+03	5.713138E-05	9.633740E-06
6.293019E+03	5.718072E-05	9.645847E-06
6.302852E+03	5.725890E-05	9.662966E-06
6.312684E+03	5.736372E-05	9.684735E-06
6.322517E+03	5.749642E-05	9.711370E-06
6.332350E+03	5.765521E-05	9.742574E-06
6.342183E+03	5.783638E-05	9.777731E-06
6.352016E+03	5.803666E-05	9.816289E-06
6.361849E+03	5.825447E-05	9.857985E-06
6.371681E+03	5.848364E-05	9.901781E-06
6.381514E+03	5.872268E-05	9.947424E-06
6.391347E+03	5.896725E-05	9.994183E-06
6.401180E+03	5.921510E-05	1.004168E-05
6.411013E+03	5.946646E-05	1.008994E-05
6.420846E+03	5.972114E-05	1.013895E-05
6.430678E+03	5.998348E-05	1.018945E-05
6.440511E+03	6.025832E-05	1.024224E-05
6.450344E+03	6.054932E-05	1.029797E-05
6.460177E+03	6.086201E-05	1.035758E-05
6.470010E+03	6.119412E-05	1.042068E-05
6.479843E+03	6.154304E-05	1.048685E-05
6.489676E+03	6.190205E-05	1.055493E-05
6.499508E+03	6.225799E-05	1.062269E-05
6.509341E+03	6.259447E-05	1.068733E-05
6.519174E+03	6.289714E-05	1.074638E-05
6.529007E+03	6.314935E-05	1.079700E-05
6.538840E+03	6.333409E-05	1.083625E-05
6.548673E+03	6.344364E-05	1.086278E-05
6.558505E+03	6.347201E-05	1.087554E-05
6.568338E+03	6.342060E-05	1.087473E-05
6.578171E+03	6.329781E-05	1.086177E-05
6.588004E+03	6.311384E-05	1.083838E-05
6.597837E+03	6.288245E-05	1.080689E-05
6.607670E+03	6.261880E-05	1.076988E-05
6.617502E+03	6.233205E-05	1.072893E-05
6.627335E+03	6.203433E-05	1.068611E-05
6.637168E+03	6.172576E-05	1.064143E-05
6.647001E+03	6.140775E-05	1.059512E-05
6.656834E+03	6.107881E-05	1.054693E-05
6.666667E+03	6.073366E-05	1.049592E-05
6.676500E+03	6.036759E-05	1.044129E-05
6.686332E+03	5.998193E-05	1.038323E-05
6.696165E+03	5.957742E-05	1.032188E-05
6.705998E+03	5.915979E-05	1.025821E-05
6.715831E+03	5.873689E-05	1.019358E-05
6.725664E+03	5.832279E-05	1.013042E-05
6.735497E+03	5.792770E-05	1.007050E-05
6.745329E+03	5.756547E-05	1.001626E-05
6.755162E+03	5.724607E-05	9.969425E-06
6.764995E+03	5.698105E-05	9.932036E-06
6.774828E+03	5.677313E-05	9.904586E-06
6.784661E+03	5.662839E-05	9.888164E-06
6.794494E+03	5.654780E-05	9.882964E-06
6.804326E+03	5.652869E-05	9.888552E-06
6.814159E+03	5.656770E-05	9.904361E-06
6.823992E+03	5.665995E-05	9.929566E-06
6.833825E+03	5.679961E-05	9.963167E-06
6.843658E+03	5.698046E-05	1.000410E-05
6.853491E+03	5.719767E-05	1.005152E-05
6.863324E+03	5.744337E-05	1.010407E-05
6.873156E+03	5.771339E-05	1.016103E-05
6.882989E+03	5.800781E-05	1.022243E-05
6.892822E+03	5.832339E-05	1.028770E-05
6.902655E+03	5.866260E-05	1.035728E-05
6.912488E+03	5.902690E-05	1.043145E-05
6.922321E+03	5.942021E-05	1.051092E-05
6.932153E+03	5.984838E-05	1.059673E-05
6.941986E+03	6.031457E-05	1.068945E-05
6.951819E+03	6.082260E-05	1.078980E-05
6.961652E+03	6.137511E-05	1.089825E-05
6.971485E+03	6.197312E-05	1.101500E-05
6.981318E+03	6.261570E-05	1.113993E-05
6.991150E+03	6.329961E-05	1.127246E-05
7.000983E+03	6.401902E-05	1.141159E-05
7.010816E+03	6.476385E-05	1.155554E-05
7.020649E+03	6.552400E-05	1.170250E-05
7.030482E+03	6.628357E-05	1.184965E-05
7.040315E+03	6.702723E-05	1.199424E-05
7.050147E+03	6.773481E-05	1.213266E-05
7.059980E+03	6.838698E-05	1.226141E-05
7.069813E+03	6.896508E-05	1.237711E-05
7.079646E+03	6.945404E-05	1.247703E-05
7.089479E+03	6.983713E-05	1.255810E-05
7.099312E+03	7.010837E-05	1.261919E-05
7.109145E+03	7.026141E-05	1.265910E-05
7.118977E+03	7.029452E-05	1.267745E-05
7.128810E+03	7.021362E-05	1.267524E-05
7.138643E+03	7.002646E-05	1.265381E-05
7.148476E+03	6.974351E-05	1.261501E-05
7.158309E+03	6.937532E-05	1.256068E-05
7.168142E+03	6.893678E-05	1.249349E-05
7.177974E+03	6.844127E-05	1.241581E-05
7.187807E+03	6.790008E-05	1.232967E-05
7.197640E+03	6.732535E-05	1.223724E-05
7.207473E+03	6.672967E-05	1.214081E-05
7.217306E+03	6.612252E-05	1.204208E-05
7.227139E+03	6.551017E-05	1.194218E-05
7.236971E+03	6.490064E-05	1.184259E-05
7.246804E+03	6.429716E-05	1.174388E-05
7.256637E+03	6.370338E-05	1.164674E-05
7.266470E+03	6.312362E-05	1.155194E-05
7.276303E+03	6.255990E-05	1.145988E-05
7.286136E+03	6.201239E-05	1.137058E-05
7.295969E+03	6.148455E-05	1.128469E-05
7.305801E+03	6.097846E-05	1.120261E-05
7.315634E+03	6.049656E-05	1.112479E-05
7.325467E+03	6.003990E-05	1.105144E-05
7.335300E+03	5.961450E-05	1.098368E-05
7.345133E+03	5.922133E-05	1.092171E-05
7.354966E+03	5.886422E-05	1.086624E-05
7.364798E+03	5.854148E-05	1.081699E-05
7.374631E+03	5.825866E-05	1.077499E-05
7.384464E+03	5.801393E-05	1.073994E-05
7.394297E+03	5.780462E-05	1.071135E-05
7.404130E+03	5.763206E-05	1.068949E-05
7.413963E+03	5.749054E-05	1.067332E-05
7.423795E+03	5.738042E-05	1.066292E-05
7.433628E+03	5.729870E-05	1.065776E-05
7.443461E+03	5.724082E-05	1.065698E-05
7.453294E+03	5.720405E-05	1.066011E-05
7.463127E+03	5.718931E-05	1.066731E-05
7.472960E+03	5.719278E-05	1.067789E-05
7.482793E+03	5.721080E-05	1.069117E-05
7.492625E+03	5.724634E-05	1.070772E-05
7.502458E+03	5.729202E-05	1.072616E-05
7.512291E+03	5.734837E-05	1.074660E-05
7.522124E+03	5.741190E-05	1.076838E-05
7.531957E+03	5.747826E-05	1.079069E-05
7.541790E+03	5.754233E-05	1.081258E-05
7.551622E+03	5.760007E-05	1.083327E-05
7.561455E+03	5.764177E-05	1.085095E-05
7.571288E+03	5.766666E-05	1.086544E-05
7.581121E+03	5.766374E-05	1.087468E-05
7.590954E+03	5.763392E-05	1.087882E-05
7.600787E+03	5.757226E-05	1.087690E-05
7.610619E+03	5.747553E-05	1.086831E-05
7.620452E+03	5.734776E-05	1.085379E-05
7.630285E+03	5.718898E-05	1.083332E-05
