#wls	flux	fluxerr
1.573255E+03	5.047954E-05	6.912794E-06
1.612586E+03	5.281827E-05	7.219668E-06
1.651917E+03	5.522675E-05	7.534498E-06
1.691249E+03	5.779145E-05	7.868947E-06
1.730580E+03	6.042078E-05	8.210381E-06
1.769912E+03	6.318670E-05	8.568444E-06
1.809243E+03	6.601282E-05	8.932613E-06
1.848574E+03	6.880330E-05	9.289822E-06
1.887906E+03	7.160259E-05	9.646021E-06
1.927237E+03	7.435918E-05	9.994202E-06
1.966568E+03	7.699646E-05	1.032406E-05
2.005900E+03	7.957365E-05	1.064356E-05
2.045231E+03	8.235156E-05	1.098747E-05
2.084562E+03	8.568705E-05	1.140302E-05
2.123894E+03	8.997161E-05	1.194149E-05
2.163225E+03	9.543970E-05	1.263278E-05
2.202557E+03	1.020640E-04	1.347185E-05
2.241888E+03	1.096217E-04	1.442792E-05
2.281219E+03	1.179133E-04	1.547351E-05
2.320551E+03	1.267328E-04	1.658059E-05
2.359882E+03	1.359591E-04	1.773249E-05
2.399213E+03	1.454606E-04	1.891130E-05
2.438545E+03	1.554815E-04	2.014805E-05
2.477876E+03	1.659751E-04	2.143574E-05
2.517207E+03	1.769816E-04	2.277862E-05
2.556539E+03	1.886319E-04	2.419243E-05
2.595870E+03	2.011508E-04	2.570467E-05
2.635202E+03	2.144606E-04	2.730383E-05
2.674533E+03	2.287476E-04	2.901201E-05
2.713864E+03	2.440727E-04	3.083500E-05
2.753196E+03	2.605650E-04	3.278705E-05
2.792527E+03	2.779872E-04	3.483610E-05
2.831858E+03	2.965922E-04	3.701172E-05
2.871190E+03	3.162602E-04	3.929655E-05
2.910521E+03	3.369284E-04	4.168050E-05
2.949853E+03	3.585994E-04	4.416157E-05
2.959685E+03	3.641157E-04	4.478958E-05
2.969518E+03	3.697502E-04	4.543032E-05
2.979351E+03	3.753822E-04	4.606891E-05
2.989184E+03	3.810081E-04	4.670488E-05
2.999017E+03	3.867427E-04	4.735232E-05
3.008850E+03	3.925884E-04	4.801143E-05
3.018682E+03	3.985353E-04	4.868095E-05
3.028515E+03	4.044623E-04	4.934605E-05
3.038348E+03	4.104735E-04	5.001941E-05
3.048181E+03	4.164478E-04	5.068626E-05
3.058014E+03	4.226028E-04	5.137302E-05
3.067847E+03	4.287052E-04	5.205131E-05
3.077679E+03	4.349712E-04	5.274734E-05
3.087512E+03	4.411698E-04	5.343305E-05
3.097345E+03	4.475167E-04	5.413455E-05
3.107178E+03	4.538927E-04	5.483735E-05
3.117011E+03	4.602921E-04	5.554077E-05
3.126844E+03	4.668174E-04	5.625709E-05
3.136676E+03	4.732440E-04	5.695925E-05
3.146509E+03	4.798932E-04	5.768589E-05
3.156342E+03	4.864342E-04	5.839717E-05
3.166175E+03	4.931853E-04	5.913131E-05
3.176008E+03	4.999269E-04	5.986190E-05
3.185841E+03	5.067614E-04	6.060116E-05
3.195674E+03	5.136849E-04	6.134859E-05
3.205506E+03	5.205888E-04	6.209117E-05
3.215339E+03	5.276799E-04	6.285354E-05
3.225172E+03	5.348501E-04	6.362272E-05
3.235005E+03	5.420972E-04	6.439842E-05
3.244838E+03	5.494208E-04	6.518053E-05
3.254671E+03	5.569193E-04	6.598067E-05
3.264503E+03	5.644916E-04	6.678675E-05
3.274336E+03	5.722365E-04	6.761044E-05
3.284169E+03	5.801524E-04	6.845142E-05
3.294002E+03	5.882382E-04	6.930947E-05
3.303835E+03	5.964933E-04	7.018443E-05
3.313668E+03	6.049178E-04	7.107621E-05
3.323500E+03	6.136062E-04	7.199580E-05
3.333333E+03	6.224627E-04	7.293182E-05
3.343166E+03	6.315813E-04	7.389518E-05
3.352999E+03	6.408677E-04	7.487472E-05
3.362832E+03	6.505058E-04	7.589179E-05
3.372665E+03	6.604911E-04	7.694568E-05
3.382498E+03	6.706398E-04	7.801480E-05
3.392330E+03	6.812195E-04	7.913014E-05
3.402163E+03	6.920450E-04	8.027001E-05
3.411996E+03	7.032014E-04	8.144409E-05
3.421829E+03	7.147682E-04	8.266140E-05
3.431662E+03	7.266488E-04	8.391054E-05
3.441495E+03	7.388343E-04	8.519034E-05
3.451327E+03	7.514838E-04	8.651891E-05
3.461160E+03	7.644955E-04	8.788430E-05
3.470993E+03	7.778520E-04	8.928429E-05
3.480826E+03	7.915335E-04	9.071643E-05
3.490659E+03	8.056813E-04	9.219669E-05
3.500492E+03	8.201024E-04	9.370275E-05
3.510324E+03	8.348474E-04	9.524022E-05
3.520157E+03	8.499594E-04	9.681381E-05
3.529990E+03	8.653164E-04	9.840944E-05
3.539823E+03	8.808710E-04	1.000216E-04
3.549656E+03	8.967288E-04	1.016621E-04
3.559489E+03	9.126716E-04	1.033060E-04
3.569322E+03	9.286362E-04	1.049462E-04
3.579154E+03	9.446300E-04	1.065835E-04
3.588987E+03	9.605796E-04	1.082095E-04
3.598820E+03	9.764137E-04	1.098162E-04
3.608653E+03	9.920704E-04	1.113968E-04
3.618486E+03	1.007431E-03	1.129380E-04
3.628319E+03	1.022472E-03	1.144373E-04
3.638151E+03	1.037262E-03	1.159025E-04
3.647984E+03	1.051744E-03	1.173275E-04
3.657817E+03	1.065952E-03	1.187161E-04
3.667650E+03	1.079930E-03	1.200734E-04
3.677483E+03	1.093722E-03	1.214043E-04
3.687316E+03	1.107304E-03	1.227064E-04
3.697148E+03	1.120849E-03	1.239988E-04
3.706981E+03	1.134186E-03	1.252627E-04
3.716814E+03	1.147466E-03	1.265148E-04
3.726647E+03	1.160632E-03	1.277489E-04
3.736480E+03	1.173747E-03	1.289720E-04
3.746313E+03	1.186686E-03	1.301704E-04
3.756146E+03	1.199519E-03	1.313516E-04
3.765978E+03	1.212264E-03	1.325181E-04
3.775811E+03	1.224898E-03	1.336671E-04
3.785644E+03	1.237472E-03	1.348043E-04
3.795477E+03	1.250107E-03	1.359429E-04
3.805310E+03	1.262758E-03	1.370780E-04
3.815143E+03	1.275614E-03	1.382300E-04
3.824975E+03	1.288631E-03	1.393939E-04
3.834808E+03	1.301929E-03	1.405830E-04
3.844641E+03	1.315564E-03	1.418027E-04
3.854474E+03	1.329467E-03	1.430456E-04
3.864307E+03	1.343766E-03	1.443252E-04
3.874140E+03	1.358401E-03	1.456351E-04
3.883972E+03	1.373333E-03	1.469705E-04
3.893805E+03	1.388492E-03	1.483242E-04
3.903638E+03	1.403739E-03	1.496810E-04
3.913471E+03	1.419019E-03	1.510349E-04
3.923304E+03	1.434219E-03	1.523741E-04
3.933137E+03	1.449128E-03	1.536762E-04
3.942970E+03	1.463747E-03	1.549415E-04
3.952802E+03	1.477995E-03	1.561614E-04
3.962635E+03	1.491713E-03	1.573198E-04
3.972468E+03	1.504916E-03	1.584182E-04
3.982301E+03	1.517588E-03	1.594555E-04
3.992134E+03	1.529719E-03	1.604307E-04
4.001967E+03	1.541294E-03	1.613428E-04
4.011799E+03	1.552290E-03	1.621896E-04
4.021632E+03	1.562628E-03	1.629633E-04
4.031465E+03	1.572311E-03	1.636646E-04
4.041298E+03	1.581306E-03	1.642904E-04
4.051131E+03	1.589605E-03	1.648404E-04
4.060964E+03	1.597197E-03	1.653138E-04
4.070796E+03	1.604247E-03	1.657281E-04
4.080629E+03	1.610787E-03	1.660871E-04
4.090462E+03	1.616965E-03	1.664061E-04
4.100295E+03	1.623008E-03	1.667089E-04
4.110128E+03	1.628983E-03	1.670022E-04
4.119961E+03	1.634932E-03	1.672906E-04
4.129794E+03	1.640786E-03	1.675670E-04
4.139626E+03	1.646571E-03	1.678341E-04
4.149459E+03	1.652012E-03	1.680640E-04
4.159292E+03	1.656998E-03	1.682458E-04
4.169125E+03	1.661299E-03	1.683563E-04
4.178958E+03	1.664821E-03	1.683865E-04
4.188791E+03	1.667354E-03	1.683157E-04
4.198623E+03	1.668852E-03	1.681399E-04
4.208456E+03	1.669326E-03	1.678607E-04
4.218289E+03	1.668774E-03	1.674788E-04
4.228122E+03	1.667294E-03	1.670044E-04
4.237955E+03	1.665111E-03	1.664607E-04
4.247788E+03	1.662350E-03	1.658605E-04
4.257620E+03	1.659286E-03	1.652316E-04
4.267453E+03	1.656083E-03	1.645906E-04
4.277286E+03	1.652940E-03	1.639572E-04
4.287119E+03	1.649968E-03	1.633424E-04
4.296952E+03	1.647219E-03	1.627515E-04
4.306785E+03	1.644719E-03	1.621866E-04
4.316618E+03	1.642529E-03	1.616538E-04
4.326450E+03	1.640752E-03	1.611631E-04
4.336283E+03	1.639446E-03	1.607200E-04
4.346116E+03	1.638823E-03	1.603448E-04
4.355949E+03	1.639028E-03	1.600514E-04
4.365782E+03	1.640295E-03	1.598622E-04
4.375615E+03	1.642725E-03	1.597865E-04
4.385447E+03	1.646500E-03	1.598410E-04
4.395280E+03	1.651694E-03	1.600324E-04
4.405113E+03	1.658433E-03	1.603721E-04
4.414946E+03	1.666816E-03	1.608686E-04
4.424779E+03	1.676917E-03	1.615283E-04
4.434612E+03	1.688842E-03	1.623601E-04
4.444444E+03	1.702586E-03	1.633630E-04
4.454277E+03	1.718221E-03	1.645426E-04
4.464110E+03	1.735657E-03	1.658893E-04
4.473943E+03	1.754886E-03	1.674013E-04
4.483776E+03	1.775862E-03	1.690735E-04
4.493609E+03	1.798488E-03	1.708955E-04
4.503441E+03	1.822710E-03	1.728614E-04
4.513274E+03	1.848411E-03	1.749593E-04
4.523107E+03	1.875405E-03	1.771708E-04
4.532940E+03	1.903319E-03	1.794601E-04
4.542773E+03	1.931660E-03	1.817803E-04
4.552606E+03	1.959850E-03	1.840771E-04
4.562439E+03	1.987099E-03	1.862763E-04
4.572271E+03	2.012632E-03	1.883063E-04
4.582104E+03	2.035639E-03	1.900921E-04
4.591937E+03	2.055442E-03	1.915722E-04
4.601770E+03	2.071444E-03	1.926926E-04
4.611603E+03	2.083252E-03	1.934191E-04
4.621436E+03	2.090661E-03	1.937350E-04
4.631268E+03	2.093757E-03	1.936503E-04
4.641101E+03	2.092789E-03	1.931907E-04
4.650934E+03	2.088311E-03	1.924092E-04
4.660767E+03	2.080980E-03	1.913681E-04
4.670600E+03	2.071502E-03	1.901338E-04
4.680433E+03	2.060553E-03	1.887693E-04
4.690265E+03	2.048747E-03	1.873315E-04
4.700098E+03	2.036575E-03	1.858657E-04
4.709931E+03	2.024354E-03	1.844009E-04
4.719764E+03	2.012358E-03	1.829620E-04
4.729597E+03	2.000809E-03	1.815692E-04
4.739430E+03	1.989963E-03	1.802453E-04
4.749263E+03	1.980144E-03	1.790195E-04
4.759095E+03	1.971637E-03	1.779166E-04
4.768928E+03	1.964795E-03	1.769680E-04
4.778761E+03	1.959935E-03	1.762012E-04
4.788594E+03	1.957318E-03	1.756388E-04
4.798427E+03	1.957134E-03	1.752967E-04
4.808260E+03	1.959511E-03	1.751851E-04
4.818092E+03	1.964535E-03	1.753105E-04
4.827925E+03	1.972287E-03	1.756787E-04
4.837758E+03	1.982777E-03	1.762894E-04
4.847591E+03	1.996027E-03	1.771433E-04
4.857424E+03	2.011911E-03	1.782279E-04
4.867257E+03	2.030165E-03	1.795188E-04
4.877089E+03	2.050300E-03	1.809715E-04
4.886922E+03	2.071522E-03	1.825155E-04
4.896755E+03	2.092868E-03	1.840655E-04
4.906588E+03	2.113325E-03	1.855327E-04
4.916421E+03	2.132055E-03	1.868442E-04
4.926254E+03	2.148485E-03	1.879507E-04
4.936087E+03	2.162537E-03	1.888466E-04
4.945919E+03	2.174632E-03	1.895697E-04
4.955752E+03	2.185380E-03	1.901742E-04
4.965585E+03	2.195449E-03	1.907188E-04
4.975418E+03	2.205117E-03	1.912279E-04
4.985251E+03	2.214303E-03	1.916949E-04
4.995084E+03	2.222498E-03	1.920759E-04
5.004916E+03	2.228905E-03	1.923029E-04
5.014749E+03	2.232580E-03	1.922952E-04
5.024582E+03	2.232772E-03	1.919896E-04
5.034415E+03	2.229177E-03	1.913616E-04
5.044248E+03	2.221992E-03	1.904297E-04
5.054081E+03	2.211884E-03	1.892526E-04
5.063913E+03	2.199990E-03	1.879286E-04
5.073746E+03	2.187643E-03	1.865721E-04
5.083579E+03	2.176305E-03	1.853080E-04
5.093412E+03	2.167323E-03	1.842501E-04
5.103245E+03	2.161781E-03	1.834897E-04
5.113078E+03	2.160509E-03	1.830956E-04
5.122911E+03	2.163903E-03	1.830999E-04
5.132743E+03	2.171994E-03	1.835033E-04
5.142576E+03	2.184444E-03	1.842757E-04
5.152409E+03	2.200583E-03	1.853590E-04
5.162242E+03	2.219498E-03	1.866750E-04
5.172075E+03	2.240216E-03	1.881414E-04
5.181908E+03	2.261779E-03	1.896772E-04
5.191740E+03	2.283382E-03	1.912149E-04
5.201573E+03	2.304329E-03	1.926964E-04
5.211406E+03	2.324098E-03	1.940786E-04
5.221239E+03	2.342357E-03	1.953343E-04
5.231072E+03	2.358813E-03	1.964398E-04
5.240905E+03	2.373223E-03	1.973758E-04
5.250737E+03	2.385284E-03	1.981178E-04
5.260570E+03	2.394729E-03	1.986446E-04
5.270403E+03	2.401141E-03	1.989227E-04
5.280236E+03	2.404014E-03	1.989113E-04
5.290069E+03	2.402889E-03	1.985735E-04
5.299902E+03	2.397321E-03	1.978741E-04
5.309735E+03	2.386965E-03	1.967859E-04
5.319567E+03	2.371824E-03	1.953105E-04
5.329400E+03	2.352205E-03	1.934747E-04
5.339233E+03	2.328727E-03	1.913303E-04
5.349066E+03	2.302351E-03	1.889574E-04
5.358899E+03	2.274109E-03	1.864412E-04
5.368732E+03	2.245111E-03	1.838729E-04
5.378564E+03	2.216320E-03	1.813312E-04
5.388397E+03	2.188565E-03	1.788836E-04
5.398230E+03	2.162382E-03	1.765735E-04
5.408063E+03	2.138015E-03	1.744202E-04
5.417896E+03	2.115480E-03	1.724243E-04
5.427729E+03	2.094543E-03	1.705662E-04
5.437561E+03	2.074800E-03	1.688125E-04
5.447394E+03	2.055731E-03	1.671206E-04
5.457227E+03	2.036769E-03	1.654441E-04
5.467060E+03	2.017242E-03	1.637283E-04
5.476893E+03	1.996628E-03	1.619308E-04
5.486726E+03	1.974358E-03	1.600055E-04
5.496559E+03	1.950003E-03	1.579179E-04
5.506391E+03	1.923279E-03	1.556451E-04
5.516224E+03	1.893998E-03	1.531722E-04
5.526057E+03	1.862218E-03	1.505040E-04
5.535890E+03	1.828077E-03	1.476520E-04
5.545723E+03	1.791970E-03	1.446480E-04
5.555556E+03	1.754370E-03	1.415303E-04
5.565388E+03	1.715855E-03	1.383456E-04
5.575221E+03	1.677082E-03	1.351466E-04
5.585054E+03	1.638648E-03	1.319812E-04
5.594887E+03	1.601158E-03	1.288980E-04
5.604720E+03	1.565056E-03	1.259320E-04
5.614553E+03	1.530763E-03	1.231171E-04
5.624385E+03	1.498538E-03	1.204735E-04
5.634218E+03	1.468587E-03	1.180174E-04
5.644051E+03	1.441053E-03	1.157600E-04
5.653884E+03	1.416027E-03	1.137081E-04
5.663717E+03	1.393607E-03	1.118691E-04
5.673550E+03	1.373902E-03	1.102515E-04
5.683382E+03	1.357044E-03	1.088658E-04
5.693215E+03	1.343228E-03	1.077269E-04
5.703048E+03	1.332688E-03	1.068536E-04
5.712881E+03	1.325726E-03	1.062696E-04
5.722714E+03	1.322672E-03	1.060014E-04
5.732547E+03	1.323905E-03	1.060788E-04
5.742380E+03	1.329750E-03	1.065278E-04
5.752212E+03	1.340576E-03	1.073778E-04
5.762045E+03	1.356653E-03	1.086502E-04
5.771878E+03	1.378206E-03	1.103629E-04
5.781711E+03	1.405309E-03	1.125217E-04
5.791544E+03	1.437904E-03	1.151221E-04
5.801377E+03	1.475724E-03	1.181426E-04
5.811209E+03	1.518239E-03	1.215411E-04
5.821042E+03	1.564623E-03	1.252513E-04
5.830875E+03	1.613740E-03	1.291827E-04
5.840708E+03	1.664076E-03	1.332142E-04
5.850541E+03	1.713780E-03	1.371978E-04
5.860374E+03	1.760736E-03	1.409645E-04
5.870206E+03	1.802667E-03	1.443320E-04
5.880039E+03	1.837362E-03	1.471234E-04
5.889872E+03	1.862893E-03	1.491843E-04
5.899705E+03	1.877786E-03	1.503965E-04
5.909538E+03	1.881311E-03	1.507014E-04
5.919371E+03	1.873512E-03	1.501020E-04
5.929204E+03	1.855238E-03	1.486658E-04
5.939036E+03	1.827992E-03	1.465127E-04
5.948869E+03	1.793797E-03	1.438045E-04
5.958702E+03	1.754941E-03	1.407239E-04
5.968535E+03	1.713701E-03	1.374533E-04
5.978368E+03	1.672245E-03	1.341662E-04
5.988201E+03	1.632432E-03	1.310115E-04
5.998033E+03	1.595727E-03	1.281068E-04
6.007866E+03	1.563197E-03	1.255381E-04
6.017699E+03	1.535579E-03	1.233645E-04
6.027532E+03	1.513275E-03	1.216187E-04
6.037365E+03	1.496433E-03	1.203130E-04
6.047198E+03	1.485044E-03	1.194473E-04
6.057030E+03	1.478888E-03	1.190041E-04
6.066863E+03	1.477655E-03	1.189592E-04
6.076696E+03	1.480904E-03	1.192775E-04
6.086529E+03	1.488120E-03	1.199180E-04
6.096362E+03	1.498729E-03	1.208352E-04
6.106195E+03	1.512082E-03	1.219770E-04
6.116028E+03	1.527522E-03	1.232909E-04
6.125860E+03	1.544433E-03	1.247275E-04
6.135693E+03	1.562197E-03	1.262370E-04
6.145526E+03	1.580282E-03	1.277769E-04
6.155359E+03	1.598280E-03	1.293140E-04
6.165192E+03	1.615824E-03	1.308189E-04
6.175025E+03	1.632592E-03	1.322653E-04
6.184857E+03	1.648293E-03	1.336295E-04
6.194690E+03	1.662656E-03	1.348894E-04
6.204523E+03	1.675377E-03	1.360201E-04
6.214356E+03	1.686210E-03	1.370014E-04
6.224189E+03	1.694994E-03	1.378197E-04
6.234022E+03	1.701644E-03	1.384678E-04
6.243854E+03	1.706217E-03	1.389499E-04
6.253687E+03	1.708956E-03	1.392854E-04
6.263520E+03	1.710189E-03	1.395006E-04
6.273353E+03	1.710439E-03	1.396379E-04
6.283186E+03	1.710254E-03	1.397419E-04
6.293019E+03	1.710310E-03	1.398675E-04
6.302852E+03	1.711266E-03	1.400689E-04
6.312684E+03	1.713836E-03	1.404046E-04
6.322517E+03	1.718650E-03	1.409267E-04
6.332350E+03	1.726268E-03	1.416816E-04
6.342183E+03	1.737105E-03	1.427040E-04
6.352016E+03	1.751428E-03	1.440165E-04
6.361849E+03	1.769290E-03	1.456244E-04
6.371681E+03	1.790559E-03	1.475176E-04
6.381514E+03	1.814872E-03	1.496671E-04
6.391347E+03	1.841669E-03	1.520273E-04
6.401180E+03	1.870235E-03	1.545399E-04
6.411013E+03	1.899717E-03	1.571349E-04
6.420846E+03	1.929191E-03	1.597358E-04
6.430678E+03	1.957712E-03	1.622644E-04
6.440511E+03	1.984392E-03	1.646470E-04
6.450344E+03	2.008397E-03	1.668137E-04
6.460177E+03	2.029080E-03	1.687102E-04
6.470010E+03	2.045960E-03	1.702954E-04
6.479843E+03	2.058765E-03	1.715458E-04
6.489676E+03	2.067399E-03	1.724522E-04
6.499508E+03	2.071908E-03	1.730173E-04
6.509341E+03	2.072335E-03	1.732436E-04
6.519174E+03	2.068837E-03	1.731431E-04
6.529007E+03	2.061504E-03	1.727221E-04
6.538840E+03	2.050467E-03	1.719905E-04
6.548673E+03	2.035976E-03	1.709683E-04
6.558505E+03	2.018428E-03	1.696878E-04
6.568338E+03	1.998516E-03	1.682063E-04
6.578171E+03	1.977073E-03	1.665933E-04
6.588004E+03	1.955037E-03	1.649274E-04
6.597837E+03	1.933329E-03	1.632863E-04
6.607670E+03	1.912648E-03	1.617289E-04
6.617502E+03	1.893394E-03	1.602894E-04
6.627335E+03	1.875554E-03	1.589671E-04
6.637168E+03	1.858724E-03	1.577282E-04
6.647001E+03	1.842074E-03	1.565022E-04
6.656834E+03	1.824505E-03	1.551957E-04
6.666667E+03	1.804794E-03	1.537044E-04
6.676500E+03	1.781838E-03	1.519334E-04
6.686332E+03	1.754743E-03	1.498053E-04
6.696165E+03	1.723044E-03	1.472791E-04
6.705998E+03	1.686644E-03	1.443449E-04
6.715831E+03	1.645919E-03	1.410334E-04
6.725664E+03	1.601502E-03	1.373974E-04
6.735497E+03	1.554336E-03	1.335168E-04
6.745329E+03	1.505468E-03	1.294806E-04
6.755162E+03	1.456025E-03	1.253851E-04
6.764995E+03	1.407035E-03	1.213189E-04
6.774828E+03	1.359431E-03	1.173625E-04
6.784661E+03	1.313995E-03	1.135837E-04
6.794494E+03	1.271374E-03	1.100394E-04
6.804326E+03	1.232033E-03	1.067707E-04
6.814159E+03	1.196383E-03	1.038143E-04
6.823992E+03	1.164760E-03	1.012003E-04
6.833825E+03	1.137474E-03	9.895731E-05
6.843658E+03	1.114825E-03	9.711263E-05
6.853491E+03	1.097164E-03	9.569857E-05
6.863324E+03	1.084868E-03	9.474972E-05
6.873156E+03	1.078339E-03	9.430303E-05
6.882989E+03	1.078091E-03	9.440537E-05
6.892822E+03	1.084655E-03	9.510567E-05
6.902655E+03	1.098631E-03	9.645878E-05
6.912488E+03	1.120716E-03	9.852871E-05
6.922321E+03	1.151616E-03	1.013805E-04
6.932153E+03	1.192058E-03	1.050814E-04
6.941986E+03	1.242772E-03	1.096993E-04
6.951819E+03	1.304343E-03	1.152896E-04
6.961652E+03	1.377162E-03	1.218910E-04
6.971485E+03	1.461175E-03	1.295028E-04
6.981318E+03	1.555705E-03	1.380692E-04
6.991150E+03	1.659192E-03	1.474556E-04
7.000983E+03	1.768960E-03	1.574272E-04
7.010816E+03	1.881068E-03	1.676355E-04
7.020649E+03	1.990440E-03	1.776284E-04
7.030482E+03	2.091340E-03	1.868927E-04
7.040315E+03	2.178007E-03	1.949098E-04
7.050147E+03	2.245437E-03	2.012263E-04
7.059980E+03	2.289975E-03	2.055069E-04
7.069813E+03	2.309946E-03	2.075924E-04
7.079646E+03	2.305636E-03	2.074996E-04
7.089479E+03	2.279135E-03	2.054074E-04
7.099312E+03	2.234038E-03	2.016316E-04
7.109145E+03	2.174742E-03	1.965626E-04
7.118977E+03	2.106060E-03	1.906300E-04
7.128810E+03	2.032709E-03	1.842579E-04
7.138643E+03	1.959034E-03	1.778387E-04
7.148476E+03	1.888657E-03	1.717012E-04
7.158309E+03	1.824374E-03	1.661013E-04
7.168142E+03	1.768205E-03	1.612255E-04
7.177974E+03	1.721430E-03	1.571938E-04
7.187807E+03	1.684605E-03	1.540608E-04
7.197640E+03	1.657716E-03	1.518293E-04
7.207473E+03	1.640342E-03	1.504645E-04
7.217306E+03	1.631564E-03	1.498861E-04
7.227139E+03	1.630122E-03	1.499816E-04
7.236971E+03	1.634416E-03	1.506068E-04
7.246804E+03	1.642631E-03	1.515966E-04
7.256637E+03	1.652756E-03	1.527669E-04
7.266470E+03	1.662848E-03	1.539385E-04
7.276303E+03	1.671090E-03	1.549431E-04
7.286136E+03	1.676005E-03	1.556429E-04
7.295969E+03	1.676443E-03	1.559293E-04
7.305801E+03	1.671805E-03	1.557447E-04
7.315634E+03	1.661833E-03	1.550628E-04
7.325467E+03	1.646729E-03	1.539000E-04
7.335300E+03	1.626889E-03	1.522912E-04
7.345133E+03	1.602976E-03	1.502961E-04
7.354966E+03	1.575723E-03	1.479818E-04
7.364798E+03	1.545886E-03	1.454179E-04
7.374631E+03	1.514173E-03	1.426697E-04
7.384464E+03	1.481192E-03	1.397938E-04
7.394297E+03	1.447448E-03	1.368369E-04
7.404130E+03	1.413283E-03	1.338313E-04
7.413963E+03	1.378991E-03	1.308043E-04
7.423795E+03	1.344787E-03	1.277761E-04
7.433628E+03	1.310849E-03	1.247637E-04
7.443461E+03	1.277463E-03	1.217942E-04
7.453294E+03	1.244844E-03	1.188884E-04
7.463127E+03	1.213322E-03	1.160780E-04
7.472960E+03	1.183168E-03	1.133895E-04
7.482793E+03	1.154587E-03	1.108431E-04
7.492625E+03	1.127761E-03	1.084569E-04
7.502458E+03	1.102805E-03	1.062429E-04
7.512291E+03	1.079745E-03	1.042045E-04
7.522124E+03	1.058583E-03	1.023426E-04
7.531957E+03	1.039291E-03	1.006555E-04
7.541790E+03	1.021864E-03	9.914353E-05
7.551622E+03	1.006237E-03	9.780132E-05
7.561455E+03	9.923998E-04	9.662875E-05
7.571288E+03	9.804005E-04	9.563136E-05
7.581121E+03	9.702689E-04	9.481300E-05
7.590954E+03	9.620657E-04	9.418056E-05
7.600787E+03	9.558564E-04	9.374140E-05
7.610619E+03	9.517128E-04	9.350364E-05
7.620452E+03	9.496519E-04	9.347001E-05
7.630285E+03	9.496853E-04	9.364274E-05
