#wls	flux	fluxerr
1.573255E+03	6.578856E-06	3.533470E-06
1.612586E+03	6.826570E-06	3.663936E-06
1.651917E+03	7.082528E-06	3.798587E-06
1.691249E+03	7.338813E-06	3.933164E-06
1.730580E+03	7.593937E-06	4.066865E-06
1.769912E+03	7.848498E-06	4.200004E-06
1.809243E+03	8.094290E-06	4.328188E-06
1.848574E+03	8.329712E-06	4.450567E-06
1.887906E+03	8.548596E-06	4.563853E-06
1.927237E+03	8.741393E-06	4.662970E-06
1.966568E+03	8.915063E-06	4.751656E-06
2.005900E+03	9.070255E-06	4.830275E-06
2.045231E+03	9.235944E-06	4.914268E-06
2.084562E+03	9.452138E-06	5.024883E-06
2.123894E+03	9.759995E-06	5.183903E-06
2.163225E+03	1.018112E-05	5.402653E-06
2.202557E+03	1.071252E-05	5.679376E-06
2.241888E+03	1.132731E-05	5.999648E-06
2.281219E+03	1.199017E-05	6.344645E-06
2.320551E+03	1.268725E-05	6.706945E-06
2.359882E+03	1.339420E-05	7.073624E-06
2.399213E+03	1.411967E-05	7.449213E-06
2.438545E+03	1.485050E-05	7.826723E-06
2.477876E+03	1.559743E-05	8.211777E-06
2.517207E+03	1.635525E-05	8.601588E-06
2.556539E+03	1.713023E-05	8.999419E-06
2.595870E+03	1.792250E-05	9.405279E-06
2.635202E+03	1.873144E-05	9.818798E-06
2.674533E+03	1.956866E-05	1.024600E-05
2.713864E+03	2.043256E-05	1.068597E-05
2.753196E+03	2.131386E-05	1.113379E-05
2.792527E+03	2.221549E-05	1.159094E-05
2.831858E+03	2.314662E-05	1.206213E-05
2.871190E+03	2.410201E-05	1.254455E-05
2.910521E+03	2.507523E-05	1.303478E-05
2.949853E+03	2.606563E-05	1.353244E-05
2.959685E+03	2.631732E-05	1.365874E-05
2.969518E+03	2.656545E-05	1.378309E-05
2.979351E+03	2.682391E-05	1.391270E-05
2.989184E+03	2.707864E-05	1.404027E-05
2.999017E+03	2.733004E-05	1.416602E-05
3.008850E+03	2.759260E-05	1.429745E-05
3.018682E+03	2.785190E-05	1.442709E-05
3.028515E+03	2.811464E-05	1.455841E-05
3.038348E+03	2.837346E-05	1.468759E-05
3.048181E+03	2.864208E-05	1.482174E-05
3.058014E+03	2.890612E-05	1.495341E-05
3.067847E+03	2.917231E-05	1.508609E-05
3.077679E+03	2.944030E-05	1.521959E-05
3.087512E+03	2.970980E-05	1.535376E-05
3.097345E+03	2.998048E-05	1.548843E-05
3.107178E+03	3.025203E-05	1.562344E-05
3.117011E+03	3.052415E-05	1.575863E-05
3.126844E+03	3.079651E-05	1.589383E-05
3.136676E+03	3.106188E-05	1.602532E-05
3.146509E+03	3.133383E-05	1.616008E-05
3.156342E+03	3.160511E-05	1.629439E-05
3.166175E+03	3.187540E-05	1.642808E-05
3.176008E+03	3.215127E-05	1.656453E-05
3.185841E+03	3.241866E-05	1.669649E-05
3.195674E+03	3.269098E-05	1.683088E-05
3.205506E+03	3.295423E-05	1.696049E-05
3.215339E+03	3.322176E-05	1.709218E-05
3.225172E+03	3.349319E-05	1.722577E-05
3.235005E+03	3.376139E-05	1.735758E-05
3.244838E+03	3.402607E-05	1.748747E-05
3.254671E+03	3.428693E-05	1.761528E-05
3.264503E+03	3.455031E-05	1.774427E-05
3.274336E+03	3.481582E-05	1.787423E-05
3.284169E+03	3.507648E-05	1.800160E-05
3.294002E+03	3.533855E-05	1.812958E-05
3.303835E+03	3.559513E-05	1.825462E-05
3.313668E+03	3.585239E-05	1.837990E-05
3.323500E+03	3.610353E-05	1.850193E-05
3.333333E+03	3.636103E-05	1.862710E-05
3.343166E+03	3.661169E-05	1.874866E-05
3.352999E+03	3.686155E-05	1.886970E-05
3.362832E+03	3.711023E-05	1.899002E-05
3.372665E+03	3.735734E-05	1.910942E-05
3.382498E+03	3.760252E-05	1.922773E-05
3.392330E+03	3.784539E-05	1.934474E-05
3.402163E+03	3.808558E-05	1.946028E-05
3.411996E+03	3.832877E-05	1.957724E-05
3.421829E+03	3.856252E-05	1.968926E-05
3.431662E+03	3.879847E-05	1.980231E-05
3.441495E+03	3.903029E-05	1.991313E-05
3.451327E+03	3.926347E-05	2.002454E-05
3.461160E+03	3.949179E-05	2.013337E-05
3.470993E+03	3.972064E-05	2.024236E-05
3.480826E+03	3.994397E-05	2.034843E-05
3.490659E+03	4.016711E-05	2.045430E-05
3.500492E+03	4.038960E-05	2.055974E-05
3.510324E+03	4.061111E-05	2.066457E-05
3.520157E+03	4.082578E-05	2.076581E-05
3.529990E+03	4.104413E-05	2.086883E-05
3.539823E+03	4.125509E-05	2.096799E-05
3.549656E+03	4.146894E-05	2.106852E-05
3.559489E+03	4.168003E-05	2.116753E-05
3.569322E+03	4.188804E-05	2.126489E-05
3.579154E+03	4.209273E-05	2.136046E-05
3.588987E+03	4.229882E-05	2.145665E-05
3.598820E+03	4.250595E-05	2.155326E-05
3.608653E+03	4.270882E-05	2.164762E-05
3.618486E+03	4.291208E-05	2.174207E-05
3.628319E+03	4.311060E-05	2.183402E-05
3.638151E+03	4.331366E-05	2.192818E-05
3.647984E+03	4.351148E-05	2.201959E-05
3.657817E+03	4.371316E-05	2.211285E-05
3.667650E+03	4.391375E-05	2.220547E-05
3.677483E+03	4.411300E-05	2.229731E-05
3.687316E+03	4.431076E-05	2.238830E-05
3.697148E+03	4.451116E-05	2.248053E-05
3.706981E+03	4.471391E-05	2.257385E-05
3.716814E+03	4.491446E-05	2.266596E-05
3.726647E+03	4.511689E-05	2.275892E-05
3.736480E+03	4.532092E-05	2.285260E-05
3.746313E+03	4.552639E-05	2.294690E-05
3.756146E+03	4.573308E-05	2.304172E-05
3.765978E+03	4.594079E-05	2.313694E-05
3.775811E+03	4.614946E-05	2.323256E-05
3.785644E+03	4.636271E-05	2.333039E-05
3.795477E+03	4.658034E-05	2.343031E-05
3.805310E+03	4.679838E-05	2.353034E-05
3.815143E+03	4.702044E-05	2.363228E-05
3.824975E+03	4.724639E-05	2.373608E-05
3.834808E+03	4.747608E-05	2.384164E-05
3.844641E+03	4.770933E-05	2.394889E-05
3.854474E+03	4.794607E-05	2.405778E-05
3.864307E+03	4.818962E-05	2.416998E-05
3.874140E+03	4.843648E-05	2.428372E-05
3.883972E+03	4.868990E-05	2.440064E-05
3.893805E+03	4.894971E-05	2.452064E-05
3.903638E+03	4.921265E-05	2.464209E-05
3.913471E+03	4.948501E-05	2.476814E-05
3.923304E+03	4.976041E-05	2.489558E-05
3.933137E+03	5.004514E-05	2.502757E-05
3.942970E+03	5.033593E-05	2.516246E-05
3.952802E+03	5.063582E-05	2.530177E-05
3.962635E+03	5.094179E-05	2.544398E-05
3.972468E+03	5.125681E-05	2.559057E-05
3.982301E+03	5.158080E-05	2.574150E-05
3.992134E+03	5.191381E-05	2.589679E-05
4.001967E+03	5.225581E-05	2.605641E-05
4.011799E+03	5.260690E-05	2.622042E-05
4.021632E+03	5.296711E-05	2.638881E-05
4.031465E+03	5.333923E-05	2.656299E-05
4.041298E+03	5.372067E-05	2.674163E-05
4.051131E+03	5.411409E-05	2.692608E-05
4.060964E+03	5.451710E-05	2.711513E-05
4.070796E+03	5.493491E-05	2.731137E-05
4.080629E+03	5.536257E-05	2.751232E-05
4.090462E+03	5.580279E-05	2.771933E-05
4.100295E+03	5.625574E-05	2.793248E-05
4.110128E+03	5.672168E-05	2.815189E-05
4.119961E+03	5.720084E-05	2.837765E-05
4.129794E+03	5.769578E-05	2.861104E-05
4.139626E+03	5.820443E-05	2.885102E-05
4.149459E+03	5.872712E-05	2.909775E-05
4.159292E+03	5.926646E-05	2.935250E-05
4.169125E+03	5.982042E-05	2.961428E-05
4.178958E+03	6.038945E-05	2.988328E-05
4.188791E+03	6.097620E-05	3.016081E-05
4.198623E+03	6.157878E-05	3.044593E-05
4.208456E+03	6.219982E-05	3.073993E-05
4.218289E+03	6.283974E-05	3.104300E-05
4.228122E+03	6.349471E-05	3.135325E-05
4.237955E+03	6.417166E-05	3.167408E-05
4.247788E+03	6.486469E-05	3.200257E-05
4.257620E+03	6.557851E-05	3.234104E-05
4.267453E+03	6.631159E-05	3.268872E-05
4.277286E+03	6.706651E-05	3.304687E-05
4.287119E+03	6.783971E-05	3.341373E-05
4.296952E+03	6.863584E-05	3.379157E-05
4.306785E+03	6.945138E-05	3.417865E-05
4.316618E+03	7.028894E-05	3.457624E-05
4.326450E+03	7.114901E-05	3.498457E-05
4.336283E+03	7.203017E-05	3.540295E-05
4.346116E+03	7.293494E-05	3.583257E-05
4.355949E+03	7.386191E-05	3.627275E-05
4.365782E+03	7.480971E-05	3.672280E-05
4.375615E+03	7.578262E-05	3.718481E-05
4.385447E+03	7.677551E-05	3.765625E-05
4.395280E+03	7.779262E-05	3.813919E-05
4.405113E+03	7.883260E-05	3.863296E-05
4.414946E+03	7.989590E-05	3.913776E-05
4.424779E+03	8.098120E-05	3.965294E-05
4.434612E+03	8.209075E-05	4.017958E-05
4.444444E+03	8.322134E-05	4.071611E-05
4.454277E+03	8.437344E-05	4.126275E-05
4.464110E+03	8.554931E-05	4.182059E-05
4.473943E+03	8.674575E-05	4.238806E-05
4.483776E+03	8.796497E-05	4.296622E-05
4.493609E+03	8.920556E-05	4.355439E-05
4.503441E+03	9.046608E-05	4.415184E-05
4.513274E+03	9.174874E-05	4.475965E-05
4.523107E+03	9.305026E-05	4.537621E-05
4.532940E+03	9.437277E-05	4.600255E-05
4.542773E+03	9.571480E-05	4.663795E-05
4.552606E+03	9.707483E-05	4.728165E-05
4.562439E+03	9.845313E-05	4.793380E-05
4.572271E+03	9.984816E-05	4.859363E-05
4.582104E+03	1.012601E-04	4.926123E-05
4.591937E+03	1.026892E-04	4.993671E-05
4.601770E+03	1.041339E-04	5.061929E-05
4.611603E+03	1.055924E-04	5.130810E-05
4.621436E+03	1.070667E-04	5.200414E-05
4.631268E+03	1.085513E-04	5.270475E-05
4.641101E+03	1.100501E-04	5.341174E-05
4.650934E+03	1.115611E-04	5.412422E-05
4.660767E+03	1.130808E-04	5.484046E-05
4.670600E+03	1.146108E-04	5.556124E-05
4.680433E+03	1.161474E-04	5.628479E-05
4.690265E+03	1.176942E-04	5.701280E-05
4.700098E+03	1.192455E-04	5.774254E-05
4.709931E+03	1.208027E-04	5.847477E-05
4.719764E+03	1.223640E-04	5.920850E-05
4.729597E+03	1.239270E-04	5.994264E-05
4.739430E+03	1.254933E-04	6.067797E-05
4.749263E+03	1.270606E-04	6.141336E-05
4.759095E+03	1.286265E-04	6.214771E-05
4.768928E+03	1.301906E-04	6.288078E-05
4.778761E+03	1.317505E-04	6.361143E-05
4.788594E+03	1.333073E-04	6.434026E-05
4.798427E+03	1.348586E-04	6.506606E-05
4.808260E+03	1.364036E-04	6.578849E-05
4.818092E+03	1.379379E-04	6.650541E-05
4.827925E+03	1.394644E-04	6.721823E-05
4.837758E+03	1.409803E-04	6.792565E-05
4.847591E+03	1.424828E-04	6.862637E-05
4.857424E+03	1.439729E-04	6.932081E-05
4.867257E+03	1.454476E-04	7.000760E-05
4.877089E+03	1.469060E-04	7.068628E-05
4.886922E+03	1.483470E-04	7.135634E-05
4.896755E+03	1.497693E-04	7.201723E-05
4.906588E+03	1.511719E-04	7.266846E-05
4.916421E+03	1.525517E-04	7.330852E-05
4.926254E+03	1.539112E-04	7.393869E-05
4.936087E+03	1.552434E-04	7.455561E-05
4.945919E+03	1.565528E-04	7.516148E-05
4.955752E+03	1.578342E-04	7.575382E-05
4.965585E+03	1.590903E-04	7.633389E-05
4.975418E+03	1.603157E-04	7.689920E-05
4.985251E+03	1.615110E-04	7.745005E-05
4.995084E+03	1.626769E-04	7.798675E-05
5.004916E+03	1.638080E-04	7.850679E-05
5.014749E+03	1.649088E-04	7.901233E-05
5.024582E+03	1.659721E-04	7.949998E-05
5.034415E+03	1.670025E-04	7.997188E-05
5.044248E+03	1.679965E-04	8.042648E-05
5.054081E+03	1.689529E-04	8.086318E-05
5.063913E+03	1.698723E-04	8.128229E-05
5.073746E+03	1.707534E-04	8.168324E-05
5.083579E+03	1.715949E-04	8.206544E-05
5.093412E+03	1.723956E-04	8.242832E-05
5.103245E+03	1.731564E-04	8.277228E-05
5.113078E+03	1.738759E-04	8.309681E-05
5.122911E+03	1.745532E-04	8.340137E-05
5.132743E+03	1.751910E-04	8.368736E-05
5.142576E+03	1.757844E-04	8.395246E-05
5.152409E+03	1.763344E-04	8.419713E-05
5.162242E+03	1.768440E-04	8.442287E-05
5.172075E+03	1.773085E-04	8.462741E-05
5.181908E+03	1.777310E-04	8.481225E-05
5.191740E+03	1.781087E-04	8.497616E-05
5.201573E+03	1.784449E-04	8.512068E-05
5.211406E+03	1.787391E-04	8.524556E-05
5.221239E+03	1.789887E-04	8.534965E-05
5.231072E+03	1.791953E-04	8.543368E-05
5.240905E+03	1.793604E-04	8.549840E-05
5.250737E+03	1.794837E-04	8.554368E-05
5.260570E+03	1.795650E-04	8.556945E-05
5.270403E+03	1.796060E-04	8.557655E-05
5.280236E+03	1.796066E-04	8.556498E-05
5.290069E+03	1.795670E-04	8.553473E-05
5.299902E+03	1.794890E-04	8.548677E-05
5.309735E+03	1.793709E-04	8.542030E-05
5.319567E+03	1.792167E-04	8.533725E-05
5.329400E+03	1.790250E-04	8.523689E-05
5.339233E+03	1.787999E-04	8.512124E-05
5.349066E+03	1.785381E-04	8.498873E-05
5.358899E+03	1.782423E-04	8.484063E-05
5.368732E+03	1.779168E-04	8.467904E-05
5.378564E+03	1.775570E-04	8.450175E-05
5.388397E+03	1.771695E-04	8.431196E-05
5.398230E+03	1.767558E-04	8.411026E-05
5.408063E+03	1.763135E-04	8.389567E-05
5.417896E+03	1.758482E-04	8.367076E-05
5.427729E+03	1.753619E-04	8.343651E-05
5.437561E+03	1.748570E-04	8.319399E-05
5.447394E+03	1.743357E-04	8.294429E-05
5.457227E+03	1.738005E-04	8.268860E-05
5.467060E+03	1.732557E-04	8.242894E-05
5.476893E+03	1.727004E-04	8.216481E-05
5.486726E+03	1.721405E-04	8.189910E-05
5.496559E+03	1.715787E-04	8.163301E-05
5.506391E+03	1.710156E-04	8.136686E-05
5.516224E+03	1.704538E-04	8.110182E-05
5.526057E+03	1.698973E-04	8.083983E-05
5.535890E+03	1.693484E-04	8.058199E-05
5.545723E+03	1.688078E-04	8.032856E-05
5.555556E+03	1.682777E-04	8.008059E-05
5.565388E+03	1.677618E-04	7.983987E-05
5.575221E+03	1.672606E-04	7.960659E-05
5.585054E+03	1.667760E-04	7.938166E-05
5.594887E+03	1.663099E-04	7.916600E-05
5.604720E+03	1.658658E-04	7.896124E-05
5.614553E+03	1.654421E-04	7.876661E-05
5.624385E+03	1.650421E-04	7.858369E-05
5.634218E+03	1.646658E-04	7.841243E-05
5.644051E+03	1.643163E-04	7.825432E-05
5.653884E+03	1.639932E-04	7.810923E-05
5.663717E+03	1.636980E-04	7.797778E-05
5.673550E+03	1.634318E-04	7.786057E-05
5.683382E+03	1.631943E-04	7.775737E-05
5.693215E+03	1.629881E-04	7.766946E-05
5.703048E+03	1.628125E-04	7.759653E-05
5.712881E+03	1.626685E-04	7.753903E-05
5.722714E+03	1.625554E-04	7.749662E-05
5.732547E+03	1.624755E-04	7.747040E-05
5.742380E+03	1.624279E-04	7.745995E-05
5.752212E+03	1.624132E-04	7.746556E-05
5.762045E+03	1.624321E-04	7.748753E-05
5.771878E+03	1.624833E-04	7.752532E-05
5.781711E+03	1.625659E-04	7.757841E-05
5.791544E+03	1.626832E-04	7.764844E-05
5.801377E+03	1.628325E-04	7.773410E-05
5.811209E+03	1.630139E-04	7.783547E-05
5.821042E+03	1.632277E-04	7.795266E-05
5.830875E+03	1.634740E-04	7.808573E-05
5.840708E+03	1.637497E-04	7.823324E-05
5.850541E+03	1.640579E-04	7.839668E-05
5.860374E+03	1.643971E-04	7.857526E-05
5.870206E+03	1.647640E-04	7.876750E-05
5.880039E+03	1.651616E-04	7.897478E-05
5.889872E+03	1.655881E-04	7.919627E-05
5.899705E+03	1.660417E-04	7.943111E-05
5.909538E+03	1.665222E-04	7.967917E-05
5.919371E+03	1.670290E-04	7.994026E-05
5.929204E+03	1.675618E-04	8.021421E-05
5.939036E+03	1.681186E-04	8.050003E-05
5.948869E+03	1.687005E-04	8.079826E-05
5.958702E+03	1.693036E-04	8.110709E-05
5.968535E+03	1.699306E-04	8.142775E-05
5.978368E+03	1.705760E-04	8.175768E-05
5.988201E+03	1.712423E-04	8.209803E-05
5.998033E+03	1.719270E-04	8.244766E-05
6.007866E+03	1.726295E-04	8.280620E-05
6.017699E+03	1.733487E-04	8.317321E-05
6.027532E+03	1.740837E-04	8.354826E-05
6.037365E+03	1.748321E-04	8.393011E-05
6.047198E+03	1.755925E-04	8.431824E-05
6.057030E+03	1.763657E-04	8.471291E-05
6.066863E+03	1.771488E-04	8.511278E-05
6.076696E+03	1.779422E-04	8.551806E-05
6.086529E+03	1.787415E-04	8.592658E-05
6.096362E+03	1.795484E-04	8.633924E-05
6.106195E+03	1.803601E-04	8.675463E-05
6.116028E+03	1.811750E-04	8.717204E-05
6.125860E+03	1.819934E-04	8.759156E-05
6.135693E+03	1.828104E-04	8.801084E-05
6.145526E+03	1.836293E-04	8.843153E-05
6.155359E+03	1.844436E-04	8.885040E-05
6.165192E+03	1.852566E-04	8.926910E-05
6.175025E+03	1.860632E-04	8.968513E-05
6.184857E+03	1.868632E-04	9.009845E-05
6.194690E+03	1.876549E-04	9.050819E-05
6.204523E+03	1.884382E-04	9.091428E-05
6.214356E+03	1.892094E-04	9.131497E-05
6.224189E+03	1.899682E-04	9.171014E-05
6.234022E+03	1.907129E-04	9.209885E-05
6.243854E+03	1.914431E-04	9.248098E-05
6.253687E+03	1.921533E-04	9.285386E-05
6.263520E+03	1.928467E-04	9.321906E-05
6.273353E+03	1.935179E-04	9.357387E-05
6.283186E+03	1.941683E-04	9.391900E-05
6.293019E+03	1.947959E-04	9.425349E-05
6.302852E+03	1.953969E-04	9.457543E-05
6.312684E+03	1.959709E-04	9.488470E-05
6.322517E+03	1.965179E-04	9.518119E-05
6.332350E+03	1.970339E-04	9.546303E-05
6.342183E+03	1.975207E-04	9.573103E-05
6.352016E+03	1.979726E-04	9.598241E-05
6.361849E+03	1.983933E-04	9.621896E-05
6.371681E+03	1.987771E-04	9.643791E-05
6.381514E+03	1.991241E-04	9.663926E-05
6.391347E+03	1.994326E-04	9.682215E-05
6.401180E+03	1.997026E-04	9.698661E-05
6.411013E+03	1.999325E-04	9.713183E-05
6.420846E+03	2.001208E-04	9.725702E-05
6.430678E+03	2.002659E-04	9.736142E-05
6.440511E+03	2.003664E-04	9.744429E-05
6.450344E+03	2.004229E-04	9.750591E-05
6.460177E+03	2.004340E-04	9.754563E-05
6.470010E+03	2.003987E-04	9.756285E-05
6.479843E+03	2.003159E-04	9.755704E-05
6.489676E+03	2.001865E-04	9.752864E-05
6.499508E+03	2.000078E-04	9.747624E-05
6.509341E+03	1.997808E-04	9.740040E-05
6.519174E+03	1.995050E-04	9.730076E-05
6.529007E+03	1.991798E-04	9.717705E-05
6.538840E+03	1.988048E-04	9.702899E-05
6.548673E+03	1.983795E-04	9.685640E-05
6.558505E+03	1.979058E-04	9.666008E-05
6.568338E+03	1.973815E-04	9.643901E-05
6.578171E+03	1.968086E-04	9.619408E-05
6.588004E+03	1.961851E-04	9.592433E-05
6.597837E+03	1.955133E-04	9.563078E-05
6.607670E+03	1.947933E-04	9.531354E-05
6.617502E+03	1.940255E-04	9.497273E-05
6.627335E+03	1.932103E-04	9.460853E-05
6.637168E+03	1.923482E-04	9.422117E-05
6.647001E+03	1.914398E-04	9.381091E-05
6.656834E+03	1.904858E-04	9.337801E-05
6.666667E+03	1.894888E-04	9.292377E-05
6.676500E+03	1.884475E-04	9.244757E-05
6.686332E+03	1.873629E-04	9.194980E-05
6.696165E+03	1.862378E-04	9.143179E-05
6.705998E+03	1.850710E-04	9.089300E-05
6.715831E+03	1.838635E-04	9.033387E-05
6.725664E+03	1.826182E-04	8.975580E-05
6.735497E+03	1.813360E-04	8.915923E-05
6.745329E+03	1.800161E-04	8.854369E-05
6.755162E+03	1.786614E-04	8.791059E-05
6.764995E+03	1.772709E-04	8.725950E-05
6.774828E+03	1.758477E-04	8.659181E-05
6.784661E+03	1.743927E-04	8.590802E-05
6.794494E+03	1.729050E-04	8.520770E-05
6.804326E+03	1.713878E-04	8.449225E-05
6.814159E+03	1.698418E-04	8.376216E-05
6.823992E+03	1.682664E-04	8.301704E-05
6.833825E+03	1.666644E-04	8.225827E-05
6.843658E+03	1.650368E-04	8.148634E-05
6.853491E+03	1.633829E-04	8.070088E-05
6.863324E+03	1.617056E-04	7.990326E-05
6.873156E+03	1.600059E-04	7.909398E-05
6.882989E+03	1.582830E-04	7.827269E-05
6.892822E+03	1.565398E-04	7.744078E-05
6.902655E+03	1.547775E-04	7.659874E-05
6.912488E+03	1.529953E-04	7.574630E-05
6.922321E+03	1.511961E-04	7.488482E-05
6.932153E+03	1.493794E-04	7.401404E-05
6.941986E+03	1.475497E-04	7.313617E-05
6.951819E+03	1.457033E-04	7.224936E-05
6.961652E+03	1.438463E-04	7.135664E-05
6.971485E+03	1.419752E-04	7.045625E-05
6.981318E+03	1.400960E-04	6.955121E-05
6.991150E+03	1.382070E-04	6.864060E-05
7.000983E+03	1.363096E-04	6.772514E-05
7.010816E+03	1.344067E-04	6.680632E-05
7.020649E+03	1.324985E-04	6.588409E-05
7.030482E+03	1.305863E-04	6.495924E-05
7.040315E+03	1.286733E-04	6.403330E-05
7.050147E+03	1.267612E-04	6.310705E-05
7.059980E+03	1.248500E-04	6.218059E-05
7.069813E+03	1.229415E-04	6.125477E-05
7.079646E+03	1.210374E-04	6.033047E-05
7.089479E+03	1.191396E-04	5.940858E-05
7.099312E+03	1.172512E-04	5.849065E-05
7.109145E+03	1.153725E-04	5.757692E-05
7.118977E+03	1.135055E-04	5.666831E-05
7.128810E+03	1.116533E-04	5.576638E-05
7.138643E+03	1.098151E-04	5.487074E-05
7.148476E+03	1.079953E-04	5.398363E-05
7.158309E+03	1.061932E-04	5.310468E-05
7.168142E+03	1.044131E-04	5.223607E-05
7.177974E+03	1.026556E-04	5.137807E-05
7.187807E+03	1.009212E-04	5.053097E-05
7.197640E+03	9.921397E-05	4.969686E-05
7.207473E+03	9.753451E-05	4.887600E-05
7.217306E+03	9.588443E-05	4.806922E-05
7.227139E+03	9.426419E-05	4.727678E-05
7.236971E+03	9.267761E-05	4.650061E-05
7.246804E+03	9.112506E-05	4.574091E-05
7.256637E+03	8.960690E-05	4.499789E-05
7.266470E+03	8.812666E-05	4.427333E-05
7.276303E+03	8.668352E-05	4.356684E-05
7.286136E+03	8.527982E-05	4.287964E-05
7.295969E+03	8.391779E-05	4.221285E-05
7.305801E+03	8.259646E-05	4.156602E-05
7.315634E+03	8.131797E-05	4.094025E-05
7.325467E+03	8.008331E-05	4.033605E-05
7.335300E+03	7.889342E-05	3.975394E-05
7.345133E+03	7.774919E-05	3.919440E-05
7.354966E+03	7.665241E-05	3.865834E-05
7.364798E+03	7.560193E-05	3.814522E-05
7.374631E+03	7.459945E-05	3.765592E-05
7.384464E+03	7.364563E-05	3.719081E-05
7.394297E+03	7.274202E-05	3.675071E-05
7.404130E+03	7.188739E-05	3.633501E-05
7.413963E+03	7.108407E-05	3.594495E-05
7.423795E+03	7.033167E-05	3.558034E-05
7.433628E+03	6.963156E-05	3.524192E-05
7.443461E+03	6.898237E-05	3.492902E-05
7.453294E+03	6.838625E-05	3.464277E-05
7.463127E+03	6.784350E-05	3.438336E-05
7.472960E+03	6.735263E-05	3.415006E-05
7.482793E+03	6.691634E-05	3.394429E-05
7.492625E+03	6.653287E-05	3.376518E-05
7.502458E+03	6.620202E-05	3.361267E-05
7.512291E+03	6.592427E-05	3.348704E-05
7.522124E+03	6.569914E-05	3.338808E-05
7.531957E+03	6.552527E-05	3.331513E-05
7.541790E+03	6.540386E-05	3.326884E-05
7.551622E+03	6.533265E-05	3.324809E-05
7.561455E+03	6.531197E-05	3.325308E-05
7.571288E+03	6.534047E-05	3.328316E-05
7.581121E+03	6.541943E-05	3.333902E-05
7.590954E+03	6.554759E-05	3.342005E-05
7.600787E+03	6.572370E-05	3.352565E-05
7.610619E+03	6.594922E-05	3.365659E-05
7.620452E+03	6.622300E-05	3.381233E-05
7.630285E+03	6.654482E-05	3.399278E-05
