#wls	flux	fluxerr
1.573255E+03	5.942043E-06	3.365899E-06
1.612586E+03	6.156594E-06	3.485158E-06
1.651917E+03	6.374449E-06	3.606084E-06
1.691249E+03	6.591538E-06	3.726368E-06
1.730580E+03	6.810002E-06	3.847214E-06
1.769912E+03	7.027088E-06	3.967063E-06
1.809243E+03	7.235402E-06	4.081737E-06
1.848574E+03	7.437241E-06	4.192540E-06
1.887906E+03	7.619927E-06	4.292331E-06
1.927237E+03	7.785971E-06	4.382543E-06
1.966568E+03	7.927012E-06	4.458490E-06
2.005900E+03	8.058407E-06	4.528831E-06
2.045231E+03	8.198565E-06	4.603915E-06
2.084562E+03	8.386681E-06	4.705716E-06
2.123894E+03	8.655468E-06	4.852502E-06
2.163225E+03	9.027807E-06	5.056973E-06
2.202557E+03	9.497232E-06	5.315351E-06
2.241888E+03	1.004392E-05	5.616401E-06
2.281219E+03	1.063257E-05	5.940270E-06
2.320551E+03	1.125074E-05	6.279936E-06
2.359882E+03	1.188605E-05	6.628436E-06
2.399213E+03	1.253241E-05	6.982330E-06
2.438545E+03	1.318745E-05	7.340269E-06
2.477876E+03	1.385572E-05	7.704750E-06
2.517207E+03	1.453765E-05	8.075966E-06
2.556539E+03	1.523888E-05	8.457015E-06
2.595870E+03	1.595413E-05	8.844914E-06
2.635202E+03	1.668817E-05	9.242262E-06
2.674533E+03	1.744544E-05	9.651463E-06
2.713864E+03	1.822422E-05	1.007150E-05
2.753196E+03	1.902773E-05	1.050410E-05
2.792527E+03	1.985274E-05	1.094742E-05
2.831858E+03	2.070100E-05	1.140234E-05
2.871190E+03	2.156754E-05	1.186608E-05
2.910521E+03	2.245838E-05	1.234188E-05
2.949853E+03	2.336667E-05	1.282592E-05
2.959685E+03	2.359669E-05	1.294833E-05
2.969518E+03	2.382943E-05	1.307214E-05
2.979351E+03	2.405873E-05	1.319398E-05
2.989184E+03	2.429061E-05	1.331715E-05
2.999017E+03	2.452542E-05	1.344183E-05
3.008850E+03	2.476355E-05	1.356824E-05
3.018682E+03	2.499868E-05	1.369291E-05
3.028515E+03	2.524250E-05	1.382225E-05
3.038348E+03	2.548273E-05	1.394952E-05
3.048181E+03	2.572506E-05	1.407786E-05
3.058014E+03	2.596922E-05	1.420709E-05
3.067847E+03	2.621490E-05	1.433707E-05
3.077679E+03	2.645587E-05	1.446436E-05
3.087512E+03	2.670377E-05	1.459536E-05
3.097345E+03	2.695238E-05	1.472664E-05
3.107178E+03	2.719545E-05	1.485479E-05
3.117011E+03	2.744463E-05	1.498618E-05
3.126844E+03	2.769368E-05	1.511740E-05
3.136676E+03	2.793643E-05	1.524509E-05
3.146509E+03	2.818444E-05	1.537554E-05
3.156342E+03	2.843153E-05	1.550539E-05
3.166175E+03	2.867743E-05	1.563449E-05
3.176008E+03	2.892188E-05	1.576270E-05
3.185841E+03	2.917044E-05	1.589304E-05
3.195674E+03	2.941120E-05	1.601904E-05
3.205506E+03	2.965553E-05	1.614687E-05
3.215339E+03	2.989733E-05	1.627323E-05
3.225172E+03	3.014210E-05	1.640111E-05
3.235005E+03	3.038382E-05	1.652722E-05
3.244838E+03	3.062222E-05	1.665142E-05
3.254671E+03	3.086273E-05	1.677667E-05
3.264503E+03	3.109938E-05	1.689972E-05
3.274336E+03	3.133195E-05	1.702046E-05
3.284169E+03	3.156576E-05	1.714176E-05
3.294002E+03	3.180051E-05	1.726348E-05
3.303835E+03	3.203035E-05	1.738243E-05
3.313668E+03	3.226055E-05	1.750147E-05
3.323500E+03	3.248534E-05	1.761748E-05
3.333333E+03	3.270993E-05	1.773328E-05
3.343166E+03	3.293399E-05	1.784871E-05
3.352999E+03	3.315724E-05	1.796358E-05
3.362832E+03	3.337405E-05	1.807488E-05
3.372665E+03	3.359478E-05	1.818819E-05
3.382498E+03	3.380856E-05	1.829766E-05
3.392330E+03	3.402042E-05	1.840598E-05
3.402163E+03	3.423007E-05	1.851302E-05
3.411996E+03	3.444234E-05	1.862137E-05
3.421829E+03	3.464673E-05	1.872537E-05
3.431662E+03	3.484811E-05	1.882765E-05
3.441495E+03	3.505121E-05	1.893077E-05
3.451327E+03	3.525075E-05	1.903188E-05
3.461160E+03	3.544648E-05	1.913083E-05
3.470993E+03	3.564303E-05	1.923014E-05
3.480826E+03	3.583526E-05	1.932703E-05
3.490659E+03	3.602299E-05	1.942139E-05
3.500492E+03	3.621072E-05	1.951568E-05
3.510324E+03	3.639814E-05	1.960971E-05
3.520157E+03	3.658037E-05	1.970085E-05
3.529990E+03	3.676180E-05	1.979148E-05
3.539823E+03	3.693767E-05	1.987903E-05
3.549656E+03	3.711678E-05	1.996824E-05
3.559489E+03	3.728991E-05	2.005414E-05
3.569322E+03	3.746135E-05	2.013906E-05
3.579154E+03	3.763089E-05	2.022287E-05
3.588987E+03	3.779833E-05	2.030548E-05
3.598820E+03	3.796768E-05	2.038903E-05
3.608653E+03	3.813035E-05	2.046891E-05
3.618486E+03	3.829451E-05	2.054951E-05
3.628319E+03	3.845586E-05	2.062853E-05
3.638151E+03	3.861827E-05	2.070803E-05
3.647984E+03	3.877756E-05	2.078578E-05
3.657817E+03	3.893362E-05	2.086173E-05
3.667650E+03	3.909027E-05	2.093792E-05
3.677483E+03	3.924731E-05	2.101424E-05
3.687316E+03	3.940081E-05	2.108858E-05
3.697148E+03	3.955817E-05	2.116492E-05
3.706981E+03	3.971180E-05	2.123918E-05
3.716814E+03	3.986533E-05	2.131332E-05
3.726647E+03	4.001865E-05	2.138727E-05
3.736480E+03	4.017520E-05	2.146287E-05
3.746313E+03	4.032783E-05	2.153630E-05
3.756146E+03	4.048349E-05	2.161128E-05
3.765978E+03	4.063861E-05	2.168589E-05
3.775811E+03	4.079652E-05	2.176191E-05
3.785644E+03	4.095379E-05	2.183752E-05
3.795477E+03	4.111046E-05	2.191273E-05
3.805310E+03	4.127294E-05	2.199097E-05
3.815143E+03	4.143472E-05	2.206875E-05
3.824975E+03	4.159897E-05	2.214777E-05
3.834808E+03	4.176565E-05	2.222801E-05
3.844641E+03	4.193170E-05	2.230783E-05
3.854474E+03	4.210321E-05	2.239048E-05
3.864307E+03	4.227711E-05	2.247432E-05
3.874140E+03	4.245633E-05	2.256090E-05
3.883972E+03	4.263505E-05	2.264714E-05
3.893805E+03	4.281910E-05	2.273612E-05
3.903638E+03	4.300564E-05	2.282634E-05
3.913471E+03	4.319750E-05	2.291930E-05
3.923304E+03	4.339466E-05	2.301499E-05
3.933137E+03	4.359447E-05	2.311198E-05
3.942970E+03	4.379966E-05	2.321174E-05
3.952802E+03	4.401026E-05	2.331428E-05
3.962635E+03	4.422382E-05	2.341828E-05
3.972468E+03	4.444549E-05	2.352649E-05
3.982301E+03	4.467282E-05	2.363759E-05
3.992134E+03	4.490341E-05	2.375032E-05
4.001967E+03	4.514232E-05	2.386735E-05
4.011799E+03	4.538719E-05	2.398742E-05
4.021632E+03	4.563818E-05	2.411062E-05
4.031465E+03	4.589777E-05	2.423825E-05
4.041298E+03	4.616369E-05	2.436912E-05
4.051131E+03	4.643619E-05	2.450334E-05
4.060964E+03	4.671771E-05	2.464220E-05
4.070796E+03	4.700835E-05	2.478576E-05
4.080629E+03	4.730605E-05	2.493291E-05
4.090462E+03	4.761110E-05	2.508381E-05
4.100295E+03	4.792797E-05	2.524081E-05
4.110128E+03	4.825044E-05	2.540062E-05
4.119961E+03	4.858514E-05	2.556674E-05
4.129794E+03	4.892812E-05	2.573708E-05
4.139626E+03	4.928162E-05	2.591280E-05
4.149459E+03	4.964597E-05	2.609409E-05
4.159292E+03	5.001940E-05	2.628000E-05
4.169125E+03	5.040422E-05	2.647173E-05
4.178958E+03	5.080068E-05	2.666942E-05
4.188791E+03	5.120710E-05	2.687219E-05
4.198623E+03	5.162777E-05	2.708226E-05
4.208456E+03	5.205906E-05	2.729773E-05
4.218289E+03	5.250133E-05	2.751878E-05
4.228122E+03	5.295684E-05	2.774661E-05
4.237955E+03	5.342595E-05	2.798137E-05
4.247788E+03	5.390710E-05	2.822225E-05
4.257620E+03	5.440248E-05	2.847039E-05
4.267453E+03	5.491071E-05	2.872506E-05
4.277286E+03	5.543388E-05	2.898734E-05
4.287119E+03	5.597056E-05	2.925649E-05
4.296952E+03	5.652117E-05	2.953271E-05
4.306785E+03	5.708605E-05	2.981616E-05
4.316618E+03	5.766555E-05	3.010704E-05
4.326450E+03	5.826005E-05	3.040552E-05
4.336283E+03	5.886996E-05	3.071182E-05
4.346116E+03	5.949383E-05	3.102517E-05
4.355949E+03	6.013383E-05	3.134670E-05
4.365782E+03	6.079023E-05	3.167653E-05
4.375615E+03	6.145997E-05	3.201306E-05
4.385447E+03	6.214685E-05	3.235827E-05
4.395280E+03	6.284944E-05	3.271141E-05
4.405113E+03	6.356809E-05	3.307265E-05
4.414946E+03	6.430144E-05	3.344126E-05
4.424779E+03	6.505148E-05	3.381830E-05
4.434612E+03	6.581687E-05	3.420304E-05
4.444444E+03	6.659786E-05	3.459560E-05
4.454277E+03	6.739478E-05	3.499617E-05
4.464110E+03	6.820623E-05	3.540399E-05
4.473943E+03	6.903415E-05	3.582008E-05
4.483776E+03	6.987718E-05	3.624371E-05
4.493609E+03	7.073712E-05	3.667582E-05
4.503441E+03	7.161100E-05	3.711486E-05
4.513274E+03	7.249902E-05	3.756093E-05
4.523107E+03	7.340302E-05	3.801498E-05
4.532940E+03	7.432162E-05	3.847628E-05
4.542773E+03	7.525498E-05	3.894491E-05
4.552606E+03	7.620323E-05	3.942094E-05
4.562439E+03	7.716334E-05	3.990279E-05
4.572271E+03	7.813867E-05	4.039220E-05
4.582104E+03	7.912609E-05	4.088754E-05
4.591937E+03	8.012733E-05	4.138971E-05
4.601770E+03	8.114253E-05	4.189877E-05
4.611603E+03	8.216843E-05	4.241304E-05
4.621436E+03	8.320516E-05	4.293259E-05
4.631268E+03	8.425596E-05	4.345907E-05
4.641101E+03	8.531594E-05	4.398997E-05
4.650934E+03	8.638677E-05	4.452616E-05
4.660767E+03	8.746834E-05	4.506756E-05
4.670600E+03	8.855907E-05	4.561337E-05
4.680433E+03	8.966036E-05	4.616431E-05
4.690265E+03	9.076899E-05	4.671871E-05
4.700098E+03	9.188471E-05	4.727646E-05
4.709931E+03	9.300901E-05	4.783832E-05
4.719764E+03	9.414011E-05	4.840338E-05
4.729597E+03	9.527777E-05	4.897152E-05
4.739430E+03	9.642009E-05	4.954175E-05
4.749263E+03	9.756679E-05	5.011395E-05
4.759095E+03	9.871922E-05	5.068881E-05
4.768928E+03	9.987378E-05	5.126449E-05
4.778761E+03	1.010317E-04	5.184162E-05
4.788594E+03	1.021910E-04	5.241918E-05
4.798427E+03	1.033528E-04	5.299779E-05
4.808260E+03	1.045134E-04	5.357553E-05
4.818092E+03	1.056756E-04	5.415384E-05
4.827925E+03	1.068356E-04	5.473079E-05
4.837758E+03	1.079929E-04	5.530610E-05
4.847591E+03	1.091485E-04	5.588032E-05
4.857424E+03	1.102984E-04	5.645146E-05
4.867257E+03	1.114455E-04	5.702091E-05
4.877089E+03	1.125872E-04	5.758748E-05
4.886922E+03	1.137214E-04	5.814998E-05
4.896755E+03	1.148489E-04	5.870889E-05
4.906588E+03	1.159690E-04	5.926387E-05
4.916421E+03	1.170792E-04	5.981366E-05
4.926254E+03	1.181805E-04	6.035875E-05
4.936087E+03	1.192687E-04	6.089699E-05
4.945919E+03	1.203462E-04	6.142974E-05
4.955752E+03	1.214107E-04	6.195570E-05
4.965585E+03	1.224629E-04	6.247529E-05
4.975418E+03	1.234985E-04	6.298637E-05
4.985251E+03	1.245200E-04	6.349021E-05
4.995084E+03	1.255232E-04	6.398467E-05
5.004916E+03	1.265106E-04	6.447102E-05
5.014749E+03	1.274794E-04	6.494795E-05
5.024582E+03	1.284289E-04	6.541499E-05
5.034415E+03	1.293581E-04	6.587172E-05
5.044248E+03	1.302661E-04	6.631770E-05
5.054081E+03	1.311537E-04	6.675332E-05
5.063913E+03	1.320182E-04	6.717728E-05
5.073746E+03	1.328588E-04	6.758916E-05
5.083579E+03	1.336746E-04	6.798850E-05
5.093412E+03	1.344682E-04	6.837664E-05
5.103245E+03	1.352335E-04	6.875055E-05
5.113078E+03	1.359749E-04	6.911245E-05
5.122911E+03	1.366881E-04	6.946018E-05
5.132743E+03	1.373741E-04	6.979423E-05
5.142576E+03	1.380320E-04	7.011426E-05
5.152409E+03	1.386630E-04	7.042076E-05
5.162242E+03	1.392628E-04	7.071167E-05
5.172075E+03	1.398341E-04	7.098838E-05
5.181908E+03	1.403747E-04	7.124974E-05
5.191740E+03	1.408857E-04	7.149634E-05
5.201573E+03	1.413665E-04	7.172790E-05
5.211406E+03	1.418166E-04	7.194418E-05
5.221239E+03	1.422338E-04	7.214408E-05
5.231072E+03	1.426212E-04	7.232916E-05
5.240905E+03	1.429765E-04	7.249834E-05
5.250737E+03	1.432995E-04	7.265150E-05
5.260570E+03	1.435916E-04	7.278935E-05
5.270403E+03	1.438507E-04	7.291090E-05
5.280236E+03	1.440803E-04	7.301785E-05
5.290069E+03	1.442767E-04	7.310838E-05
5.299902E+03	1.444416E-04	7.318335E-05
5.309735E+03	1.445765E-04	7.324358E-05
5.319567E+03	1.446799E-04	7.328826E-05
5.329400E+03	1.447517E-04	7.331743E-05
5.339233E+03	1.447939E-04	7.333204E-05
5.349066E+03	1.448049E-04	7.333133E-05
5.358899E+03	1.447884E-04	7.331715E-05
5.368732E+03	1.447412E-04	7.328795E-05
5.378564E+03	1.446655E-04	7.324479E-05
5.388397E+03	1.445633E-04	7.318872E-05
5.398230E+03	1.444318E-04	7.311833E-05
5.408063E+03	1.442751E-04	7.303566E-05
5.417896E+03	1.440930E-04	7.294069E-05
5.427729E+03	1.438887E-04	7.283503E-05
5.437561E+03	1.436641E-04	7.271955E-05
5.447394E+03	1.434192E-04	7.259434E-05
5.457227E+03	1.431559E-04	7.246024E-05
5.467060E+03	1.428775E-04	7.231903E-05
5.476893E+03	1.425874E-04	7.217241E-05
5.486726E+03	1.422844E-04	7.201967E-05
5.496559E+03	1.419702E-04	7.186173E-05
5.506391E+03	1.416497E-04	7.170107E-05
5.516224E+03	1.413232E-04	7.153781E-05
5.526057E+03	1.409908E-04	7.137202E-05
5.535890E+03	1.406574E-04	7.120614E-05
5.545723E+03	1.403216E-04	7.103941E-05
5.555556E+03	1.399879E-04	7.087421E-05
5.565388E+03	1.396550E-04	7.070980E-05
5.575221E+03	1.393275E-04	7.054848E-05
5.585054E+03	1.390036E-04	7.038943E-05
5.594887E+03	1.386865E-04	7.023416E-05
5.604720E+03	1.383775E-04	7.008333E-05
5.614553E+03	1.380778E-04	6.993761E-05
5.624385E+03	1.377888E-04	6.979763E-05
5.634218E+03	1.375100E-04	6.966323E-05
5.644051E+03	1.372442E-04	6.953571E-05
5.653884E+03	1.369925E-04	6.941564E-05
5.663717E+03	1.367542E-04	6.930275E-05
5.673550E+03	1.365320E-04	6.919828E-05
5.683382E+03	1.363251E-04	6.910192E-05
5.693215E+03	1.361359E-04	6.901485E-05
5.703048E+03	1.359637E-04	6.893670E-05
5.712881E+03	1.358092E-04	6.886783E-05
5.722714E+03	1.356730E-04	6.880858E-05
5.732547E+03	1.355559E-04	6.875926E-05
5.742380E+03	1.354582E-04	6.872012E-05
5.752212E+03	1.353791E-04	6.869070E-05
5.762045E+03	1.353218E-04	6.867266E-05
5.771878E+03	1.352840E-04	6.866475E-05
5.781711E+03	1.352658E-04	6.866714E-05
5.791544E+03	1.352691E-04	6.868069E-05
5.801377E+03	1.352940E-04	6.870551E-05
5.811209E+03	1.353379E-04	6.874029E-05
5.821042E+03	1.354024E-04	6.878579E-05
5.830875E+03	1.354889E-04	6.884276E-05
5.840708E+03	1.355947E-04	6.890983E-05
5.850541E+03	1.357212E-04	6.898771E-05
5.860374E+03	1.358683E-04	6.907635E-05
5.870206E+03	1.360346E-04	6.917505E-05
5.880039E+03	1.362200E-04	6.928370E-05
5.889872E+03	1.364255E-04	6.940295E-05
5.899705E+03	1.366498E-04	6.953199E-05
5.909538E+03	1.368925E-04	6.967070E-05
5.919371E+03	1.371547E-04	6.981964E-05
5.929204E+03	1.374333E-04	6.997723E-05
5.939036E+03	1.377294E-04	7.014402E-05
5.948869E+03	1.380425E-04	7.031978E-05
5.958702E+03	1.383708E-04	7.050360E-05
5.968535E+03	1.387153E-04	7.069593E-05
5.978368E+03	1.390754E-04	7.089655E-05
5.988201E+03	1.394492E-04	7.110445E-05
5.998033E+03	1.398375E-04	7.132006E-05
6.007866E+03	1.402383E-04	7.154236E-05
6.017699E+03	1.406509E-04	7.177099E-05
6.027532E+03	1.410747E-04	7.200563E-05
6.037365E+03	1.415103E-04	7.224661E-05
6.047198E+03	1.419556E-04	7.249286E-05
6.057030E+03	1.424098E-04	7.274393E-05
6.066863E+03	1.428734E-04	7.300017E-05
6.076696E+03	1.433427E-04	7.325964E-05
6.086529E+03	1.438198E-04	7.352339E-05
6.096362E+03	1.443023E-04	7.379019E-05
6.106195E+03	1.447891E-04	7.405953E-05
6.116028E+03	1.452793E-04	7.433094E-05
6.125860E+03	1.457718E-04	7.460385E-05
6.135693E+03	1.462671E-04	7.487851E-05
6.145526E+03	1.467627E-04	7.515358E-05
6.155359E+03	1.472573E-04	7.542848E-05
6.165192E+03	1.477513E-04	7.570341E-05
6.175025E+03	1.482406E-04	7.597622E-05
6.184857E+03	1.487284E-04	7.624860E-05
6.194690E+03	1.492106E-04	7.651836E-05
6.204523E+03	1.496859E-04	7.678489E-05
6.214356E+03	1.501545E-04	7.704828E-05
6.224189E+03	1.506151E-04	7.730790E-05
6.234022E+03	1.510665E-04	7.756305E-05
6.243854E+03	1.515058E-04	7.781227E-05
6.253687E+03	1.519348E-04	7.805645E-05
6.263520E+03	1.523505E-04	7.829412E-05
6.273353E+03	1.527501E-04	7.852377E-05
6.283186E+03	1.531354E-04	7.874629E-05
6.293019E+03	1.535049E-04	7.896101E-05
6.302852E+03	1.538559E-04	7.916640E-05
6.312684E+03	1.541869E-04	7.936177E-05
6.322517E+03	1.544998E-04	7.954805E-05
6.332350E+03	1.547901E-04	7.972293E-05
6.342183E+03	1.550582E-04	7.988654E-05
6.352016E+03	1.553026E-04	8.003821E-05
6.361849E+03	1.555222E-04	8.017728E-05
6.371681E+03	1.557175E-04	8.030394E-05
6.381514E+03	1.558854E-04	8.041673E-05
6.391347E+03	1.560250E-04	8.051502E-05
6.401180E+03	1.561366E-04	8.059907E-05
6.411013E+03	1.562193E-04	8.066830E-05
6.420846E+03	1.562719E-04	8.072215E-05
6.430678E+03	1.562919E-04	8.075925E-05
6.440511E+03	1.562816E-04	8.078080E-05
6.450344E+03	1.562384E-04	8.078546E-05
6.460177E+03	1.561616E-04	8.077279E-05
6.470010E+03	1.560520E-04	8.074322E-05
6.479843E+03	1.559072E-04	8.069553E-05
6.489676E+03	1.557266E-04	8.062933E-05
6.499508E+03	1.555130E-04	8.054603E-05
6.509341E+03	1.552624E-04	8.044363E-05
6.519174E+03	1.549762E-04	8.032271E-05
6.529007E+03	1.546538E-04	8.018306E-05
6.538840E+03	1.542950E-04	8.002449E-05
6.548673E+03	1.539012E-04	7.984772E-05
6.558505E+03	1.534689E-04	7.965090E-05
6.568338E+03	1.530012E-04	7.943567E-05
6.578171E+03	1.524982E-04	7.920198E-05
6.588004E+03	1.519565E-04	7.894809E-05
6.597837E+03	1.513812E-04	7.867660E-05
6.607670E+03	1.507691E-04	7.838583E-05
6.617502E+03	1.501219E-04	7.807673E-05
6.627335E+03	1.494401E-04	7.774940E-05
6.637168E+03	1.487222E-04	7.740313E-05
6.647001E+03	1.479719E-04	7.703979E-05
6.656834E+03	1.471863E-04	7.665787E-05
6.666667E+03	1.463691E-04	7.625929E-05
6.676500E+03	1.455177E-04	7.584259E-05
6.686332E+03	1.446357E-04	7.540972E-05
6.696165E+03	1.437221E-04	7.496012E-05
6.705998E+03	1.427776E-04	7.449411E-05
6.715831E+03	1.418028E-04	7.401201E-05
6.725664E+03	1.407999E-04	7.351497E-05
6.735497E+03	1.397682E-04	7.300253E-05
6.745329E+03	1.387099E-04	7.247588E-05
6.755162E+03	1.376242E-04	7.193457E-05
6.764995E+03	1.365135E-04	7.137982E-05
6.774828E+03	1.353770E-04	7.081121E-05
6.784661E+03	1.342155E-04	7.022918E-05
6.794494E+03	1.330329E-04	6.963572E-05
6.804326E+03	1.318256E-04	6.902892E-05
6.814159E+03	1.305989E-04	6.841156E-05
6.823992E+03	1.293507E-04	6.778254E-05
6.833825E+03	1.280834E-04	6.714307E-05
6.843658E+03	1.267964E-04	6.649287E-05
6.853491E+03	1.254937E-04	6.583392E-05
6.863324E+03	1.241717E-04	6.516445E-05
6.873156E+03	1.228357E-04	6.448718E-05
6.882989E+03	1.214853E-04	6.380188E-05
6.892822E+03	1.201201E-04	6.310830E-05
6.902655E+03	1.187424E-04	6.240768E-05
6.912488E+03	1.173532E-04	6.170056E-05
6.922321E+03	1.159522E-04	6.098674E-05
6.932153E+03	1.145431E-04	6.026818E-05
6.941986E+03	1.131244E-04	5.954401E-05
6.951819E+03	1.116984E-04	5.881550E-05
6.961652E+03	1.102661E-04	5.808320E-05
6.971485E+03	1.088287E-04	5.734768E-05
6.981318E+03	1.073873E-04	5.660953E-05
6.991150E+03	1.059417E-04	5.586868E-05
7.000983E+03	1.044957E-04	5.512705E-05
7.010816E+03	1.030479E-04	5.438392E-05
7.020649E+03	1.016006E-04	5.364058E-05
7.030482E+03	1.001551E-04	5.289764E-05
7.040315E+03	9.871259E-05	5.215575E-05
7.050147E+03	9.727422E-05	5.141552E-05
7.059980E+03	9.584008E-05	5.067699E-05
7.069813E+03	9.441370E-05	4.994203E-05
7.079646E+03	9.299397E-05	4.921007E-05
7.089479E+03	9.158331E-05	4.848238E-05
7.099312E+03	9.018289E-05	4.775959E-05
7.109145E+03	8.879395E-05	4.704235E-05
7.118977E+03	8.741769E-05	4.633131E-05
7.128810E+03	8.605423E-05	4.562654E-05
7.138643E+03	8.470690E-05	4.492981E-05
7.148476E+03	8.337476E-05	4.424063E-05
7.158309E+03	8.206003E-05	4.356019E-05
7.168142E+03	8.076382E-05	4.288908E-05
7.177974E+03	7.948725E-05	4.222792E-05
7.187807E+03	7.823142E-05	4.157729E-05
7.197640E+03	7.699735E-05	4.093775E-05
7.207473E+03	7.578515E-05	4.030937E-05
7.217306E+03	7.459770E-05	3.969370E-05
7.227139E+03	7.343409E-05	3.909026E-05
7.236971E+03	7.229714E-05	3.850057E-05
7.246804E+03	7.118585E-05	3.792412E-05
7.256637E+03	7.010206E-05	3.736189E-05
7.266470E+03	6.904655E-05	3.681432E-05
7.276303E+03	6.802013E-05	3.628186E-05
7.286136E+03	6.702269E-05	3.576447E-05
7.295969E+03	6.605666E-05	3.526347E-05
7.305801E+03	6.512186E-05	3.477876E-05
7.315634E+03	6.421810E-05	3.431028E-05
7.325467E+03	6.334766E-05	3.385927E-05
7.335300E+03	6.251027E-05	3.342559E-05
7.345133E+03	6.170567E-05	3.300913E-05
7.354966E+03	6.093599E-05	3.261104E-05
7.364798E+03	6.020012E-05	3.223077E-05
7.374631E+03	5.950010E-05	3.186941E-05
7.384464E+03	5.883478E-05	3.152639E-05
7.394297E+03	5.820614E-05	3.120278E-05
7.404130E+03	5.761378E-05	3.089838E-05
7.413963E+03	5.705804E-05	3.061342E-05
7.423795E+03	5.653928E-05	3.034810E-05
7.433628E+03	5.605782E-05	3.010263E-05
7.443461E+03	5.561395E-05	2.987718E-05
7.453294E+03	5.520795E-05	2.967192E-05
7.463127E+03	5.484083E-05	2.948744E-05
7.472960E+03	5.451205E-05	2.932346E-05
7.482793E+03	5.422186E-05	2.918014E-05
7.492625E+03	5.397035E-05	2.905756E-05
7.502458E+03	5.375740E-05	2.895569E-05
7.512291E+03	5.358347E-05	2.887480E-05
7.522124E+03	5.344757E-05	2.881437E-05
7.531957E+03	5.335018E-05	2.877470E-05
7.541790E+03	5.328954E-05	2.875486E-05
7.551622E+03	5.326687E-05	2.875553E-05
7.561455E+03	5.328191E-05	2.877660E-05
7.571288E+03	5.333364E-05	2.881755E-05
7.581121E+03	5.342182E-05	2.887827E-05
7.590954E+03	5.354629E-05	2.895870E-05
7.600787E+03	5.370833E-05	2.905956E-05
7.610619E+03	5.390555E-05	2.917958E-05
7.620452E+03	5.413936E-05	2.931955E-05
7.630285E+03	5.440966E-05	2.947944E-05
