#wls	flux	fluxerr
1.592167E+03	2.306837E-04	1.741954E-08
1.631971E+03	2.453272E-04	1.852530E-08
1.671775E+03	2.593531E-04	1.958444E-08
1.711579E+03	2.724053E-04	2.057004E-08
1.751383E+03	2.839440E-04	2.144136E-08
1.791187E+03	2.933820E-04	2.215405E-08
1.830992E+03	3.001789E-04	2.266730E-08
1.870796E+03	3.038944E-04	2.294787E-08
1.910600E+03	3.044553E-04	2.299022E-08
1.950404E+03	3.024074E-04	2.283558E-08
1.990208E+03	2.991622E-04	2.259052E-08
2.030012E+03	2.970152E-04	2.242839E-08
2.069817E+03	2.971685E-04	2.243998E-08
2.109621E+03	2.998246E-04	2.264054E-08
2.149425E+03	3.104349E-04	2.344175E-08
2.189229E+03	3.312639E-04	2.501460E-08
2.229033E+03	3.581064E-04	2.704155E-08
2.268837E+03	3.785707E-04	2.858686E-08
2.308641E+03	3.910127E-04	2.952639E-08
2.348446E+03	4.023931E-04	3.038574E-08
2.388250E+03	4.145778E-04	3.130584E-08
2.428054E+03	4.275813E-04	3.228776E-08
2.467858E+03	4.414723E-04	3.333671E-08
2.507662E+03	4.570270E-04	3.451128E-08
2.547466E+03	4.761412E-04	3.595464E-08
2.587271E+03	4.999754E-04	3.775442E-08
2.627075E+03	5.247222E-04	3.962311E-08
2.666879E+03	5.513457E-04	4.163352E-08
2.706683E+03	5.826725E-04	4.399908E-08
2.746487E+03	6.166112E-04	4.656187E-08
2.786291E+03	6.504726E-04	4.911882E-08
2.826096E+03	6.825230E-04	5.153903E-08
2.865900E+03	7.120294E-04	5.376713E-08
2.905704E+03	7.391562E-04	5.581553E-08
2.945508E+03	7.647488E-04	5.774809E-08
2.985312E+03	7.901774E-04	5.966826E-08
2.995263E+03	7.967056E-04	6.016121E-08
3.005214E+03	8.033657E-04	6.066414E-08
3.015165E+03	8.101884E-04	6.117933E-08
3.025116E+03	8.172305E-04	6.171109E-08
3.035067E+03	8.245361E-04	6.226275E-08
3.045019E+03	8.321700E-04	6.283921E-08
3.054970E+03	8.401952E-04	6.344521E-08
3.064921E+03	8.486060E-04	6.408033E-08
3.074872E+03	8.574709E-04	6.474973E-08
3.084823E+03	8.668074E-04	6.545475E-08
3.094774E+03	8.766540E-04	6.619830E-08
3.104725E+03	8.870876E-04	6.698616E-08
3.114676E+03	8.981178E-04	6.781908E-08
3.124627E+03	9.098102E-04	6.870199E-08
3.134578E+03	9.222171E-04	6.963887E-08
3.144529E+03	9.354119E-04	7.063523E-08
3.154480E+03	9.494371E-04	7.169431E-08
3.164431E+03	9.643755E-04	7.282234E-08
3.174382E+03	9.802961E-04	7.402454E-08
3.184333E+03	9.972554E-04	7.530518E-08
3.194284E+03	1.015351E-03	7.667161E-08
3.204235E+03	1.034684E-03	7.813147E-08
3.214186E+03	1.055307E-03	7.968875E-08
3.224137E+03	1.077346E-03	8.135303E-08
3.234088E+03	1.100860E-03	8.312856E-08
3.244039E+03	1.125990E-03	8.502624E-08
3.253990E+03	1.152766E-03	8.704810E-08
3.263941E+03	1.181269E-03	8.920047E-08
3.273892E+03	1.211555E-03	9.148741E-08
3.283843E+03	1.243590E-03	9.390647E-08
3.293795E+03	1.277302E-03	9.645217E-08
3.303746E+03	1.312444E-03	9.910578E-08
3.313697E+03	1.348655E-03	1.018402E-07
3.320175E+03	1.596964E-03	1.205906E-07
3.324235E+03	1.598615E-03	1.207152E-07
3.328295E+03	1.602277E-03	1.209918E-07
3.332345E+03	1.605863E-03	1.212625E-07
3.336405E+03	1.609517E-03	1.215385E-07
3.340455E+03	1.612842E-03	1.217895E-07
3.344515E+03	1.615947E-03	1.220240E-07
3.348565E+03	1.619805E-03	1.223153E-07
3.352625E+03	1.624274E-03	1.226528E-07
3.356685E+03	1.628379E-03	1.229628E-07
3.360735E+03	1.633130E-03	1.233215E-07
3.364795E+03	1.636325E-03	1.235628E-07
3.368845E+03	1.639299E-03	1.237874E-07
3.372905E+03	1.644404E-03	1.241728E-07
3.376965E+03	1.648927E-03	1.245144E-07
3.381015E+03	1.652832E-03	1.248093E-07
3.385075E+03	1.656374E-03	1.250767E-07
3.389126E+03	1.659188E-03	1.252892E-07
3.393186E+03	1.660551E-03	1.253922E-07
3.397236E+03	1.662743E-03	1.255577E-07
3.401296E+03	1.664318E-03	1.256766E-07
3.405356E+03	1.665273E-03	1.257487E-07
3.409406E+03	1.665354E-03	1.257548E-07
3.413466E+03	1.666375E-03	1.258319E-07
3.417516E+03	1.666993E-03	1.258785E-07
3.421576E+03	1.665650E-03	1.257772E-07
3.425636E+03	1.668293E-03	1.259767E-07
3.429686E+03	1.672457E-03	1.262911E-07
3.433746E+03	1.674153E-03	1.264192E-07
3.437796E+03	1.675483E-03	1.265197E-07
3.441856E+03	1.676558E-03	1.266009E-07
3.445906E+03	1.676468E-03	1.265940E-07
3.449966E+03	1.677466E-03	1.266694E-07
3.454026E+03	1.679407E-03	1.268159E-07
3.458076E+03	1.680182E-03	1.268745E-07
3.462136E+03	1.681393E-03	1.269659E-07
3.466186E+03	1.682129E-03	1.270215E-07
3.470246E+03	1.682028E-03	1.270139E-07
3.474306E+03	1.682435E-03	1.270446E-07
3.478356E+03	1.681675E-03	1.269872E-07
3.482417E+03	1.680988E-03	1.269353E-07
3.486467E+03	1.680553E-03	1.269024E-07
3.490527E+03	1.678698E-03	1.267624E-07
3.494577E+03	1.676367E-03	1.265864E-07
3.498637E+03	1.675601E-03	1.265285E-07
3.502697E+03	1.673049E-03	1.263358E-07
3.506747E+03	1.670239E-03	1.261237E-07
3.510807E+03	1.668304E-03	1.259775E-07
3.514857E+03	1.667059E-03	1.258835E-07
3.518917E+03	1.665012E-03	1.257289E-07
3.522977E+03	1.664897E-03	1.257202E-07
3.527027E+03	1.663176E-03	1.255903E-07
3.531087E+03	1.660544E-03	1.253915E-07
3.535137E+03	1.657034E-03	1.251265E-07
3.539197E+03	1.654984E-03	1.249717E-07
3.543247E+03	1.653371E-03	1.248499E-07
3.547307E+03	1.652489E-03	1.247832E-07
3.551367E+03	1.651388E-03	1.247001E-07
3.555417E+03	1.651199E-03	1.246859E-07
3.559477E+03	1.650575E-03	1.246387E-07
3.563527E+03	1.650937E-03	1.246660E-07
3.567587E+03	1.653932E-03	1.248922E-07
3.571647E+03	1.654810E-03	1.249585E-07
3.575698E+03	1.656091E-03	1.250553E-07
3.579758E+03	1.658034E-03	1.252019E-07
3.583808E+03	1.659393E-03	1.253045E-07
3.587868E+03	1.660206E-03	1.253659E-07
3.591928E+03	1.663583E-03	1.256210E-07
3.595978E+03	1.666743E-03	1.258596E-07
3.600038E+03	1.670091E-03	1.261124E-07
3.604088E+03	1.673479E-03	1.263682E-07
3.608148E+03	1.677969E-03	1.267073E-07
3.612198E+03	1.681914E-03	1.270052E-07
3.616258E+03	1.684289E-03	1.271845E-07
3.620318E+03	1.687216E-03	1.274056E-07
3.624368E+03	1.689817E-03	1.276019E-07
3.628428E+03	1.690626E-03	1.276630E-07
3.632478E+03	1.692024E-03	1.277686E-07
3.636538E+03	1.693280E-03	1.278634E-07
3.640598E+03	1.695420E-03	1.280250E-07
3.644648E+03	1.696352E-03	1.280954E-07
3.648708E+03	1.697472E-03	1.281799E-07
3.652758E+03	1.697934E-03	1.282148E-07
3.656818E+03	1.699135E-03	1.283055E-07
3.660869E+03	1.699200E-03	1.283104E-07
3.664929E+03	1.698020E-03	1.282213E-07
3.668989E+03	1.696953E-03	1.281407E-07
3.673039E+03	1.696329E-03	1.280937E-07
3.677099E+03	1.695490E-03	1.280302E-07
3.681149E+03	1.694210E-03	1.279336E-07
3.685209E+03	1.693119E-03	1.278512E-07
3.689269E+03	1.692363E-03	1.277941E-07
3.693319E+03	1.690431E-03	1.276482E-07
3.697379E+03	1.688392E-03	1.274943E-07
3.701429E+03	1.687719E-03	1.274434E-07
3.705489E+03	1.687382E-03	1.274180E-07
3.709539E+03	1.686052E-03	1.273176E-07
3.713599E+03	1.685170E-03	1.272509E-07
3.717659E+03	1.684328E-03	1.271874E-07
3.721709E+03	1.682198E-03	1.270265E-07
3.725769E+03	1.678780E-03	1.267684E-07
3.729819E+03	1.676175E-03	1.265717E-07
3.733879E+03	1.674868E-03	1.264730E-07
3.737939E+03	1.673305E-03	1.263550E-07
3.741989E+03	1.671856E-03	1.262455E-07
3.746049E+03	1.670190E-03	1.261197E-07
3.750100E+03	1.668156E-03	1.259662E-07
3.754160E+03	1.664759E-03	1.257096E-07
3.758210E+03	1.660734E-03	1.254057E-07
3.762270E+03	1.657822E-03	1.251858E-07
3.766330E+03	1.654322E-03	1.249215E-07
3.770380E+03	1.651970E-03	1.247439E-07
3.774440E+03	1.649290E-03	1.245415E-07
3.778490E+03	1.645685E-03	1.242693E-07
3.782550E+03	1.642603E-03	1.240366E-07
3.786610E+03	1.640600E-03	1.238853E-07
3.790660E+03	1.638376E-03	1.237174E-07
3.794720E+03	1.636046E-03	1.235414E-07
3.798770E+03	1.633606E-03	1.233572E-07
3.802830E+03	1.631802E-03	1.232210E-07
3.806880E+03	1.630001E-03	1.230849E-07
3.810940E+03	1.627238E-03	1.228763E-07
3.815000E+03	1.624702E-03	1.226848E-07
3.819050E+03	1.622391E-03	1.225103E-07
3.823110E+03	1.619936E-03	1.223249E-07
3.827160E+03	1.619046E-03	1.222577E-07
3.831220E+03	1.616599E-03	1.220729E-07
3.835280E+03	1.614639E-03	1.219249E-07
3.839330E+03	1.612942E-03	1.217967E-07
3.843391E+03	1.612592E-03	1.217703E-07
3.847441E+03	1.612320E-03	1.217498E-07
3.851501E+03	1.611980E-03	1.217242E-07
3.855561E+03	1.611086E-03	1.216566E-07
3.859611E+03	1.610344E-03	1.216006E-07
3.863671E+03	1.609273E-03	1.215197E-07
3.867721E+03	1.607942E-03	1.214192E-07
3.871781E+03	1.606282E-03	1.212938E-07
3.875831E+03	1.604997E-03	1.211968E-07
3.879891E+03	1.604317E-03	1.211454E-07
3.883951E+03	1.602781E-03	1.210295E-07
3.888001E+03	1.601135E-03	1.209052E-07
3.892061E+03	1.599420E-03	1.207757E-07
3.896111E+03	1.597670E-03	1.206435E-07
3.900171E+03	1.595251E-03	1.204609E-07
3.904231E+03	1.592235E-03	1.202331E-07
3.908281E+03	1.589746E-03	1.200451E-07
3.912341E+03	1.586698E-03	1.198150E-07
3.916391E+03	1.583689E-03	1.195878E-07
3.920451E+03	1.580083E-03	1.193155E-07
3.924501E+03	1.577531E-03	1.191227E-07
3.928561E+03	1.574945E-03	1.189275E-07
3.932622E+03	1.573115E-03	1.187893E-07
3.936672E+03	1.569707E-03	1.185319E-07
3.940732E+03	1.566867E-03	1.183175E-07
3.944782E+03	1.563802E-03	1.180860E-07
3.948842E+03	1.560628E-03	1.178463E-07
3.952902E+03	1.558098E-03	1.176553E-07
3.956952E+03	1.556248E-03	1.175156E-07
3.961012E+03	1.554706E-03	1.173991E-07
3.965062E+03	1.552939E-03	1.172657E-07
3.969122E+03	1.550762E-03	1.171013E-07
3.973172E+03	1.548095E-03	1.168999E-07
3.977232E+03	1.546000E-03	1.167417E-07
3.981292E+03	1.542735E-03	1.164952E-07
3.985342E+03	1.540417E-03	1.163202E-07
3.989402E+03	1.538559E-03	1.161798E-07
3.993452E+03	1.536323E-03	1.160110E-07
3.997512E+03	1.533940E-03	1.158311E-07
4.001572E+03	1.531561E-03	1.156514E-07
4.005622E+03	1.528157E-03	1.153944E-07
4.009682E+03	1.525061E-03	1.151606E-07
4.013732E+03	1.522117E-03	1.149383E-07
4.017792E+03	1.519406E-03	1.147335E-07
4.021843E+03	1.515173E-03	1.144139E-07
4.025903E+03	1.511095E-03	1.141059E-07
4.029963E+03	1.507703E-03	1.138498E-07
4.034013E+03	1.505493E-03	1.136829E-07
4.038073E+03	1.503287E-03	1.135163E-07
4.042123E+03	1.500433E-03	1.133008E-07
4.046183E+03	1.497469E-03	1.130770E-07
4.050243E+03	1.494775E-03	1.128736E-07
4.054293E+03	1.492119E-03	1.126730E-07
4.058353E+03	1.489772E-03	1.124958E-07
4.062403E+03	1.486470E-03	1.122465E-07
4.066463E+03	1.484052E-03	1.120639E-07
4.070513E+03	1.481826E-03	1.118957E-07
4.074573E+03	1.479144E-03	1.116933E-07
4.078633E+03	1.476695E-03	1.115083E-07
4.082683E+03	1.474745E-03	1.113610E-07
4.086743E+03	1.472031E-03	1.111561E-07
4.090793E+03	1.469164E-03	1.109396E-07
4.094853E+03	1.466262E-03	1.107205E-07
4.098913E+03	1.463593E-03	1.105189E-07
4.102963E+03	1.461616E-03	1.103696E-07
4.107023E+03	1.458758E-03	1.101538E-07
4.111074E+03	1.456053E-03	1.099496E-07
4.115134E+03	1.452119E-03	1.096525E-07
4.119184E+03	1.448606E-03	1.093873E-07
4.123244E+03	1.445329E-03	1.091398E-07
4.127304E+03	1.442555E-03	1.089303E-07
4.131354E+03	1.439586E-03	1.087061E-07
4.135414E+03	1.437472E-03	1.085465E-07
4.139464E+03	1.435358E-03	1.083868E-07
4.143524E+03	1.433249E-03	1.082275E-07
4.147584E+03	1.431219E-03	1.080743E-07
4.151634E+03	1.429499E-03	1.079444E-07
4.155694E+03	1.428329E-03	1.078560E-07
4.159744E+03	1.427353E-03	1.077824E-07
4.163804E+03	1.426617E-03	1.077268E-07
4.167864E+03	1.425807E-03	1.076656E-07
4.171914E+03	1.425426E-03	1.076368E-07
4.175974E+03	1.424936E-03	1.075998E-07
4.180024E+03	1.425383E-03	1.076336E-07
4.184084E+03	1.425916E-03	1.076738E-07
4.188134E+03	1.426335E-03	1.077055E-07
4.192194E+03	1.426645E-03	1.077289E-07
4.196254E+03	1.427274E-03	1.077763E-07
4.200305E+03	1.427123E-03	1.077649E-07
4.204365E+03	1.427645E-03	1.078043E-07
4.208415E+03	1.428640E-03	1.078795E-07
4.212475E+03	1.428664E-03	1.078813E-07
4.216535E+03	1.428498E-03	1.078687E-07
4.220585E+03	1.428450E-03	1.078652E-07
4.224645E+03	1.428175E-03	1.078444E-07
4.228695E+03	1.427823E-03	1.078178E-07
4.232755E+03	1.426967E-03	1.077531E-07
4.236805E+03	1.426466E-03	1.077153E-07
4.240865E+03	1.425854E-03	1.076691E-07
4.244925E+03	1.425640E-03	1.076529E-07
4.248975E+03	1.426257E-03	1.076995E-07
4.253035E+03	1.426289E-03	1.077020E-07
4.257085E+03	1.426364E-03	1.077076E-07
4.261145E+03	1.426289E-03	1.077019E-07
4.265205E+03	1.426020E-03	1.076816E-07
4.269255E+03	1.425911E-03	1.076734E-07
4.273315E+03	1.426365E-03	1.077077E-07
4.277365E+03	1.426981E-03	1.077542E-07
4.281425E+03	1.427129E-03	1.077653E-07
4.285475E+03	1.427319E-03	1.077797E-07
4.289535E+03	1.427556E-03	1.077976E-07
4.293596E+03	1.428994E-03	1.079062E-07
4.297646E+03	1.430316E-03	1.080060E-07
4.301706E+03	1.430931E-03	1.080524E-07
4.305756E+03	1.431588E-03	1.081021E-07
4.309816E+03	1.431696E-03	1.081102E-07
4.313876E+03	1.431368E-03	1.080855E-07
4.317926E+03	1.431762E-03	1.081152E-07
4.321986E+03	1.432085E-03	1.081396E-07
4.326036E+03	1.432290E-03	1.081551E-07
4.330096E+03	1.432423E-03	1.081651E-07
4.334146E+03	1.431554E-03	1.080994E-07
4.338206E+03	1.430289E-03	1.080040E-07
4.342266E+03	1.428906E-03	1.078995E-07
4.346316E+03	1.427603E-03	1.078011E-07
4.350376E+03	1.426748E-03	1.077365E-07
4.354426E+03	1.425731E-03	1.076597E-07
4.358486E+03	1.424154E-03	1.075407E-07
4.362546E+03	1.422620E-03	1.074248E-07
4.366596E+03	1.420800E-03	1.072874E-07
4.370656E+03	1.419025E-03	1.071533E-07
4.374706E+03	1.417085E-03	1.070069E-07
4.378766E+03	1.415514E-03	1.068882E-07
4.382817E+03	1.413697E-03	1.067510E-07
4.386877E+03	1.411964E-03	1.066201E-07
4.390937E+03	1.410232E-03	1.064893E-07
4.394987E+03	1.408375E-03	1.063491E-07
4.399047E+03	1.407090E-03	1.062521E-07
4.403097E+03	1.406415E-03	1.062011E-07
4.407157E+03	1.404970E-03	1.060920E-07
4.411217E+03	1.403362E-03	1.059706E-07
4.415267E+03	1.401179E-03	1.058057E-07
4.419327E+03	1.399079E-03	1.056472E-07
4.423377E+03	1.396607E-03	1.054605E-07
4.427437E+03	1.394546E-03	1.053048E-07
4.431497E+03	1.393263E-03	1.052080E-07
4.435547E+03	1.391443E-03	1.050705E-07
4.439607E+03	1.389831E-03	1.049488E-07
4.443657E+03	1.388503E-03	1.048485E-07
4.447717E+03	1.386602E-03	1.047050E-07
4.451767E+03	1.384614E-03	1.045548E-07
4.455827E+03	1.382009E-03	1.043581E-07
4.459887E+03	1.379070E-03	1.041362E-07
4.463937E+03	1.376828E-03	1.039669E-07
4.467997E+03	1.373759E-03	1.037351E-07
4.472048E+03	1.369895E-03	1.034434E-07
4.476108E+03	1.365823E-03	1.031359E-07
4.480168E+03	1.361786E-03	1.028311E-07
4.484218E+03	1.358570E-03	1.025882E-07
4.488278E+03	1.355685E-03	1.023704E-07
4.492328E+03	1.351669E-03	1.020671E-07
4.496388E+03	1.348109E-03	1.017983E-07
4.500438E+03	1.344790E-03	1.015476E-07
4.504498E+03	1.339883E-03	1.011771E-07
4.508558E+03	1.335595E-03	1.008533E-07
4.512608E+03	1.333554E-03	1.006992E-07
4.516668E+03	1.332099E-03	1.005893E-07
4.520718E+03	1.330304E-03	1.004537E-07
4.524778E+03	1.328635E-03	1.003278E-07
4.528838E+03	1.326124E-03	1.001382E-07
4.532888E+03	1.323817E-03	9.996394E-08
4.536948E+03	1.322098E-03	9.983408E-08
4.540998E+03	1.321214E-03	9.976738E-08
4.545058E+03	1.320797E-03	9.973587E-08
4.549108E+03	1.320207E-03	9.969131E-08
4.553168E+03	1.319282E-03	9.962149E-08
4.557228E+03	1.318356E-03	9.955153E-08
4.561279E+03	1.317890E-03	9.951638E-08
4.565339E+03	1.318698E-03	9.957737E-08
4.569389E+03	1.319590E-03	9.964469E-08
4.573449E+03	1.319850E-03	9.966432E-08
4.577509E+03	1.320493E-03	9.971288E-08
4.581559E+03	1.320921E-03	9.974525E-08
4.585619E+03	1.320460E-03	9.971043E-08
4.589669E+03	1.321145E-03	9.976217E-08
4.593729E+03	1.322433E-03	9.985937E-08
4.597779E+03	1.322438E-03	9.985979E-08
4.601839E+03	1.321678E-03	9.980235E-08
4.605899E+03	1.320830E-03	9.973832E-08
4.609949E+03	1.320833E-03	9.973860E-08
4.614009E+03	1.320969E-03	9.974880E-08
4.618059E+03	1.320714E-03	9.972959E-08
4.622119E+03	1.321450E-03	9.978514E-08
4.626179E+03	1.322488E-03	9.986353E-08
4.630229E+03	1.323051E-03	9.990601E-08
4.634289E+03	1.324134E-03	9.998784E-08
4.638339E+03	1.325604E-03	1.000989E-07
4.642399E+03	1.327814E-03	1.002657E-07
4.646449E+03	1.330413E-03	1.004620E-07
4.650509E+03	1.333107E-03	1.006653E-07
4.654570E+03	1.335458E-03	1.008429E-07
4.658620E+03	1.338894E-03	1.011024E-07
4.662680E+03	1.341168E-03	1.012741E-07
4.666730E+03	1.343008E-03	1.014130E-07
4.670790E+03	1.345724E-03	1.016181E-07
4.674850E+03	1.349445E-03	1.018991E-07
4.678900E+03	1.352254E-03	1.021112E-07
4.682960E+03	1.354112E-03	1.022515E-07
4.687010E+03	1.355620E-03	1.023654E-07
4.691070E+03	1.356958E-03	1.024664E-07
4.695120E+03	1.358207E-03	1.025607E-07
4.699180E+03	1.358366E-03	1.025727E-07
4.703240E+03	1.360233E-03	1.027137E-07
4.707290E+03	1.362845E-03	1.029110E-07
4.711350E+03	1.364499E-03	1.030358E-07
4.715400E+03	1.365183E-03	1.030875E-07
4.719460E+03	1.365078E-03	1.030796E-07
4.723520E+03	1.365016E-03	1.030749E-07
4.727570E+03	1.364507E-03	1.030364E-07
4.731630E+03	1.364044E-03	1.030014E-07
4.735680E+03	1.363264E-03	1.029426E-07
4.739740E+03	1.362928E-03	1.029171E-07
4.743801E+03	1.361703E-03	1.028247E-07
4.747851E+03	1.360249E-03	1.027149E-07
4.751911E+03	1.359015E-03	1.026217E-07
4.755961E+03	1.359016E-03	1.026218E-07
4.760021E+03	1.359331E-03	1.026456E-07
4.764071E+03	1.358973E-03	1.026185E-07
4.768131E+03	1.359596E-03	1.026656E-07
4.772191E+03	1.360887E-03	1.027631E-07
4.776241E+03	1.361461E-03	1.028064E-07
4.780301E+03	1.362350E-03	1.028735E-07
4.784351E+03	1.363995E-03	1.029978E-07
4.788411E+03	1.364884E-03	1.030649E-07
4.792471E+03	1.365011E-03	1.030744E-07
4.796521E+03	1.366298E-03	1.031716E-07
4.800581E+03	1.367454E-03	1.032590E-07
4.804631E+03	1.368967E-03	1.033732E-07
4.808691E+03	1.369718E-03	1.034299E-07
4.812741E+03	1.369835E-03	1.034387E-07
4.816801E+03	1.370763E-03	1.035088E-07
4.820861E+03	1.371015E-03	1.035278E-07
4.824911E+03	1.370267E-03	1.034713E-07
4.828971E+03	1.370603E-03	1.034967E-07
4.833022E+03	1.370617E-03	1.034978E-07
4.837082E+03	1.370768E-03	1.035091E-07
4.841142E+03	1.371369E-03	1.035546E-07
4.845192E+03	1.370695E-03	1.035036E-07
4.849252E+03	1.369565E-03	1.034183E-07
4.853302E+03	1.368608E-03	1.033461E-07
4.857362E+03	1.367013E-03	1.032256E-07
4.861412E+03	1.365362E-03	1.031010E-07
4.865472E+03	1.364758E-03	1.030554E-07
4.869532E+03	1.364653E-03	1.030474E-07
4.873582E+03	1.362849E-03	1.029111E-07
4.877642E+03	1.360904E-03	1.027643E-07
4.881692E+03	1.358995E-03	1.026201E-07
4.885752E+03	1.356807E-03	1.024549E-07
4.889812E+03	1.355116E-03	1.023272E-07
4.893862E+03	1.353692E-03	1.022197E-07
4.897922E+03	1.353368E-03	1.021953E-07
4.901972E+03	1.352854E-03	1.021564E-07
4.906032E+03	1.352246E-03	1.021105E-07
4.910082E+03	1.351677E-03	1.020675E-07
4.914142E+03	1.350967E-03	1.020140E-07
4.918202E+03	1.350392E-03	1.019705E-07
4.922253E+03	1.349347E-03	1.018916E-07
4.926313E+03	1.348901E-03	1.018579E-07
4.930363E+03	1.348170E-03	1.018027E-07
4.934423E+03	1.348086E-03	1.017964E-07
4.938483E+03	1.347442E-03	1.017477E-07
4.942533E+03	1.346603E-03	1.016844E-07
4.946593E+03	1.345530E-03	1.016033E-07
4.950643E+03	1.344448E-03	1.015216E-07
4.954703E+03	1.343690E-03	1.014644E-07
4.958753E+03	1.342597E-03	1.013818E-07
4.962813E+03	1.342342E-03	1.013626E-07
4.966873E+03	1.341522E-03	1.013007E-07
4.970923E+03	1.339430E-03	1.011427E-07
4.974983E+03	1.336817E-03	1.009454E-07
4.979033E+03	1.334615E-03	1.007791E-07
4.983093E+03	1.333441E-03	1.006905E-07
4.987153E+03	1.331556E-03	1.005481E-07
4.991203E+03	1.329237E-03	1.003730E-07
4.995263E+03	1.326913E-03	1.001975E-07
4.999313E+03	1.324908E-03	1.000461E-07
5.003373E+03	1.322332E-03	9.985158E-08
5.007433E+03	1.319936E-03	9.967067E-08
5.011484E+03	1.317198E-03	9.946392E-08
5.015544E+03	1.313697E-03	9.919956E-08
5.019594E+03	1.310751E-03	9.897709E-08
5.023654E+03	1.308414E-03	9.880064E-08
5.027704E+03	1.305781E-03	9.860184E-08
5.031764E+03	1.303712E-03	9.844561E-08
5.035824E+03	1.302586E-03	9.836057E-08
5.039874E+03	1.301308E-03	9.826405E-08
5.043934E+03	1.299503E-03	9.812775E-08
5.047984E+03	1.297497E-03	9.797626E-08
5.052044E+03	1.296010E-03	9.786401E-08
5.056104E+03	1.294947E-03	9.778370E-08
5.060154E+03	1.294256E-03	9.773157E-08
5.064214E+03	1.293611E-03	9.768287E-08
5.068264E+03	1.292527E-03	9.760100E-08
5.072324E+03	1.291728E-03	9.754061E-08
5.076374E+03	1.290344E-03	9.743610E-08
5.080434E+03	1.288380E-03	9.728783E-08
5.084494E+03	1.287321E-03	9.720788E-08
5.088544E+03	1.286734E-03	9.716356E-08
5.092604E+03	1.285953E-03	9.710452E-08
5.096654E+03	1.284777E-03	9.701574E-08
5.100714E+03	1.283356E-03	9.690847E-08
5.104775E+03	1.281447E-03	9.676426E-08
5.108825E+03	1.279381E-03	9.660831E-08
5.112885E+03	1.277021E-03	9.643007E-08
