#wls	flux	fluxerr
1.592167E+03	1.267284E-04	4.974086E-06
1.631971E+03	1.282425E-04	5.005795E-06
1.671775E+03	1.294153E-04	5.022953E-06
1.711579E+03	1.302548E-04	5.026070E-06
1.751383E+03	1.307400E-04	5.014538E-06
1.791187E+03	1.308087E-04	4.986218E-06
1.830992E+03	1.303837E-04	4.938465E-06
1.870796E+03	1.293785E-04	4.868383E-06
1.910600E+03	1.277132E-04	4.773420E-06
1.950404E+03	1.253742E-04	4.653590E-06
1.990208E+03	1.224258E-04	4.511814E-06
2.030012E+03	1.192196E-04	4.361477E-06
2.069817E+03	1.163269E-04	4.223577E-06
2.109621E+03	1.145948E-04	4.128419E-06
2.149425E+03	1.147605E-04	4.101383E-06
2.189229E+03	1.171375E-04	4.151942E-06
2.229033E+03	1.214861E-04	4.269663E-06
2.268837E+03	1.272300E-04	4.432614E-06
2.308641E+03	1.338151E-04	4.620266E-06
2.348446E+03	1.408489E-04	4.818271E-06
2.388250E+03	1.481053E-04	5.018400E-06
2.428054E+03	1.554734E-04	5.216566E-06
2.467858E+03	1.629680E-04	5.413001E-06
2.507662E+03	1.706455E-04	5.609278E-06
2.547466E+03	1.785279E-04	5.805771E-06
2.587271E+03	1.867131E-04	6.005251E-06
2.627075E+03	1.952192E-04	6.207799E-06
2.666879E+03	2.040820E-04	6.414023E-06
2.706683E+03	2.133879E-04	6.626031E-06
2.746487E+03	2.231359E-04	6.843107E-06
2.786291E+03	2.334074E-04	7.067014E-06
2.826096E+03	2.441621E-04	7.295740E-06
2.865900E+03	2.555080E-04	7.531683E-06
2.905704E+03	2.674280E-04	7.773427E-06
2.945508E+03	2.799641E-04	8.021251E-06
2.985312E+03	2.931227E-04	8.274342E-06
2.995263E+03	2.965335E-04	8.338994E-06
3.005214E+03	2.999619E-04	8.403292E-06
3.015165E+03	3.034423E-04	8.468191E-06
3.025116E+03	3.069432E-04	8.532790E-06
3.035067E+03	3.105452E-04	8.599317E-06
3.045019E+03	3.141902E-04	8.666127E-06
3.054970E+03	3.178744E-04	8.733104E-06
3.064921E+03	3.216658E-04	8.802087E-06
3.074872E+03	3.254912E-04	8.871046E-06
3.084823E+03	3.293834E-04	8.940858E-06
3.094774E+03	3.333406E-04	9.011441E-06
3.104725E+03	3.373609E-04	9.082728E-06
3.114676E+03	3.414057E-04	9.153653E-06
3.124627E+03	3.455474E-04	9.226139E-06
3.134578E+03	3.497104E-04	9.298140E-06
3.144529E+03	3.539310E-04	9.370608E-06
3.154480E+03	3.581701E-04	9.442487E-06
3.164431E+03	3.625021E-04	9.515724E-06
3.174382E+03	3.668514E-04	9.588305E-06
3.184333E+03	3.712936E-04	9.662187E-06
3.194284E+03	3.757516E-04	9.735341E-06
3.204235E+03	3.802639E-04	9.808748E-06
3.214186E+03	3.848308E-04	9.882396E-06
3.224137E+03	3.894522E-04	9.956259E-06
3.234088E+03	3.940898E-04	1.002934E-05
3.244039E+03	3.988223E-04	1.010363E-05
3.253990E+03	4.036112E-04	1.017812E-05
3.263941E+03	4.084176E-04	1.025180E-05
3.273892E+03	4.133218E-04	1.032668E-05
3.283843E+03	4.182451E-04	1.040076E-05
3.293795E+03	4.232685E-04	1.047604E-05
3.303746E+03	4.283121E-04	1.055052E-05
3.313697E+03	4.334172E-04	1.062519E-05
3.323648E+03	4.386251E-04	1.070103E-05
3.333599E+03	4.438538E-04	1.077603E-05
3.343550E+03	4.491866E-04	1.085218E-05
3.353501E+03	4.545391E-04	1.092741E-05
3.363452E+03	4.599944E-04	1.100371E-05
3.373403E+03	4.654665E-04	1.107898E-05
3.383354E+03	4.710374E-04	1.115517E-05
3.393305E+03	4.766613E-04	1.123115E-05
3.403256E+03	4.823344E-04	1.130683E-05
3.413207E+03	4.880519E-04	1.138205E-05
3.423158E+03	4.937641E-04	1.145567E-05
3.433109E+03	4.995930E-04	1.153049E-05
3.443060E+03	5.054025E-04	1.160335E-05
3.453011E+03	5.112283E-04	1.167507E-05
3.462962E+03	5.171078E-04	1.174650E-05
3.472913E+03	5.229616E-04	1.181582E-05
3.482864E+03	5.288893E-04	1.188528E-05
3.492815E+03	5.348592E-04	1.195414E-05
3.502766E+03	5.408840E-04	1.202268E-05
3.512717E+03	5.469764E-04	1.209116E-05
3.522668E+03	5.531929E-04	1.216079E-05
3.532620E+03	5.594565E-04	1.222985E-05
3.542571E+03	5.658680E-04	1.230052E-05
3.552522E+03	5.723941E-04	1.237202E-05
3.562473E+03	5.790445E-04	1.244453E-05
3.572424E+03	5.858746E-04	1.251917E-05
3.582375E+03	5.928039E-04	1.259419E-05
3.592326E+03	5.999316E-04	1.267163E-05
3.602277E+03	6.072214E-04	1.275068E-05
3.612228E+03	6.146817E-04	1.283144E-05
3.622179E+03	6.223667E-04	1.291499E-05
3.632130E+03	6.302391E-04	1.300048E-05
3.642081E+03	6.383063E-04	1.308799E-05
3.652032E+03	6.465760E-04	1.317762E-05
3.661983E+03	6.550565E-04	1.326947E-05
3.671934E+03	6.638020E-04	1.336455E-05
3.681885E+03	6.727733E-04	1.346200E-05
3.691836E+03	6.819781E-04	1.356190E-05
3.701787E+03	6.914245E-04	1.366431E-05
3.711738E+03	7.011672E-04	1.377025E-05
3.721689E+03	7.111667E-04	1.387884E-05
3.731640E+03	7.214305E-04	1.399014E-05
3.741591E+03	7.320151E-04	1.410517E-05
3.751542E+03	7.428300E-04	1.422208E-05
3.761493E+03	7.539815E-04	1.434282E-05
3.771444E+03	7.654275E-04	1.446649E-05
3.781396E+03	7.771757E-04	1.459315E-05
3.791347E+03	7.892840E-04	1.472379E-05
3.801298E+03	8.017095E-04	1.485749E-05
3.811249E+03	8.144084E-04	1.499337E-05
3.821200E+03	8.274893E-04	1.513332E-05
3.831151E+03	8.409613E-04	1.527740E-05
3.841102E+03	8.547262E-04	1.542373E-05
3.851053E+03	8.688955E-04	1.557422E-05
3.861004E+03	8.834237E-04	1.572796E-05
3.870955E+03	8.982622E-04	1.588398E-05
3.880906E+03	9.135248E-04	1.604421E-05
3.890857E+03	9.292179E-04	1.620865E-05
3.900808E+03	9.452381E-04	1.637539E-05
3.910759E+03	9.616440E-04	1.654538E-05
3.920710E+03	9.784407E-04	1.671859E-05
3.930661E+03	9.956889E-04	1.689599E-05
3.940612E+03	1.013279E-03	1.707562E-05
3.950563E+03	1.031329E-03	1.725938E-05
3.960514E+03	1.049727E-03	1.744532E-05
3.970465E+03	1.068533E-03	1.763436E-05
3.980416E+03	1.087807E-03	1.782744E-05
3.990367E+03	1.107435E-03	1.802258E-05
4.000318E+03	1.127475E-03	1.822070E-05
4.010269E+03	1.147928E-03	1.842175E-05
4.020221E+03	1.168795E-03	1.862570E-05
4.030172E+03	1.190076E-03	1.883247E-05
4.040123E+03	1.211706E-03	1.904103E-05
4.050074E+03	1.233810E-03	1.925331E-05
4.060025E+03	1.256259E-03	1.946725E-05
4.069976E+03	1.279050E-03	1.968280E-05
4.079927E+03	1.302306E-03	1.990188E-05
4.089878E+03	1.325896E-03	2.012244E-05
4.099829E+03	1.349811E-03	2.034441E-05
4.109780E+03	1.374180E-03	2.056973E-05
4.119731E+03	1.398862E-03	2.079631E-05
4.129682E+03	1.423849E-03	2.102407E-05
4.139633E+03	1.449198E-03	2.125396E-05
4.149584E+03	1.474832E-03	2.148487E-05
4.159535E+03	1.500737E-03	2.171671E-05
4.169486E+03	1.526970E-03	2.195040E-05
4.179437E+03	1.553518E-03	2.218583E-05
4.189388E+03	1.580218E-03	2.242081E-05
4.199339E+03	1.607195E-03	2.265727E-05
4.209290E+03	1.634353E-03	2.289399E-05
4.219241E+03	1.661740E-03	2.313181E-05
4.229192E+03	1.689177E-03	2.336841E-05
4.239143E+03	1.716700E-03	2.360453E-05
4.249094E+03	1.744347E-03	2.384088E-05
4.259045E+03	1.771915E-03	2.407495E-05
4.268997E+03	1.799504E-03	2.430834E-05
4.278948E+03	1.826893E-03	2.453835E-05
4.288899E+03	1.854167E-03	2.476642E-05
4.298850E+03	1.881082E-03	2.498963E-05
4.308801E+03	1.907627E-03	2.520815E-05
4.318752E+03	1.933618E-03	2.541997E-05
4.328703E+03	1.959114E-03	2.562621E-05
4.338654E+03	1.983849E-03	2.582381E-05
4.348605E+03	2.007726E-03	2.601193E-05
4.358556E+03	2.030834E-03	2.619218E-05
4.368507E+03	2.052876E-03	2.636113E-05
4.378458E+03	2.074066E-03	2.652200E-05
4.388409E+03	2.094142E-03	2.667183E-05
4.398360E+03	2.113284E-03	2.681336E-05
4.408311E+03	2.131533E-03	2.694750E-05
4.418262E+03	2.148861E-03	2.707426E-05
4.428213E+03	2.165332E-03	2.719482E-05
4.438164E+03	2.181012E-03	2.731033E-05
4.448115E+03	2.196051E-03	2.742300E-05
4.458066E+03	2.210427E-03	2.753281E-05
4.468017E+03	2.224110E-03	2.763965E-05
4.477968E+03	2.237322E-03	2.774634E-05
4.487919E+03	2.250022E-03	2.785245E-05
4.497870E+03	2.262337E-03	2.795953E-05
4.507822E+03	2.274131E-03	2.806594E-05
4.517773E+03	2.285522E-03	2.817313E-05
4.527724E+03	2.296537E-03	2.828141E-05
4.537675E+03	2.307117E-03	2.839002E-05
4.547626E+03	2.317453E-03	2.850126E-05
4.557577E+03	2.327481E-03	2.861429E-05
4.567528E+03	2.337134E-03	2.872823E-05
4.577479E+03	2.346513E-03	2.884424E-05
4.587430E+03	2.355634E-03	2.896244E-05
4.597381E+03	2.364427E-03	2.908187E-05
4.607332E+03	2.372988E-03	2.920362E-05
4.617283E+03	2.381330E-03	2.932773E-05
4.627234E+03	2.389464E-03	2.945424E-05
4.637185E+03	2.397316E-03	2.958214E-05
4.647136E+03	2.404982E-03	2.971246E-05
4.657087E+03	2.412386E-03	2.984415E-05
4.667038E+03	2.419620E-03	2.997824E-05
4.676989E+03	2.426610E-03	3.011367E-05
4.686940E+03	2.433447E-03	3.025142E-05
4.696891E+03	2.440139E-03	3.039147E-05
4.706842E+03	2.446525E-03	3.053169E-05
4.716793E+03	2.452862E-03	3.067512E-05
4.726744E+03	2.458989E-03	3.081963E-05
4.736695E+03	2.464914E-03	3.096517E-05
4.746646E+03	2.470721E-03	3.111267E-05
4.756598E+03	2.476336E-03	3.126104E-05
4.766549E+03	2.481762E-03	3.141019E-05
4.776500E+03	2.487084E-03	3.156105E-05
4.786451E+03	2.492306E-03	3.171354E-05
4.796402E+03	2.497268E-03	3.186550E-05
4.806353E+03	2.502137E-03	3.201887E-05
4.816304E+03	2.506913E-03	3.217358E-05
4.826255E+03	2.511519E-03	3.232847E-05
4.836206E+03	2.515955E-03	3.248343E-05
4.846157E+03	2.520304E-03	3.263939E-05
4.856108E+03	2.524487E-03	3.279518E-05
4.866059E+03	2.528503E-03	3.295071E-05
4.876010E+03	2.532435E-03	3.310688E-05
4.885961E+03	2.536202E-03	3.326255E-05
4.895912E+03	2.539885E-03	3.341864E-05
4.905863E+03	2.543402E-03	3.357399E-05
4.915814E+03	2.546755E-03	3.372846E-05
4.925765E+03	2.550023E-03	3.388301E-05
4.935716E+03	2.553125E-03	3.403646E-05
4.945667E+03	2.556062E-03	3.418869E-05
4.955618E+03	2.558912E-03	3.434066E-05
4.965569E+03	2.561597E-03	3.449120E-05
4.975520E+03	2.564194E-03	3.464128E-05
4.985471E+03	2.566625E-03	3.478971E-05
4.995423E+03	2.568890E-03	3.493641E-05
5.005374E+03	2.571068E-03	3.508237E-05
5.015325E+03	2.573080E-03	3.522641E-05
5.025276E+03	2.575006E-03	3.536955E-05
5.035227E+03	2.576769E-03	3.551063E-05
5.045178E+03	2.578448E-03	3.565067E-05
5.055129E+03	2.579966E-03	3.578854E-05
5.065080E+03	2.581325E-03	3.592417E-05
5.075031E+03	2.582606E-03	3.605862E-05
5.084982E+03	2.583811E-03	3.619185E-05
5.094933E+03	2.584866E-03	3.632276E-05
5.104884E+03	2.585773E-03	3.645132E-05
5.114835E+03	2.586615E-03	3.657863E-05
5.124786E+03	2.587396E-03	3.670467E-05
5.134737E+03	2.588042E-03	3.682838E-05
5.144688E+03	2.588559E-03	3.694977E-05
5.154639E+03	2.589030E-03	3.706997E-05
5.164590E+03	2.589460E-03	3.718902E-05
5.174541E+03	2.589778E-03	3.730586E-05
5.184492E+03	2.589991E-03	3.742055E-05
5.194443E+03	2.590260E-03	3.753535E-05
5.204394E+03	2.590360E-03	3.764702E-05
5.214345E+03	2.590531E-03	3.775898E-05
5.224296E+03	2.590625E-03	3.786906E-05
5.234248E+03	2.590650E-03	3.797737E-05
5.244199E+03	2.590691E-03	3.808511E-05
5.254150E+03	2.590756E-03	3.819238E-05
5.264101E+03	2.590851E-03	3.829927E-05
5.274052E+03	2.590909E-03	3.840478E-05
5.284003E+03	2.590938E-03	3.850900E-05
5.293954E+03	2.591095E-03	3.861427E-05
5.303905E+03	2.591236E-03	3.871845E-05
5.313856E+03	2.591368E-03	3.882162E-05
5.323807E+03	2.591647E-03	3.892613E-05
5.333758E+03	2.591926E-03	3.902979E-05
5.343709E+03	2.592285E-03	3.913379E-05
5.353660E+03	2.592652E-03	3.923704E-05
5.363611E+03	2.593102E-03	3.934071E-05
5.373562E+03	2.593636E-03	3.944481E-05
5.383513E+03	2.594252E-03	3.954930E-05
5.393464E+03	2.594869E-03	3.965299E-05
5.403415E+03	2.595630E-03	3.975808E-05
5.413366E+03	2.596376E-03	3.986213E-05
5.423317E+03	2.597092E-03	3.996492E-05
5.433268E+03	2.597910E-03	4.006848E-05
5.443219E+03	2.598654E-03	4.017014E-05
5.453170E+03	2.599368E-03	4.027057E-05
5.463121E+03	2.600089E-03	4.037033E-05
5.473072E+03	2.600566E-03	4.046551E-05
5.483024E+03	2.601056E-03	4.056006E-05
5.492975E+03	2.601520E-03	4.065335E-05
5.502926E+03	2.601909E-03	4.074461E-05
5.512877E+03	2.602394E-03	4.083647E-05
5.522828E+03	2.602841E-03	4.092684E-05
5.532779E+03	2.603336E-03	4.101702E-05
5.542730E+03	2.603884E-03	4.110710E-05
5.552681E+03	2.604563E-03	4.119832E-05
5.562632E+03	2.605223E-03	4.128828E-05
5.572583E+03	2.605938E-03	4.137813E-05
5.582534E+03	2.606702E-03	4.146778E-05
5.592485E+03	2.607508E-03	4.155712E-05
5.602436E+03	2.608347E-03	4.164600E-05
5.612387E+03	2.609210E-03	4.173424E-05
5.622338E+03	2.610083E-03	4.182165E-05
5.632289E+03	2.610955E-03	4.190801E-05
5.642240E+03	2.611811E-03	4.199308E-05
5.652191E+03	2.612710E-03	4.207783E-05
5.662142E+03	2.613485E-03	4.215955E-05
5.672093E+03	2.614271E-03	4.224040E-05
5.682044E+03	2.614974E-03	4.231885E-05
5.691995E+03	2.615500E-03	4.239340E-05
5.701946E+03	2.615982E-03	4.246617E-05
5.711897E+03	2.616401E-03	4.253684E-05
5.721849E+03	2.616586E-03	4.260266E-05
5.731800E+03	2.616595E-03	4.266452E-05
5.741751E+03	2.616482E-03	4.272334E-05
5.751702E+03	2.616155E-03	4.277758E-05
5.761653E+03	2.615594E-03	4.282691E-05
5.771604E+03	2.614857E-03	4.287228E-05
5.781555E+03	2.613851E-03	4.291215E-05
5.791506E+03	2.612559E-03	4.294625E-05
5.801457E+03	2.610964E-03	4.297430E-05
5.811408E+03	2.609052E-03	4.299604E-05
5.821359E+03	2.606884E-03	4.301248E-05
5.831310E+03	2.604447E-03	4.302340E-05
5.841261E+03	2.601577E-03	4.302613E-05
5.851212E+03	2.598416E-03	4.302296E-05
5.861163E+03	2.594878E-03	4.301249E-05
5.871114E+03	2.591031E-03	4.299585E-05
5.881065E+03	2.586792E-03	4.297169E-05
5.891016E+03	2.582159E-03	4.293993E-05
5.900967E+03	2.577201E-03	4.290178E-05
5.910918E+03	2.571918E-03	4.285720E-05
5.920869E+03	2.566161E-03	4.280374E-05
5.930820E+03	2.560080E-03	4.274390E-05
5.940771E+03	2.553678E-03	4.267777E-05
5.950722E+03	2.546887E-03	4.260419E-05
5.960673E+03	2.539788E-03	4.252455E-05
5.970625E+03	2.532315E-03	4.243776E-05
5.980576E+03	2.524479E-03	4.234400E-05
5.990527E+03	2.516364E-03	4.224474E-05
6.000478E+03	2.507984E-03	4.214022E-05
6.010429E+03	2.499280E-03	4.202946E-05
6.020380E+03	2.490269E-03	4.191276E-05
6.030331E+03	2.481113E-03	4.179290E-05
6.040282E+03	2.471613E-03	4.166654E-05
6.050233E+03	2.461933E-03	4.153649E-05
6.060184E+03	2.452094E-03	4.140311E-05
6.070135E+03	2.442117E-03	4.126681E-05
6.080086E+03	2.431953E-03	4.112678E-05
6.090037E+03	2.421626E-03	4.098344E-05
6.099988E+03	2.411229E-03	4.083844E-05
6.109939E+03	2.400788E-03	4.069222E-05
6.119890E+03	2.390325E-03	4.054523E-05
6.129841E+03	2.379797E-03	4.039673E-05
6.139792E+03	2.369227E-03	4.024718E-05
6.149743E+03	2.358780E-03	4.009942E-05
6.159694E+03	2.348342E-03	3.995155E-05
6.169645E+03	2.337936E-03	3.980401E-05
6.179596E+03	2.327727E-03	3.965964E-05
6.189547E+03	2.317600E-03	3.951651E-05
6.199498E+03	2.307577E-03	3.937506E-05
6.209450E+03	2.297819E-03	3.923809E-05
6.219401E+03	2.288210E-03	3.910366E-05
6.229352E+03	2.278840E-03	3.897334E-05
6.239303E+03	2.269661E-03	3.884635E-05
6.249254E+03	2.260827E-03	3.872540E-05
6.259205E+03	2.252220E-03	3.860850E-05
6.269156E+03	2.243924E-03	3.849714E-05
6.279107E+03	2.235886E-03	3.839047E-05
6.289058E+03	2.228254E-03	3.829107E-05
6.299009E+03	2.220904E-03	3.819687E-05
6.308960E+03	2.213912E-03	3.810923E-05
6.318911E+03	2.207287E-03	3.802834E-05
6.328862E+03	2.201032E-03	3.795432E-05
6.338813E+03	2.195084E-03	3.788614E-05
6.348764E+03	2.189576E-03	3.782614E-05
6.358715E+03	2.184373E-03	3.777204E-05
6.368666E+03	2.179536E-03	3.772495E-05
6.378617E+03	2.175056E-03	3.768479E-05
6.388568E+03	2.170924E-03	3.765143E-05
6.398519E+03	2.167127E-03	3.762470E-05
6.408470E+03	2.163582E-03	3.760325E-05
6.418421E+03	2.160406E-03	3.758911E-05
6.428372E+03	2.157446E-03	3.757971E-05
6.438323E+03	2.154817E-03	3.757705E-05
6.448274E+03	2.152368E-03	3.757848E-05
6.458226E+03	2.150218E-03	3.758604E-05
6.468177E+03	2.148227E-03	3.759727E-05
6.478128E+03	2.146526E-03	3.761445E-05
6.488079E+03	2.144998E-03	3.763550E-05
6.498030E+03	2.143736E-03	3.766205E-05
6.507981E+03	2.142808E-03	3.769526E-05
6.517932E+03	2.142033E-03	3.773193E-05
6.527883E+03	2.141507E-03	3.777375E-05
6.537834E+03	2.141076E-03	3.781797E-05
6.547785E+03	2.140860E-03	3.786669E-05
6.557736E+03	2.140787E-03	3.791863E-05
6.567687E+03	2.140859E-03	3.797377E-05
6.577638E+03	2.141075E-03	3.803212E-05
6.587589E+03	2.141439E-03	3.809370E-05
6.597540E+03	2.141953E-03	3.815853E-05
6.607491E+03	2.142617E-03	3.822661E-05
6.617442E+03	2.143432E-03	3.829791E-05
6.627393E+03	2.144462E-03	3.837358E-05
6.637344E+03	2.145636E-03	3.845233E-05
6.647295E+03	2.146949E-03	3.853404E-05
6.657246E+03	2.148391E-03	3.861854E-05
6.667197E+03	2.149955E-03	3.870567E-05
6.677148E+03	2.151629E-03	3.879520E-05
6.687099E+03	2.153470E-03	3.888813E-05
6.697051E+03	2.155395E-03	3.898298E-05
6.707002E+03	2.157393E-03	3.907948E-05
6.716953E+03	2.159446E-03	3.917734E-05
6.726904E+03	2.161608E-03	3.927749E-05
6.736855E+03	2.163727E-03	3.937714E-05
6.746806E+03	2.165922E-03	3.947846E-05
6.756757E+03	2.168109E-03	3.957988E-05
6.766708E+03	2.170342E-03	3.968235E-05
6.776659E+03	2.172463E-03	3.978301E-05
6.786610E+03	2.174597E-03	3.988406E-05
6.796561E+03	2.176656E-03	3.998391E-05
6.806512E+03	2.178696E-03	4.008354E-05
6.816463E+03	2.180632E-03	4.018135E-05
6.826414E+03	2.182378E-03	4.027576E-05
6.836365E+03	2.184130E-03	4.037033E-05
6.846316E+03	2.185664E-03	4.046091E-05
6.856267E+03	2.187108E-03	4.054982E-05
6.866218E+03	2.188378E-03	4.063549E-05
6.876169E+03	2.189463E-03	4.071768E-05
6.886120E+03	2.190351E-03	4.079615E-05
6.896071E+03	2.191104E-03	4.087199E-05
6.906022E+03	2.191640E-03	4.094368E-05
6.915973E+03	2.191951E-03	4.101102E-05
6.925924E+03	2.192101E-03	4.107516E-05
6.935875E+03	2.191939E-03	4.113328E-05
6.945827E+03	2.191601E-03	4.118788E-05
6.955778E+03	2.191011E-03	4.123750E-05
6.965729E+03	2.190236E-03	4.128337E-05
6.975680E+03	2.189128E-03	4.132270E-05
6.985631E+03	2.187828E-03	4.135808E-05
6.995582E+03	2.186262E-03	4.138811E-05
7.005533E+03	2.184499E-03	4.141406E-05
7.015484E+03	2.182396E-03	4.143322E-05
7.025435E+03	2.180097E-03	4.144826E-05
7.035386E+03	2.177458E-03	4.145644E-05
7.045337E+03	2.174625E-03	4.146051E-05
7.055288E+03	2.171528E-03	4.145912E-05
7.065239E+03	2.168242E-03	4.145367E-05
7.075190E+03	2.164628E-03	4.144149E-05
7.085141E+03	2.160833E-03	4.142539E-05
7.095092E+03	2.156719E-03	4.140268E-05
7.105043E+03	2.152435E-03	4.137622E-05
7.114994E+03	2.147916E-03	4.134475E-05
7.124945E+03	2.143169E-03	4.130836E-05
7.134896E+03	2.138200E-03	4.126721E-05
7.144847E+03	2.133018E-03	4.122142E-05
7.154798E+03	2.127632E-03	4.117116E-05
7.164749E+03	2.122049E-03	4.111658E-05
7.174700E+03	2.116280E-03	4.105786E-05
7.184652E+03	2.110334E-03	4.099517E-05
7.194603E+03	2.104290E-03	4.093008E-05
7.204554E+03	2.098019E-03	4.086004E-05
7.214505E+03	2.091602E-03	4.078663E-05
7.224456E+03	2.085048E-03	4.071005E-05
7.234407E+03	2.078369E-03	4.063051E-05
7.244358E+03	2.071575E-03	4.054823E-05
7.254309E+03	2.064678E-03	4.046344E-05
7.264260E+03	2.057689E-03	4.037635E-05
7.274211E+03	2.050549E-03	4.028583E-05
7.284162E+03	2.043408E-03	4.019484E-05
7.294113E+03	2.036140E-03	4.010087E-05
7.304064E+03	2.028823E-03	4.000553E-05
7.314015E+03	2.021538E-03	3.991038E-05
7.323966E+03	2.014090E-03	3.981161E-05
7.333917E+03	2.006695E-03	3.971349E-05
7.343868E+03	1.999295E-03	3.961489E-05
7.353819E+03	1.991832E-03	3.951470E-05
7.363770E+03	1.984385E-03	3.941447E-05
7.373721E+03	1.976963E-03	3.931443E-05
7.383672E+03	1.969509E-03	3.921345E-05
7.393623E+03	1.962167E-03	3.911440E-05
7.403574E+03	1.954811E-03	3.901484E-05
7.413525E+03	1.947517E-03	3.891628E-05
7.423476E+03	1.940229E-03	3.881760E-05
7.433428E+03	1.933019E-03	3.872032E-05
7.443379E+03	1.925897E-03	3.862462E-05
7.453330E+03	1.918804E-03	3.852937E-05
7.463281E+03	1.911814E-03	3.843605E-05
7.473232E+03	1.904933E-03	3.834485E-05
7.483183E+03	1.898103E-03	3.825461E-05
7.493134E+03	1.891396E-03	3.816681E-05
7.503085E+03	1.884818E-03	3.808161E-05
7.513036E+03	1.878310E-03	3.799784E-05
7.522987E+03	1.871943E-03	3.791697E-05
7.532938E+03	1.865658E-03	3.783783E-05
7.542889E+03	1.859524E-03	3.776187E-05
7.552840E+03	1.853482E-03	3.768791E-05
7.562791E+03	1.847601E-03	3.761739E-05
7.572742E+03	1.841886E-03	3.755043E-05
7.582693E+03	1.836276E-03	3.748587E-05
7.592644E+03	1.830777E-03	3.742381E-05
7.602595E+03	1.825455E-03	3.736567E-05
7.612546E+03	1.820314E-03	3.731158E-05
7.622497E+03	1.815295E-03	3.726033E-05
7.632448E+03	1.810400E-03	3.721202E-05
7.642399E+03	1.805696E-03	3.716808E-05
7.652350E+03	1.801187E-03	3.712860E-05
7.662301E+03	1.796748E-03	3.709105E-05
7.672253E+03	1.792572E-03	3.705947E-05
7.682204E+03	1.788534E-03	3.703132E-05
7.692155E+03	1.784636E-03	3.700669E-05
7.702106E+03	1.780882E-03	3.698565E-05
7.712057E+03	1.777334E-03	3.696960E-05
7.722008E+03	1.773995E-03	3.695860E-05
