#wls	flux	fluxerr
1.590410E+03	4.212025E-02	9.000513E-05
1.630170E+03	4.382115E-02	9.363949E-05
1.669930E+03	4.548761E-02	9.720024E-05
1.709691E+03	4.710270E-02	1.006512E-04
1.749451E+03	4.864772E-02	1.039524E-04
1.789211E+03	5.010273E-02	1.070613E-04
1.828971E+03	5.144656E-02	1.099326E-04
1.868732E+03	5.265761E-02	1.125201E-04
1.908492E+03	5.371389E-02	1.147769E-04
1.948252E+03	5.459523E-02	1.166599E-04
1.988012E+03	5.528515E-02	1.181339E-04
2.027773E+03	5.577618E-02	1.191829E-04
2.067533E+03	5.608394E-02	1.198402E-04
2.107293E+03	5.623414E-02	1.201609E-04
2.147053E+03	5.617993E-02	1.200448E-04
2.186814E+03	5.586837E-02	1.193788E-04
2.226574E+03	5.527709E-02	1.181151E-04
2.266334E+03	5.441704E-02	1.162771E-04
2.306094E+03	5.332320E-02	1.139396E-04
2.345854E+03	5.204877E-02	1.112162E-04
2.385615E+03	5.065890E-02	1.082462E-04
2.425375E+03	4.922089E-02	1.051733E-04
2.465135E+03	4.779548E-02	1.021273E-04
2.504895E+03	4.643297E-02	9.921576E-05
2.544656E+03	4.517040E-02	9.651778E-05
2.584416E+03	4.403003E-02	9.408091E-05
2.624176E+03	4.301828E-02	9.191889E-05
2.663936E+03	4.212673E-02	9.001371E-05
2.703697E+03	4.134225E-02	8.833733E-05
2.743457E+03	4.065363E-02	8.686576E-05
2.783217E+03	4.004992E-02	8.557564E-05
2.822977E+03	3.952031E-02	8.444387E-05
2.862738E+03	3.905345E-02	8.344617E-05
2.902498E+03	3.863775E-02	8.255782E-05
2.942258E+03	3.826072E-02	8.175206E-05
2.982018E+03	3.790920E-02	8.100084E-05
2.991958E+03	3.782377E-02	8.081827E-05
3.001899E+03	3.773889E-02	8.063686E-05
3.011839E+03	3.765439E-02	8.045629E-05
3.021779E+03	3.757001E-02	8.027596E-05
3.031719E+03	3.748545E-02	8.009524E-05
3.041659E+03	3.740056E-02	7.991383E-05
3.051599E+03	3.731520E-02	7.973140E-05
3.061539E+03	3.722910E-02	7.954740E-05
3.071479E+03	3.714196E-02	7.936119E-05
3.081419E+03	3.705368E-02	7.917252E-05
3.091359E+03	3.696410E-02	7.898107E-05
3.101299E+03	3.687269E-02	7.878573E-05
3.111239E+03	3.677958E-02	7.858677E-05
3.121179E+03	3.668453E-02	7.838364E-05
3.131119E+03	3.658714E-02	7.817551E-05
3.141059E+03	3.648729E-02	7.796213E-05
3.150999E+03	3.638473E-02	7.774296E-05
3.160940E+03	3.627934E-02	7.751776E-05
3.170880E+03	3.617102E-02	7.728628E-05
3.180820E+03	3.605941E-02	7.704776E-05
3.190760E+03	3.594438E-02	7.680197E-05
3.200700E+03	3.582585E-02	7.654868E-05
3.210640E+03	3.570360E-02	7.628742E-05
3.220580E+03	3.557739E-02	7.601772E-05
3.230520E+03	3.544701E-02	7.573912E-05
3.240460E+03	3.531265E-02	7.545200E-05
3.250400E+03	3.517383E-02	7.515537E-05
3.260340E+03	3.503062E-02	7.484934E-05
3.270280E+03	3.488281E-02	7.453349E-05
3.280220E+03	3.473046E-02	7.420795E-05
3.290160E+03	3.457327E-02	7.387206E-05
3.300100E+03	3.441144E-02	7.352624E-05
3.310040E+03	3.424464E-02	7.316982E-05
3.319981E+03	3.407310E-02	7.280326E-05
3.329921E+03	3.389665E-02	7.242622E-05
3.339861E+03	3.371525E-02	7.203860E-05
3.349801E+03	3.352912E-02	7.164089E-05
3.359741E+03	3.333814E-02	7.123279E-05
3.369681E+03	3.314253E-02	7.081481E-05
3.379621E+03	3.294229E-02	7.038694E-05
3.389561E+03	3.273748E-02	6.994930E-05
3.399501E+03	3.252849E-02	6.950274E-05
3.409441E+03	3.231532E-02	6.904724E-05
3.419381E+03	3.209835E-02	6.858363E-05
3.429321E+03	3.187770E-02	6.811215E-05
3.439261E+03	3.165386E-02	6.763384E-05
3.449201E+03	3.142694E-02	6.714898E-05
3.459141E+03	3.119753E-02	6.665879E-05
3.469081E+03	3.096612E-02	6.616431E-05
3.474578E+03	3.144790E-02	6.719371E-05
3.476049E+03	3.149285E-02	6.728974E-05
3.477521E+03	3.149446E-02	6.729317E-05
3.479002E+03	3.154224E-02	6.739526E-05
3.480473E+03	3.158437E-02	6.748527E-05
3.481944E+03	3.162649E-02	6.757528E-05
3.483415E+03	3.166203E-02	6.765120E-05
3.484886E+03	3.166930E-02	6.766674E-05
3.486357E+03	3.170013E-02	6.773260E-05
3.487828E+03	3.168951E-02	6.770991E-05
3.489300E+03	3.168642E-02	6.770330E-05
3.490771E+03	3.170406E-02	6.774100E-05
3.492242E+03	3.174150E-02	6.782099E-05
3.493713E+03	3.171676E-02	6.776812E-05
3.495184E+03	3.174854E-02	6.783603E-05
3.496655E+03	3.179069E-02	6.792608E-05
3.498126E+03	3.178386E-02	6.791147E-05
3.499597E+03	3.175912E-02	6.785863E-05
3.501069E+03	3.178055E-02	6.790441E-05
3.502540E+03	3.176054E-02	6.786164E-05
3.504011E+03	3.173110E-02	6.779873E-05
3.505482E+03	3.169036E-02	6.771169E-05
3.506953E+03	3.170145E-02	6.773537E-05
3.508424E+03	3.166919E-02	6.766644E-05
3.509895E+03	3.163129E-02	6.758546E-05
3.511366E+03	3.158114E-02	6.747831E-05
3.512838E+03	3.150273E-02	6.731078E-05
3.514309E+03	3.147144E-02	6.724391E-05
3.515780E+03	3.143261E-02	6.716095E-05
3.517251E+03	3.136646E-02	6.701960E-05
3.518722E+03	3.125416E-02	6.677965E-05
3.520193E+03	3.117483E-02	6.661015E-05
3.521664E+03	3.113790E-02	6.653124E-05
3.523135E+03	3.104916E-02	6.634163E-05
3.524617E+03	3.097268E-02	6.617819E-05
3.526088E+03	3.092068E-02	6.606710E-05
3.527559E+03	3.084608E-02	6.590770E-05
3.529030E+03	3.077619E-02	6.575837E-05
3.530501E+03	3.070443E-02	6.560504E-05
3.531972E+03	3.059970E-02	6.538126E-05
3.533443E+03	3.052229E-02	6.521586E-05
3.534914E+03	3.043359E-02	6.502632E-05
3.536386E+03	3.033358E-02	6.481263E-05
3.537857E+03	3.024864E-02	6.463115E-05
3.539328E+03	3.015711E-02	6.443559E-05
3.540799E+03	3.005900E-02	6.422595E-05
3.542270E+03	2.995713E-02	6.400827E-05
3.543741E+03	2.985148E-02	6.378255E-05
3.545212E+03	2.974397E-02	6.355281E-05
3.546683E+03	2.963550E-02	6.332106E-05
3.548155E+03	2.952704E-02	6.308932E-05
3.549626E+03	2.941954E-02	6.285961E-05
3.551097E+03	2.931486E-02	6.263594E-05
3.552568E+03	2.921206E-02	6.241630E-05
3.554039E+03	2.911304E-02	6.220473E-05
3.555510E+03	2.902439E-02	6.201529E-05
3.556981E+03	2.893667E-02	6.182787E-05
3.558453E+03	2.889041E-02	6.172903E-05
3.559924E+03	2.883944E-02	6.162011E-05
3.561395E+03	2.878470E-02	6.150316E-05
3.562866E+03	2.874128E-02	6.141037E-05
3.564337E+03	2.870633E-02	6.133570E-05
3.565808E+03	2.866573E-02	6.124895E-05
3.567279E+03	2.861101E-02	6.113203E-05
3.568760E+03	2.857889E-02	6.106340E-05
3.570232E+03	2.856468E-02	6.103304E-05
3.571703E+03	2.855989E-02	6.102279E-05
3.573174E+03	2.857299E-02	6.105078E-05
3.574645E+03	2.858234E-02	6.107074E-05
3.576116E+03	2.858603E-02	6.107863E-05
3.577587E+03	2.857089E-02	6.104629E-05
3.579058E+03	2.852844E-02	6.095557E-05
3.580529E+03	2.850765E-02	6.091116E-05
3.582001E+03	2.855751E-02	6.101768E-05
3.583472E+03	2.863562E-02	6.118458E-05
3.584943E+03	2.867983E-02	6.127904E-05
3.586414E+03	2.871463E-02	6.135339E-05
3.587885E+03	2.870045E-02	6.132309E-05
3.589356E+03	2.866649E-02	6.125052E-05
3.590827E+03	2.868246E-02	6.128465E-05
3.592298E+03	2.864851E-02	6.121210E-05
3.593770E+03	2.866636E-02	6.125025E-05
3.595241E+03	2.872943E-02	6.138500E-05
3.596712E+03	2.875577E-02	6.144128E-05
3.598183E+03	2.877835E-02	6.148951E-05
3.599654E+03	2.885932E-02	6.166252E-05
3.601125E+03	2.885647E-02	6.165643E-05
3.602596E+03	2.886398E-02	6.167247E-05
3.604067E+03	2.887904E-02	6.170463E-05
3.605539E+03	2.894871E-02	6.185350E-05
3.607010E+03	2.899391E-02	6.195008E-05
3.608481E+03	2.904288E-02	6.205470E-05
3.609952E+03	2.909279E-02	6.216134E-05
3.611423E+03	2.907395E-02	6.212109E-05
3.612894E+03	2.912387E-02	6.222774E-05
3.614375E+03	2.915589E-02	6.229616E-05
3.615846E+03	2.913989E-02	6.226196E-05
3.617318E+03	2.913519E-02	6.225192E-05
3.618789E+03	2.915592E-02	6.229622E-05
3.620260E+03	2.913993E-02	6.226204E-05
3.621731E+03	2.913807E-02	6.225806E-05
3.623202E+03	2.916540E-02	6.231646E-05
3.624673E+03	2.922194E-02	6.243726E-05
3.626144E+03	2.926906E-02	6.253794E-05
3.627615E+03	2.931241E-02	6.263057E-05
3.629087E+03	2.932092E-02	6.264875E-05
3.630558E+03	2.930401E-02	6.261261E-05
3.632029E+03	2.931724E-02	6.264087E-05
3.633500E+03	2.932670E-02	6.266108E-05
3.634971E+03	2.925046E-02	6.249818E-05
3.636442E+03	2.919118E-02	6.237151E-05
3.637913E+03	2.919405E-02	6.237766E-05
3.639385E+03	2.920918E-02	6.240997E-05
3.640856E+03	2.921960E-02	6.243224E-05
3.642327E+03	2.921873E-02	6.243037E-05
3.643798E+03	2.918583E-02	6.236008E-05
3.645269E+03	2.918873E-02	6.236626E-05
3.646740E+03	2.917938E-02	6.234629E-05
3.648211E+03	2.918511E-02	6.235853E-05
3.649682E+03	2.922287E-02	6.243920E-05
3.651154E+03	2.919469E-02	6.237900E-05
3.652625E+03	2.921551E-02	6.242346E-05
3.654096E+03	2.917981E-02	6.234718E-05
3.655567E+03	2.914034E-02	6.226285E-05
3.657038E+03	2.911407E-02	6.220671E-05
3.658519E+03	2.904729E-02	6.206403E-05
3.659990E+03	2.902762E-02	6.202200E-05
3.661461E+03	2.904656E-02	6.206247E-05
3.662933E+03	2.901559E-02	6.199629E-05
3.664404E+03	2.895165E-02	6.185968E-05
3.665875E+03	2.890091E-02	6.175125E-05
3.667346E+03	2.884733E-02	6.163678E-05
3.668817E+03	2.883710E-02	6.161491E-05
3.670288E+03	2.880426E-02	6.154473E-05
3.671759E+03	2.873751E-02	6.140212E-05
3.673230E+03	2.867736E-02	6.127359E-05
3.674702E+03	2.862380E-02	6.115916E-05
3.676173E+03	2.863148E-02	6.117556E-05
3.677644E+03	2.858547E-02	6.107725E-05
3.679115E+03	2.852439E-02	6.094673E-05
3.680586E+03	2.843694E-02	6.075987E-05
3.682057E+03	2.835984E-02	6.059515E-05
3.683528E+03	2.831761E-02	6.050492E-05
3.684999E+03	2.825372E-02	6.036840E-05
3.686471E+03	2.823504E-02	6.032848E-05
3.687942E+03	2.819564E-02	6.024430E-05
3.689413E+03	2.815624E-02	6.016011E-05
3.690884E+03	2.809801E-02	6.003569E-05
3.692355E+03	2.807935E-02	5.999581E-05
3.693826E+03	2.800228E-02	5.983114E-05
3.695297E+03	2.792992E-02	5.967654E-05
3.696768E+03	2.786322E-02	5.953402E-05
3.698240E+03	2.785022E-02	5.950623E-05
3.699711E+03	2.779294E-02	5.938385E-05
3.701182E+03	2.774698E-02	5.928565E-05
3.702653E+03	2.773022E-02	5.924983E-05
3.704134E+03	2.771157E-02	5.920999E-05
3.705605E+03	2.763453E-02	5.904537E-05
3.707076E+03	2.760365E-02	5.897939E-05
3.708547E+03	2.755204E-02	5.886912E-05
3.710019E+03	2.750703E-02	5.877295E-05
3.711490E+03	2.750065E-02	5.875931E-05
3.712961E+03	2.744435E-02	5.863900E-05
3.714432E+03	2.738710E-02	5.851669E-05
3.715903E+03	2.735435E-02	5.844671E-05
3.717374E+03	2.737625E-02	5.849349E-05
3.718845E+03	2.738402E-02	5.851009E-05
3.720316E+03	2.733903E-02	5.841396E-05
3.721788E+03	2.734021E-02	5.841648E-05
3.723259E+03	2.734233E-02	5.842102E-05
3.724730E+03	2.729924E-02	5.832894E-05
3.726201E+03	2.727405E-02	5.827511E-05
3.727672E+03	2.723002E-02	5.818103E-05
3.729143E+03	2.717751E-02	5.806883E-05
3.730614E+03	2.717212E-02	5.805731E-05
3.732086E+03	2.713186E-02	5.797130E-05
3.733557E+03	2.708784E-02	5.787724E-05
3.735028E+03	2.704759E-02	5.779124E-05
3.736499E+03	2.698379E-02	5.765492E-05
3.737970E+03	2.691340E-02	5.750451E-05
3.739441E+03	2.685714E-02	5.738429E-05
3.740912E+03	2.681784E-02	5.730033E-05
3.742383E+03	2.677855E-02	5.721637E-05
3.743855E+03	2.673643E-02	5.712638E-05
3.745326E+03	2.668395E-02	5.701424E-05
3.746797E+03	2.663618E-02	5.691218E-05
3.748278E+03	2.657711E-02	5.678597E-05
3.749749E+03	2.653312E-02	5.669196E-05
3.751220E+03	2.646557E-02	5.654764E-05
3.752691E+03	2.640840E-02	5.642547E-05
3.754162E+03	2.638043E-02	5.636571E-05
3.755634E+03	2.633927E-02	5.627777E-05
3.757105E+03	2.625760E-02	5.610327E-05
3.758576E+03	2.619006E-02	5.595896E-05
3.760047E+03	2.611310E-02	5.579452E-05
3.761518E+03	2.602861E-02	5.561398E-05
3.762989E+03	2.594034E-02	5.542538E-05
3.764460E+03	2.586715E-02	5.526901E-05
3.765931E+03	2.581659E-02	5.516097E-05
3.767403E+03	2.576791E-02	5.505696E-05
3.768874E+03	2.569756E-02	5.490664E-05
3.770345E+03	2.564512E-02	5.479458E-05
3.771816E+03	2.556158E-02	5.461609E-05
3.773287E+03	2.549877E-02	5.448188E-05
3.774758E+03	2.543880E-02	5.435374E-05
3.776229E+03	2.541746E-02	5.430815E-05
3.777700E+03	2.538671E-02	5.424244E-05
3.779172E+03	2.533522E-02	5.413243E-05
3.780643E+03	2.530164E-02	5.406068E-05
3.782114E+03	2.523979E-02	5.392852E-05
3.783585E+03	2.517229E-02	5.378429E-05
3.785056E+03	2.513306E-02	5.370048E-05
3.786527E+03	2.506933E-02	5.356430E-05
3.787998E+03	2.502445E-02	5.346842E-05
3.789469E+03	2.495507E-02	5.332017E-05
3.790941E+03	2.493282E-02	5.327262E-05
3.792412E+03	2.491152E-02	5.322711E-05
3.793893E+03	2.487231E-02	5.314333E-05
3.795364E+03	2.483875E-02	5.307163E-05
3.796835E+03	2.479107E-02	5.296974E-05
3.798306E+03	2.474149E-02	5.286382E-05
3.799777E+03	2.473057E-02	5.284047E-05
3.801248E+03	2.469797E-02	5.277082E-05
3.802720E+03	2.466066E-02	5.269110E-05
3.804191E+03	2.463938E-02	5.264562E-05
3.805662E+03	2.461621E-02	5.259613E-05
3.807133E+03	2.457137E-02	5.250030E-05
3.808604E+03	2.453972E-02	5.243269E-05
3.810075E+03	2.452128E-02	5.239328E-05
3.811546E+03	2.453113E-02	5.241432E-05
3.813018E+03	2.452684E-02	5.240515E-05
3.814489E+03	2.454424E-02	5.244232E-05
3.815960E+03	2.455693E-02	5.246943E-05
3.817431E+03	2.452530E-02	5.240185E-05
3.818902E+03	2.452574E-02	5.240279E-05
3.820373E+03	2.451957E-02	5.238961E-05
3.821844E+03	2.450493E-02	5.235832E-05
3.823315E+03	2.449972E-02	5.234719E-05
3.824787E+03	2.448791E-02	5.232195E-05
3.826258E+03	2.447893E-02	5.230278E-05
3.827729E+03	2.448033E-02	5.230577E-05
3.829200E+03	2.446759E-02	5.227854E-05
3.830671E+03	2.444071E-02	5.222109E-05
3.832142E+03	2.440062E-02	5.213545E-05
3.833613E+03	2.439544E-02	5.212437E-05
3.835084E+03	2.441006E-02	5.215560E-05
3.836556E+03	2.439262E-02	5.211834E-05
3.838037E+03	2.438367E-02	5.209922E-05
3.839508E+03	2.438510E-02	5.210227E-05
3.840979E+03	2.436766E-02	5.206501E-05
3.842450E+03	2.434458E-02	5.201569E-05
3.843921E+03	2.430357E-02	5.192807E-05
3.845392E+03	2.430596E-02	5.193316E-05
3.846863E+03	2.430080E-02	5.192214E-05
3.848335E+03	2.423244E-02	5.177608E-05
3.849806E+03	2.418012E-02	5.166429E-05
3.851277E+03	2.411837E-02	5.153235E-05
3.852748E+03	2.411322E-02	5.152135E-05
3.854219E+03	2.408639E-02	5.146401E-05
3.855690E+03	2.406143E-02	5.141069E-05
3.857161E+03	2.404875E-02	5.138358E-05
3.858632E+03	2.403135E-02	5.134641E-05
3.860104E+03	2.398282E-02	5.124271E-05
3.861575E+03	2.390976E-02	5.108661E-05
3.863046E+03	2.386217E-02	5.098493E-05
3.864517E+03	2.383535E-02	5.092762E-05
3.865988E+03	2.379343E-02	5.083804E-05
3.867459E+03	2.375151E-02	5.074848E-05
3.868930E+03	2.370016E-02	5.063875E-05
3.870401E+03	2.366863E-02	5.057138E-05
3.871873E+03	2.363427E-02	5.049796E-05
3.873344E+03	2.359235E-02	5.040841E-05
3.874815E+03	2.351553E-02	5.024426E-05
3.876286E+03	2.344719E-02	5.009825E-05
3.877757E+03	2.338170E-02	4.995830E-05
3.879228E+03	2.335112E-02	4.989296E-05
3.880699E+03	2.331393E-02	4.981351E-05
3.882180E+03	2.328053E-02	4.974213E-05
3.883652E+03	2.322636E-02	4.962640E-05
3.885123E+03	2.316087E-02	4.948645E-05
3.886594E+03	2.312558E-02	4.941106E-05
3.888065E+03	2.309595E-02	4.934776E-05
3.889536E+03	2.303424E-02	4.921589E-05
3.891007E+03	2.299706E-02	4.913646E-05
3.892478E+03	2.296273E-02	4.906310E-05
3.893949E+03	2.290196E-02	4.893324E-05
3.895421E+03	2.289311E-02	4.891435E-05
3.896892E+03	2.285029E-02	4.882284E-05
3.898363E+03	2.279991E-02	4.871520E-05
3.899834E+03	2.276841E-02	4.864790E-05
3.901305E+03	2.271237E-02	4.852815E-05
3.902776E+03	2.269409E-02	4.848910E-05
3.904247E+03	2.267299E-02	4.844401E-05
3.905719E+03	2.263678E-02	4.836665E-05
3.907190E+03	2.261474E-02	4.831954E-05
3.908661E+03	2.261914E-02	4.832894E-05
3.910132E+03	2.263204E-02	4.835651E-05
3.911603E+03	2.264211E-02	4.837803E-05
3.913074E+03	2.263330E-02	4.835920E-05
3.914545E+03	2.262355E-02	4.833836E-05
3.916016E+03	2.262513E-02	4.834175E-05
3.917488E+03	2.262484E-02	4.834111E-05
3.918959E+03	2.262170E-02	4.833442E-05
3.920430E+03	2.262992E-02	4.835196E-05
3.921901E+03	2.262679E-02	4.834529E-05
3.923372E+03	2.264540E-02	4.838504E-05
3.924843E+03	2.266590E-02	4.842884E-05
3.926314E+03	2.268358E-02	4.846661E-05
3.927795E+03	2.269937E-02	4.850035E-05
3.929267E+03	2.269249E-02	4.848564E-05
3.930738E+03	2.268372E-02	4.846691E-05
3.932209E+03	2.269291E-02	4.848655E-05
3.933680E+03	2.271628E-02	4.853647E-05
3.935151E+03	2.274531E-02	4.859850E-05
3.936622E+03	2.278380E-02	4.868074E-05
3.938093E+03	2.280246E-02	4.872061E-05
3.939564E+03	2.281168E-02	4.874030E-05
3.941036E+03	2.281995E-02	4.875797E-05
3.942507E+03	2.281878E-02	4.875546E-05
3.943978E+03	2.282989E-02	4.877921E-05
3.945449E+03	2.282779E-02	4.877471E-05
3.946920E+03	2.281906E-02	4.875607E-05
3.948391E+03	2.279428E-02	4.870312E-05
3.949862E+03	2.281203E-02	4.874104E-05
3.951333E+03	2.281655E-02	4.875070E-05
3.952805E+03	2.278801E-02	4.868970E-05
3.954276E+03	2.277741E-02	4.866706E-05
3.955747E+03	2.277061E-02	4.865252E-05
3.957218E+03	2.274395E-02	4.859557E-05
3.958689E+03	2.270501E-02	4.851236E-05
3.960160E+03	2.267836E-02	4.845542E-05
3.961631E+03	2.265550E-02	4.840656E-05
3.963102E+03	2.262034E-02	4.833146E-05
3.964574E+03	2.256723E-02	4.821797E-05
3.966045E+03	2.248953E-02	4.805196E-05
3.967516E+03	2.243831E-02	4.794252E-05
3.968987E+03	2.235967E-02	4.777449E-05
3.970458E+03	2.231223E-02	4.767313E-05
3.971939E+03	2.226385E-02	4.756976E-05
3.973410E+03	2.221263E-02	4.746030E-05
3.974881E+03	2.211507E-02	4.725186E-05
3.976353E+03	2.203359E-02	4.707776E-05
3.977824E+03	2.196724E-02	4.693599E-05
3.979295E+03	2.188859E-02	4.676794E-05
3.980766E+03	2.178913E-02	4.655544E-05
3.982237E+03	2.170102E-02	4.636718E-05
3.983708E+03	2.160061E-02	4.615264E-05
3.985179E+03	2.151155E-02	4.596235E-05
3.986650E+03	2.142154E-02	4.577002E-05
3.988122E+03	2.134288E-02	4.560195E-05
3.989593E+03	2.124908E-02	4.540154E-05
3.991064E+03	2.115812E-02	4.520718E-05
3.992535E+03	2.107756E-02	4.503505E-05
3.994006E+03	2.098375E-02	4.483461E-05
3.995477E+03	2.090224E-02	4.466046E-05
3.996948E+03	2.078099E-02	4.440138E-05
3.998420E+03	2.069758E-02	4.422316E-05
3.999891E+03	2.060565E-02	4.402674E-05
4.001362E+03	2.051561E-02	4.383436E-05
4.002833E+03	2.040475E-02	4.359749E-05
4.004304E+03	2.033458E-02	4.344756E-05
4.005775E+03	2.029658E-02	4.336636E-05
4.007246E+03	2.024249E-02	4.325081E-05
4.008717E+03	2.018746E-02	4.313323E-05
4.010189E+03	2.013148E-02	4.301361E-05
4.011660E+03	2.007834E-02	4.290006E-05
4.013131E+03	2.000911E-02	4.275214E-05
4.014602E+03	1.995029E-02	4.262646E-05
4.016073E+03	1.992365E-02	4.256955E-05
4.017554E+03	1.987903E-02	4.247421E-05
4.019025E+03	1.985050E-02	4.241325E-05
4.020496E+03	1.982576E-02	4.236038E-05
4.021968E+03	1.981049E-02	4.232775E-05
4.023439E+03	1.979806E-02	4.230120E-05
4.024910E+03	1.977617E-02	4.225443E-05
4.026381E+03	1.977133E-02	4.224408E-05
4.027852E+03	1.977027E-02	4.224182E-05
4.029323E+03	1.978721E-02	4.227801E-05
4.030794E+03	1.981742E-02	4.234254E-05
4.032265E+03	1.983342E-02	4.237675E-05
4.033737E+03	1.984659E-02	4.240489E-05
4.035208E+03	1.988250E-02	4.248160E-05
4.036679E+03	1.990136E-02	4.252191E-05
4.038150E+03	1.991455E-02	4.255007E-05
4.039621E+03	1.993911E-02	4.260254E-05
4.041092E+03	1.996083E-02	4.264896E-05
4.042563E+03	2.000435E-02	4.274193E-05
4.044034E+03	2.003556E-02	4.280862E-05
4.045506E+03	2.006109E-02	4.286317E-05
4.046977E+03	2.011316E-02	4.297442E-05
4.048448E+03	2.015386E-02	4.306139E-05
4.049919E+03	2.021069E-02	4.318281E-05
4.051390E+03	2.024004E-02	4.324551E-05
4.052861E+03	2.029688E-02	4.336695E-05
4.054332E+03	2.035183E-02	4.348437E-05
4.055804E+03	2.038026E-02	4.354511E-05
4.057275E+03	2.043523E-02	4.366257E-05
4.058746E+03	2.048263E-02	4.376384E-05
4.060217E+03	2.055658E-02	4.392183E-05
4.061698E+03	2.062864E-02	4.407581E-05
4.063169E+03	2.067892E-02	4.418323E-05
4.064640E+03	2.074910E-02	4.433319E-05
4.066111E+03	2.080887E-02	4.446088E-05
4.067582E+03	2.087435E-02	4.460078E-05
4.069054E+03	2.093793E-02	4.473663E-05
4.070525E+03	2.100437E-02	4.487858E-05
4.071996E+03	2.106228E-02	4.500232E-05
4.073467E+03	2.113064E-02	4.514838E-05
4.074938E+03	2.118762E-02	4.527013E-05
4.076409E+03	2.125126E-02	4.540609E-05
4.077880E+03	2.131586E-02	4.554412E-05
4.079352E+03	2.136150E-02	4.564162E-05
4.080823E+03	2.137774E-02	4.567632E-05
4.082294E+03	2.142244E-02	4.577185E-05
4.083765E+03	2.146621E-02	4.586535E-05
4.085236E+03	2.148152E-02	4.589807E-05
4.086707E+03	2.148735E-02	4.591053E-05
4.088178E+03	2.149699E-02	4.593111E-05
4.089649E+03	2.150188E-02	4.594157E-05
4.091121E+03	2.152197E-02	4.598448E-05
4.092592E+03	2.152972E-02	4.600104E-05
4.094063E+03	2.152135E-02	4.598316E-05
4.095534E+03	2.152626E-02	4.599365E-05
4.097005E+03	2.152644E-02	4.599404E-05
4.098476E+03	2.152473E-02	4.599037E-05
4.099947E+03	2.153725E-02	4.601712E-05
4.101418E+03	2.153079E-02	4.600333E-05
