#wls	flux	fluxerr
1.590410E+03	5.618117E-03	3.149115E-04
1.630170E+03	5.668495E-03	3.145293E-04
1.669930E+03	5.710384E-03	3.135856E-04
1.709691E+03	5.744018E-03	3.121083E-04
1.749451E+03	5.769687E-03	3.101280E-04
1.789211E+03	5.788114E-03	3.076981E-04
1.828971E+03	5.800481E-03	3.048951E-04
1.868732E+03	5.807945E-03	3.017916E-04
1.908492E+03	5.812343E-03	2.984924E-04
1.948252E+03	5.815339E-03	2.950900E-04
1.988012E+03	5.819136E-03	2.916993E-04
2.027773E+03	5.825977E-03	2.884324E-04
2.067533E+03	5.837422E-03	2.853625E-04
2.107293E+03	5.855391E-03	2.825763E-04
2.147053E+03	5.881224E-03	2.801281E-04
2.186814E+03	5.916173E-03	2.780645E-04
2.226574E+03	5.961136E-03	2.764126E-04
2.266334E+03	6.016916E-03	2.751927E-04
2.306094E+03	6.084517E-03	2.744318E-04
2.345854E+03	6.165184E-03	2.741636E-04
2.385615E+03	6.260535E-03	2.744355E-04
2.425375E+03	6.372103E-03	2.752868E-04
2.465135E+03	6.501616E-03	2.767619E-04
2.504895E+03	6.650911E-03	2.789054E-04
2.544656E+03	6.821482E-03	2.817436E-04
2.584416E+03	7.015213E-03	2.853152E-04
2.624176E+03	7.234281E-03	2.896664E-04
2.663936E+03	7.479955E-03	2.948030E-04
2.703697E+03	7.753073E-03	3.007114E-04
2.743457E+03	8.055014E-03	3.073974E-04
2.783217E+03	8.387302E-03	3.148646E-04
2.822977E+03	8.751386E-03	3.231046E-04
2.862738E+03	9.147971E-03	3.320768E-04
2.902498E+03	9.577562E-03	3.417315E-04
2.942258E+03	1.003947E-02	3.519742E-04
2.982018E+03	1.053232E-02	3.626875E-04
2.991958E+03	1.066018E-02	3.654249E-04
3.001899E+03	1.078977E-02	3.681795E-04
3.011839E+03	1.092102E-02	3.709479E-04
3.021779E+03	1.105387E-02	3.737273E-04
3.031719E+03	1.118837E-02	3.765181E-04
3.041659E+03	1.132422E-02	3.793092E-04
3.051599E+03	1.146156E-02	3.821050E-04
3.061539E+03	1.160022E-02	3.848985E-04
3.071479E+03	1.174011E-02	3.876859E-04
3.081419E+03	1.188115E-02	3.904639E-04
3.091359E+03	1.202325E-02	3.932289E-04
3.101299E+03	1.216620E-02	3.959734E-04
3.111239E+03	1.231005E-02	3.986980E-04
3.121179E+03	1.245457E-02	4.013950E-04
3.131119E+03	1.259967E-02	4.040610E-04
3.141059E+03	1.274513E-02	4.066887E-04
3.150999E+03	1.289100E-02	4.092786E-04
3.160940E+03	1.303691E-02	4.118193E-04
3.170880E+03	1.318291E-02	4.143119E-04
3.180820E+03	1.332865E-02	4.167450E-04
3.190760E+03	1.347416E-02	4.191197E-04
3.200700E+03	1.361923E-02	4.214295E-04
3.210640E+03	1.376351E-02	4.236633E-04
3.220580E+03	1.390704E-02	4.258230E-04
3.230520E+03	1.404962E-02	4.279024E-04
3.240460E+03	1.419092E-02	4.298919E-04
3.250400E+03	1.433087E-02	4.317895E-04
3.260340E+03	1.446928E-02	4.335901E-04
3.270280E+03	1.460596E-02	4.352890E-04
3.280220E+03	1.474061E-02	4.368779E-04
3.290160E+03	1.487320E-02	4.383566E-04
3.300100E+03	1.500334E-02	4.397143E-04
3.310040E+03	1.513112E-02	4.409553E-04
3.319981E+03	1.525619E-02	4.420699E-04
3.329921E+03	1.537842E-02	4.430562E-04
3.339861E+03	1.549774E-02	4.439130E-04
3.349801E+03	1.561382E-02	4.446324E-04
3.359741E+03	1.572649E-02	4.452113E-04
3.369681E+03	1.583585E-02	4.456539E-04
3.379621E+03	1.594164E-02	4.459547E-04
3.389561E+03	1.604388E-02	4.461158E-04
3.399501E+03	1.614223E-02	4.461300E-04
3.409441E+03	1.623689E-02	4.460044E-04
3.419381E+03	1.632758E-02	4.457329E-04
3.429321E+03	1.641451E-02	4.453239E-04
3.439261E+03	1.649756E-02	4.447757E-04
3.449201E+03	1.657686E-02	4.440936E-04
3.459141E+03	1.665216E-02	4.432732E-04
3.469081E+03	1.672369E-02	4.423227E-04
3.479022E+03	1.679155E-02	4.412469E-04
3.488962E+03	1.685562E-02	4.400438E-04
3.498902E+03	1.691622E-02	4.387241E-04
3.508842E+03	1.697332E-02	4.372886E-04
3.518782E+03	1.702749E-02	4.357533E-04
3.528722E+03	1.707856E-02	4.341150E-04
3.538662E+03	1.712705E-02	4.323887E-04
3.548602E+03	1.717288E-02	4.305733E-04
3.558542E+03	1.721654E-02	4.286822E-04
3.568482E+03	1.725814E-02	4.267193E-04
3.578422E+03	1.729777E-02	4.246877E-04
3.588362E+03	1.733561E-02	4.225925E-04
3.598302E+03	1.737171E-02	4.204359E-04
3.608242E+03	1.740642E-02	4.182272E-04
3.618182E+03	1.743951E-02	4.159615E-04
3.628122E+03	1.747120E-02	4.136448E-04
3.638062E+03	1.750167E-02	4.112821E-04
3.648003E+03	1.753065E-02	4.088676E-04
3.657943E+03	1.755843E-02	4.064087E-04
3.667883E+03	1.758481E-02	4.039019E-04
3.677823E+03	1.760996E-02	4.013514E-04
3.687763E+03	1.763382E-02	3.987568E-04
3.697703E+03	1.765633E-02	3.961173E-04
3.707643E+03	1.767765E-02	3.934375E-04
3.717583E+03	1.769775E-02	3.907173E-04
3.727523E+03	1.771658E-02	3.879565E-04
3.737463E+03	1.773422E-02	3.851579E-04
3.747403E+03	1.775068E-02	3.823219E-04
3.757343E+03	1.776614E-02	3.794540E-04
3.767283E+03	1.778052E-02	3.765525E-04
3.777223E+03	1.779392E-02	3.736208E-04
3.787163E+03	1.780635E-02	3.706599E-04
3.797103E+03	1.781793E-02	3.676730E-04
3.807044E+03	1.782880E-02	3.646636E-04
3.816984E+03	1.783882E-02	3.616299E-04
3.826924E+03	1.784812E-02	3.585753E-04
3.836864E+03	1.785681E-02	3.555025E-04
3.846804E+03	1.786485E-02	3.524118E-04
3.856744E+03	1.787220E-02	3.493035E-04
3.866684E+03	1.787895E-02	3.461795E-04
3.876624E+03	1.788489E-02	3.430374E-04
3.886564E+03	1.789020E-02	3.398810E-04
3.896504E+03	1.789475E-02	3.367094E-04
3.906444E+03	1.789832E-02	3.335192E-04
3.916384E+03	1.790102E-02	3.303137E-04
3.926324E+03	1.790267E-02	3.270909E-04
3.936264E+03	1.790300E-02	3.238473E-04
3.946204E+03	1.790204E-02	3.205848E-04
3.956144E+03	1.789946E-02	3.172993E-04
3.966085E+03	1.789504E-02	3.139884E-04
3.976025E+03	1.788874E-02	3.106538E-04
3.985965E+03	1.788018E-02	3.072906E-04
3.995905E+03	1.786905E-02	3.038959E-04
4.005845E+03	1.785515E-02	3.004687E-04
4.015785E+03	1.783813E-02	2.970058E-04
4.025725E+03	1.781763E-02	2.935042E-04
4.035665E+03	1.779340E-02	2.899628E-04
4.045605E+03	1.776484E-02	2.863751E-04
4.055545E+03	1.773197E-02	2.827449E-04
4.065485E+03	1.769424E-02	2.790672E-04
4.075425E+03	1.765150E-02	2.753436E-04
4.085365E+03	1.760346E-02	2.715735E-04
4.095305E+03	1.755027E-02	2.677631E-04
4.105245E+03	1.749182E-02	2.639151E-04
4.115185E+03	1.742823E-02	2.600353E-04
4.125125E+03	1.735966E-02	2.561299E-04
4.135066E+03	1.728670E-02	2.522118E-04
4.145006E+03	1.720973E-02	2.482899E-04
4.154946E+03	1.712922E-02	2.443743E-04
4.164886E+03	1.704595E-02	2.404791E-04
4.174826E+03	1.696060E-02	2.366171E-04
4.184766E+03	1.687381E-02	2.327990E-04
4.194706E+03	1.678627E-02	2.290367E-04
4.204646E+03	1.669873E-02	2.253421E-04
4.214586E+03	1.661155E-02	2.217215E-04
4.224526E+03	1.652526E-02	2.181833E-04
4.234466E+03	1.644007E-02	2.147314E-04
4.244406E+03	1.635623E-02	2.113701E-04
4.254346E+03	1.627365E-02	2.080990E-04
4.264286E+03	1.619213E-02	2.049169E-04
4.274226E+03	1.611151E-02	2.018226E-04
4.284166E+03	1.603134E-02	1.988118E-04
4.294107E+03	1.595101E-02	1.958782E-04
4.304047E+03	1.587027E-02	1.930203E-04
4.313987E+03	1.578842E-02	1.902312E-04
4.323927E+03	1.570499E-02	1.875061E-04
4.333867E+03	1.561953E-02	1.848402E-04
4.343807E+03	1.553168E-02	1.822287E-04
4.353747E+03	1.544073E-02	1.796622E-04
4.363687E+03	1.534661E-02	1.771390E-04
4.373627E+03	1.524905E-02	1.746556E-04
4.383567E+03	1.514804E-02	1.722107E-04
4.393507E+03	1.504381E-02	1.698059E-04
4.403447E+03	1.493641E-02	1.674409E-04
4.413387E+03	1.482655E-02	1.651223E-04
4.423327E+03	1.471462E-02	1.628532E-04
4.433267E+03	1.460132E-02	1.606397E-04
4.443207E+03	1.448719E-02	1.584862E-04
4.453148E+03	1.437315E-02	1.564007E-04
4.463088E+03	1.425983E-02	1.543883E-04
4.473028E+03	1.414815E-02	1.524570E-04
4.482968E+03	1.403878E-02	1.506118E-04
4.492908E+03	1.393263E-02	1.488604E-04
4.502848E+03	1.383031E-02	1.472072E-04
4.512788E+03	1.373258E-02	1.456581E-04
4.522728E+03	1.364019E-02	1.442191E-04
4.532668E+03	1.355364E-02	1.428934E-04
4.542608E+03	1.347380E-02	1.416882E-04
4.552548E+03	1.340099E-02	1.406050E-04
4.562488E+03	1.333588E-02	1.396492E-04
4.572428E+03	1.327892E-02	1.388239E-04
4.582368E+03	1.323061E-02	1.381328E-04
4.592308E+03	1.319118E-02	1.375773E-04
4.602248E+03	1.316126E-02	1.371627E-04
4.612189E+03	1.314091E-02	1.368887E-04
4.622129E+03	1.313057E-02	1.367591E-04
4.632069E+03	1.313041E-02	1.367751E-04
4.642009E+03	1.314057E-02	1.369379E-04
4.651949E+03	1.316112E-02	1.372479E-04
4.661889E+03	1.319222E-02	1.377051E-04
4.671829E+03	1.323386E-02	1.383073E-04
4.681769E+03	1.328576E-02	1.390500E-04
4.691709E+03	1.334792E-02	1.399313E-04
4.701649E+03	1.342004E-02	1.409465E-04
4.711589E+03	1.350185E-02	1.420913E-04
4.721529E+03	1.359275E-02	1.433577E-04
4.731469E+03	1.369238E-02	1.447408E-04
4.741409E+03	1.379977E-02	1.462287E-04
4.751349E+03	1.391389E-02	1.478093E-04
4.761289E+03	1.403348E-02	1.494677E-04
4.771229E+03	1.415699E-02	1.511857E-04
4.781170E+03	1.428237E-02	1.529400E-04
4.791110E+03	1.440765E-02	1.547075E-04
4.801050E+03	1.453054E-02	1.564618E-04
4.810990E+03	1.464861E-02	1.581745E-04
4.820930E+03	1.475924E-02	1.598148E-04
4.830870E+03	1.486005E-02	1.613544E-04
4.840810E+03	1.494853E-02	1.627634E-04
4.850750E+03	1.502247E-02	1.640147E-04
4.860690E+03	1.508010E-02	1.650860E-04
4.870630E+03	1.511973E-02	1.659556E-04
4.880570E+03	1.514033E-02	1.666093E-04
4.890510E+03	1.514121E-02	1.670364E-04
4.900450E+03	1.512214E-02	1.672315E-04
4.910390E+03	1.508330E-02	1.671939E-04
4.920330E+03	1.502536E-02	1.669285E-04
4.930270E+03	1.494942E-02	1.664452E-04
4.940211E+03	1.485666E-02	1.657555E-04
4.950151E+03	1.474891E-02	1.648778E-04
4.960091E+03	1.462762E-02	1.638273E-04
4.970031E+03	1.449489E-02	1.626265E-04
4.979971E+03	1.435258E-02	1.612954E-04
4.989911E+03	1.420256E-02	1.598546E-04
4.999851E+03	1.404661E-02	1.583240E-04
5.009791E+03	1.388642E-02	1.567228E-04
5.019731E+03	1.372379E-02	1.550714E-04
5.029671E+03	1.355989E-02	1.533835E-04
5.039611E+03	1.339608E-02	1.516750E-04
5.049551E+03	1.323356E-02	1.499601E-04
5.059491E+03	1.307324E-02	1.482499E-04
5.069431E+03	1.291588E-02	1.465538E-04
5.079371E+03	1.276197E-02	1.448782E-04
5.089311E+03	1.261234E-02	1.432334E-04
5.099252E+03	1.246710E-02	1.416216E-04
5.109192E+03	1.232665E-02	1.400482E-04
5.119132E+03	1.219114E-02	1.385158E-04
5.129072E+03	1.206066E-02	1.370264E-04
5.139012E+03	1.193548E-02	1.355841E-04
5.148952E+03	1.181525E-02	1.341856E-04
5.158892E+03	1.170026E-02	1.328352E-04
5.168832E+03	1.159032E-02	1.315318E-04
5.178772E+03	1.148536E-02	1.302753E-04
5.188712E+03	1.138537E-02	1.290665E-04
5.198652E+03	1.129014E-02	1.279039E-04
5.208592E+03	1.119965E-02	1.267883E-04
5.218532E+03	1.111370E-02	1.257182E-04
5.228472E+03	1.103236E-02	1.246952E-04
5.238412E+03	1.095543E-02	1.237180E-04
5.248352E+03	1.088276E-02	1.227858E-04
5.258292E+03	1.081424E-02	1.218981E-04
5.268233E+03	1.074983E-02	1.210554E-04
5.278173E+03	1.068930E-02	1.202560E-04
5.288113E+03	1.063249E-02	1.194989E-04
5.298053E+03	1.057932E-02	1.187843E-04
5.307993E+03	1.052963E-02	1.181111E-04
5.317933E+03	1.048310E-02	1.174767E-04
5.327873E+03	1.043951E-02	1.168795E-04
5.337813E+03	1.039871E-02	1.163188E-04
5.347753E+03	1.036032E-02	1.157912E-04
5.357693E+03	1.032414E-02	1.152955E-04
5.367633E+03	1.028974E-02	1.148277E-04
5.377573E+03	1.025674E-02	1.143847E-04
5.387513E+03	1.022487E-02	1.139644E-04
5.397453E+03	1.019352E-02	1.135607E-04
5.407393E+03	1.016246E-02	1.131722E-04
5.417333E+03	1.013098E-02	1.127908E-04
5.427274E+03	1.009885E-02	1.124132E-04
5.437214E+03	1.006563E-02	1.120332E-04
5.447154E+03	1.003097E-02	1.116464E-04
5.457094E+03	9.994618E-03	1.112487E-04
5.467034E+03	9.956326E-03	1.108366E-04
5.476974E+03	9.915907E-03	1.104069E-04
5.486914E+03	9.873495E-03	1.099603E-04
5.496854E+03	9.829095E-03	1.094959E-04
5.506794E+03	9.782854E-03	1.090144E-04
5.516734E+03	9.734881E-03	1.085162E-04
5.526674E+03	9.685517E-03	1.080043E-04
5.536614E+03	9.634826E-03	1.074787E-04
5.546554E+03	9.583184E-03	1.069427E-04
5.556494E+03	9.530781E-03	1.063977E-04
5.566434E+03	9.478001E-03	1.058475E-04
5.576374E+03	9.424872E-03	1.052916E-04
5.586315E+03	9.371891E-03	1.047351E-04
5.596255E+03	9.319284E-03	1.041799E-04
5.606195E+03	9.267280E-03	1.036283E-04
5.616135E+03	9.216291E-03	1.030842E-04
5.626075E+03	9.166561E-03	1.025502E-04
5.636015E+03	9.118326E-03	1.020284E-04
5.645955E+03	9.072015E-03	1.015235E-04
5.655895E+03	9.027844E-03	1.010375E-04
5.665835E+03	8.986126E-03	1.005737E-04
5.675775E+03	8.947076E-03	1.001344E-04
5.685715E+03	8.910954E-03	9.972238E-05
5.695655E+03	8.877908E-03	9.933912E-05
5.705595E+03	8.848328E-03	9.898891E-05
5.715535E+03	8.822090E-03	9.867032E-05
5.725475E+03	8.799484E-03	9.838655E-05
5.735415E+03	8.780269E-03	9.813493E-05
5.745356E+03	8.764710E-03	9.791843E-05
5.755296E+03	8.752436E-03	9.773295E-05
5.765236E+03	8.743387E-03	9.757792E-05
5.775176E+03	8.737238E-03	9.744983E-05
5.785116E+03	8.733806E-03	9.734680E-05
5.795056E+03	8.732560E-03	9.726308E-05
5.804996E+03	8.733304E-03	9.719675E-05
5.814936E+03	8.735346E-03	9.714039E-05
5.824876E+03	8.738439E-03	9.709160E-05
5.834816E+03	8.741971E-03	9.704395E-05
5.844756E+03	8.745606E-03	9.699417E-05
5.854696E+03	8.748866E-03	9.693747E-05
5.864636E+03	8.751490E-03	9.687150E-05
5.874576E+03	8.752993E-03	9.679155E-05
5.884516E+03	8.753232E-03	9.669667E-05
5.894456E+03	8.752027E-03	9.658563E-05
5.904396E+03	8.749084E-03	9.645594E-05
5.914337E+03	8.744543E-03	9.630997E-05
5.924277E+03	8.738225E-03	9.614661E-05
5.934217E+03	8.730193E-03	9.596744E-05
5.944157E+03	8.720642E-03	9.577553E-05
5.954097E+03	8.709628E-03	9.557243E-05
5.964037E+03	8.697301E-03	9.536078E-05
5.973977E+03	8.683826E-03	9.514336E-05
5.983917E+03	8.669185E-03	9.492100E-05
5.993857E+03	8.653722E-03	9.469848E-05
6.003797E+03	8.637478E-03	9.447729E-05
6.013737E+03	8.620559E-03	9.425961E-05
6.023677E+03	8.602940E-03	9.404625E-05
6.033617E+03	8.584753E-03	9.383967E-05
6.043557E+03	8.565890E-03	9.363977E-05
6.053497E+03	8.546283E-03	9.344683E-05
6.063437E+03	8.525753E-03	9.325995E-05
6.073378E+03	8.504348E-03	9.308066E-05
6.083318E+03	8.481807E-03	9.290710E-05
6.093258E+03	8.457836E-03	9.273700E-05
6.103198E+03	8.432433E-03	9.257124E-05
6.113138E+03	8.405305E-03	9.240745E-05
6.123078E+03	8.376383E-03	9.224566E-05
6.133018E+03	8.345562E-03	9.208542E-05
6.142958E+03	8.312901E-03	9.192802E-05
6.152898E+03	8.278583E-03	9.177603E-05
6.162838E+03	8.242810E-03	9.163208E-05
6.172778E+03	8.206016E-03	9.150029E-05
6.182718E+03	8.168645E-03	9.138402E-05
6.192658E+03	8.131328E-03	9.128880E-05
6.202598E+03	8.094757E-03	9.122089E-05
6.212538E+03	8.059664E-03	9.118716E-05
6.222478E+03	8.026715E-03	9.119384E-05
6.232419E+03	7.996749E-03	9.124935E-05
6.242359E+03	7.970423E-03	9.136019E-05
6.252299E+03	7.948565E-03	9.153503E-05
6.262239E+03	7.931789E-03	9.178033E-05
6.272179E+03	7.920784E-03	9.210359E-05
6.282119E+03	7.916189E-03	9.251197E-05
6.292059E+03	7.918734E-03	9.301392E-05
6.301999E+03	7.928906E-03	9.361526E-05
6.311939E+03	7.947243E-03	9.432258E-05
6.321879E+03	7.974346E-03	9.514342E-05
6.331819E+03	8.010555E-03	9.608239E-05
6.341759E+03	8.056252E-03	9.714475E-05
6.351699E+03	8.111747E-03	9.833498E-05
6.361639E+03	8.177390E-03	9.965818E-05
6.371579E+03	8.253202E-03	1.011155E-04
6.381519E+03	8.339101E-03	1.027068E-04
6.391459E+03	8.434987E-03	1.044318E-04
6.401400E+03	8.540378E-03	1.062852E-04
6.411340E+03	8.654727E-03	1.082610E-04
6.421280E+03	8.777202E-03	1.103491E-04
6.431220E+03	8.906877E-03	1.125383E-04
6.441160E+03	9.042501E-03	1.148128E-04
6.451100E+03	9.182861E-03	1.171568E-04
6.461040E+03	9.326166E-03	1.195471E-04
6.470980E+03	9.470806E-03	1.219621E-04
6.480920E+03	9.614603E-03	1.243724E-04
6.490860E+03	9.755815E-03	1.267538E-04
6.500800E+03	9.891878E-03	1.290711E-04
6.510740E+03	1.002106E-02	1.312993E-04
6.520680E+03	1.014075E-02	1.334015E-04
6.530620E+03	1.024902E-02	1.353495E-04
6.540560E+03	1.034392E-02	1.371142E-04
6.550500E+03	1.042366E-02	1.386689E-04
6.560441E+03	1.048658E-02	1.399877E-04
6.570381E+03	1.053158E-02	1.410529E-04
6.580321E+03	1.055742E-02	1.418443E-04
6.590261E+03	1.056384E-02	1.423552E-04
6.600201E+03	1.055026E-02	1.425749E-04
6.610141E+03	1.051697E-02	1.425042E-04
6.620081E+03	1.046440E-02	1.421470E-04
6.630021E+03	1.039314E-02	1.415087E-04
6.639961E+03	1.030420E-02	1.406016E-04
6.649901E+03	1.019883E-02	1.394414E-04
6.659841E+03	1.007865E-02	1.380490E-04
6.669781E+03	9.944914E-03	1.364410E-04
6.679721E+03	9.799456E-03	1.346425E-04
6.689661E+03	9.644021E-03	1.326773E-04
6.699601E+03	9.480196E-03	1.305677E-04
6.709541E+03	9.309850E-03	1.283400E-04
6.719482E+03	9.134355E-03	1.260140E-04
6.729422E+03	8.955596E-03	1.236165E-04
6.739362E+03	8.774760E-03	1.211652E-04
6.749302E+03	8.593508E-03	1.186842E-04
6.759242E+03	8.412660E-03	1.161859E-04
6.769182E+03	8.233749E-03	1.136931E-04
6.779122E+03	8.057345E-03	1.112147E-04
6.789062E+03	7.884581E-03	1.087678E-04
6.799002E+03	7.716040E-03	1.063616E-04
6.808942E+03	7.552334E-03	1.040058E-04
6.818882E+03	7.393970E-03	1.017084E-04
6.828822E+03	7.241212E-03	9.947402E-05
6.838762E+03	7.094495E-03	9.730965E-05
6.848702E+03	6.954025E-03	9.521896E-05
6.858642E+03	6.819713E-03	9.320145E-05
6.868582E+03	6.691861E-03	9.126191E-05
6.878523E+03	6.570370E-03	8.939958E-05
6.888463E+03	6.455189E-03	8.761424E-05
6.898403E+03	6.346119E-03	8.590361E-05
6.908343E+03	6.243142E-03	8.426777E-05
6.918283E+03	6.146089E-03	8.270473E-05
6.928223E+03	6.054653E-03	8.121059E-05
6.938163E+03	5.968613E-03	7.978257E-05
6.948103E+03	5.887726E-03	7.841756E-05
6.958043E+03	5.811835E-03	7.711359E-05
6.967983E+03	5.740464E-03	7.586445E-05
6.977923E+03	5.673437E-03	7.466793E-05
6.987863E+03	5.610475E-03	7.352044E-05
6.997803E+03	5.551198E-03	7.241711E-05
7.007743E+03	5.495431E-03	7.135580E-05
7.017683E+03	5.442811E-03	7.033194E-05
7.027623E+03	5.393084E-03	6.934243E-05
7.037563E+03	5.346014E-03	6.838446E-05
7.047504E+03	5.301475E-03	6.745665E-05
7.057444E+03	5.259076E-03	6.655432E-05
7.067384E+03	5.218732E-03	6.567671E-05
7.077324E+03	5.180288E-03	6.482225E-05
7.087264E+03	5.143515E-03	6.398847E-05
7.097204E+03	5.108400E-03	6.317566E-05
7.107144E+03	5.074762E-03	6.238206E-05
7.117084E+03	5.042537E-03	6.160740E-05
7.127024E+03	5.011775E-03	6.085285E-05
7.136964E+03	4.982358E-03	6.011754E-05
7.146904E+03	4.954279E-03	5.940200E-05
7.156844E+03	4.927453E-03	5.870585E-05
7.166784E+03	4.902080E-03	5.803215E-05
7.176724E+03	4.878095E-03	5.738079E-05
7.186664E+03	4.855438E-03	5.675180E-05
7.196604E+03	4.834234E-03	5.614742E-05
7.206545E+03	4.814430E-03	5.556780E-05
7.216485E+03	4.796151E-03	5.501520E-05
7.226425E+03	4.779427E-03	5.449085E-05
7.236365E+03	4.764196E-03	5.399491E-05
7.246305E+03	4.750479E-03	5.352858E-05
7.256245E+03	4.738381E-03	5.309405E-05
7.266185E+03	4.727908E-03	5.269244E-05
7.276125E+03	4.718878E-03	5.232282E-05
7.286065E+03	4.711553E-03	5.198927E-05
7.296005E+03	4.705645E-03	5.168984E-05
7.305945E+03	4.701307E-03	5.142751E-05
7.315885E+03	4.698507E-03	5.120327E-05
7.325825E+03	4.697111E-03	5.101707E-05
7.335765E+03	4.697157E-03	5.087081E-05
7.345705E+03	4.698494E-03	5.076439E-05
7.355645E+03	4.701053E-03	5.069861E-05
7.365586E+03	4.704941E-03	5.067626E-05
7.375526E+03	4.709884E-03	5.069604E-05
7.385466E+03	4.715878E-03	5.075956E-05
7.395406E+03	4.722719E-03	5.086633E-05
7.405346E+03	4.730480E-03	5.101879E-05
7.415286E+03	4.738842E-03	5.121515E-05
7.425226E+03	4.747767E-03	5.145662E-05
7.435166E+03	4.757021E-03	5.174221E-05
7.445106E+03	4.766664E-03	5.207405E-05
7.455046E+03	4.776482E-03	5.245119E-05
7.464986E+03	4.786282E-03	5.287213E-05
7.474926E+03	4.796203E-03	5.333811E-05
7.484866E+03	4.806123E-03	5.384728E-05
7.494806E+03	4.816149E-03	5.440025E-05
7.504746E+03	4.826104E-03	5.499435E-05
7.514686E+03	4.836221E-03	5.563149E-05
7.524627E+03	4.846535E-03	5.631129E-05
7.534567E+03	4.856973E-03	5.703208E-05
7.544507E+03	4.867554E-03	5.779320E-05
7.554447E+03	4.878397E-03	5.859517E-05
7.564387E+03	4.889508E-03	5.943716E-05
7.574327E+03	4.900778E-03	6.031697E-05
7.584267E+03	4.912305E-03	6.123481E-05
7.594207E+03	4.924072E-03	6.218960E-05
7.604147E+03	4.936060E-03	6.318017E-05
7.614087E+03	4.948244E-03	6.420527E-05
7.624027E+03	4.960597E-03	6.526363E-05
7.633967E+03	4.973199E-03	6.635543E-05
7.643907E+03	4.985909E-03	6.747790E-05
7.653847E+03	4.998694E-03	6.862968E-05
7.663787E+03	5.011634E-03	6.981099E-05
7.673727E+03	5.024583E-03	7.101895E-05
7.683667E+03	5.037739E-03	7.225549E-05
7.693608E+03	5.050842E-03	7.351609E-05
7.703548E+03	5.063976E-03	7.480113E-05
7.713488E+03	5.077114E-03	7.610938E-05
