#wls	flux	fluxerr
1.590410E+03	8.601401E-05	1.037583E-06
1.630170E+03	8.870679E-05	1.069957E-06
1.669930E+03	9.153331E-05	1.103935E-06
1.709691E+03	9.446108E-05	1.139125E-06
1.749451E+03	9.749345E-05	1.175565E-06
1.789211E+03	1.006740E-04	1.213782E-06
1.828971E+03	1.039678E-04	1.253352E-06
1.868732E+03	1.073784E-04	1.294319E-06
1.908492E+03	1.109526E-04	1.337245E-06
1.948252E+03	1.146529E-04	1.381676E-06
1.988012E+03	1.184829E-04	1.427658E-06
2.027773E+03	1.224929E-04	1.475791E-06
2.067533E+03	1.266421E-04	1.525587E-06
2.107293E+03	1.309834E-04	1.577680E-06
2.147053E+03	1.354739E-04	1.631553E-06
2.186814E+03	1.401689E-04	1.687869E-06
2.226574E+03	1.450231E-04	1.746084E-06
2.266334E+03	1.500404E-04	1.806241E-06
2.306094E+03	1.552799E-04	1.869051E-06
2.345854E+03	1.606923E-04	1.933921E-06
2.385615E+03	1.663397E-04	2.001595E-06
2.425375E+03	1.721700E-04	2.071444E-06
2.465135E+03	1.781867E-04	2.143509E-06
2.504895E+03	1.844557E-04	2.218582E-06
2.544656E+03	1.909849E-04	2.296756E-06
2.584416E+03	1.977159E-04	2.377327E-06
2.624176E+03	2.047193E-04	2.461142E-06
2.663936E+03	2.118635E-04	2.546617E-06
2.703697E+03	2.193599E-04	2.636290E-06
2.743457E+03	2.270746E-04	2.728552E-06
2.783217E+03	2.350094E-04	2.823422E-06
2.822977E+03	2.432428E-04	2.921841E-06
2.862738E+03	2.517817E-04	3.023888E-06
2.902498E+03	2.605517E-04	3.128670E-06
2.942258E+03	2.695534E-04	3.236191E-06
2.982018E+03	2.788716E-04	3.347468E-06
2.991958E+03	2.812166E-04	3.375466E-06
3.001899E+03	2.836619E-04	3.404664E-06
3.011839E+03	2.860363E-04	3.433009E-06
3.021779E+03	2.884252E-04	3.461525E-06
3.031719E+03	2.909157E-04	3.491257E-06
3.041659E+03	2.933338E-04	3.520119E-06
3.051599E+03	2.958546E-04	3.550209E-06
3.061539E+03	2.983021E-04	3.579415E-06
3.071479E+03	3.008531E-04	3.609862E-06
3.081419E+03	3.034194E-04	3.640489E-06
3.091359E+03	3.059107E-04	3.670213E-06
3.101299E+03	3.085072E-04	3.701195E-06
3.111239E+03	3.111188E-04	3.732357E-06
3.121179E+03	3.136537E-04	3.762594E-06
3.131119E+03	3.162953E-04	3.794108E-06
3.141059E+03	3.189519E-04	3.825800E-06
3.150999E+03	3.216237E-04	3.857670E-06
3.160940E+03	3.242164E-04	3.888588E-06
3.170880E+03	3.269177E-04	3.920806E-06
3.180820E+03	3.296339E-04	3.953200E-06
3.190760E+03	3.323651E-04	3.985769E-06
3.200700E+03	3.351110E-04	4.018513E-06
3.210640E+03	3.378718E-04	4.051431E-06
3.220580E+03	3.406473E-04	4.084522E-06
3.230520E+03	3.434375E-04	4.117786E-06
3.240460E+03	3.462423E-04	4.151222E-06
3.250400E+03	3.491606E-04	4.186015E-06
3.260340E+03	3.519949E-04	4.219798E-06
3.270280E+03	3.548436E-04	4.253751E-06
3.280220E+03	3.577066E-04	4.287871E-06
3.290160E+03	3.605839E-04	4.322159E-06
3.300100E+03	3.635770E-04	4.357832E-06
3.310040E+03	3.664830E-04	4.392457E-06
3.319981E+03	3.694030E-04	4.427247E-06
3.329921E+03	3.724402E-04	4.463438E-06
3.339861E+03	3.753884E-04	4.498559E-06
3.349801E+03	3.783502E-04	4.533840E-06
3.359741E+03	3.814307E-04	4.570539E-06
3.369681E+03	3.844201E-04	4.606143E-06
3.379621E+03	3.875290E-04	4.643176E-06
3.389561E+03	3.906523E-04	4.680378E-06
3.399501E+03	3.936825E-04	4.716460E-06
3.409441E+03	3.968335E-04	4.753987E-06
3.419381E+03	3.998901E-04	4.790378E-06
3.429321E+03	4.030683E-04	4.828224E-06
3.439261E+03	4.062603E-04	4.866231E-06
3.449201E+03	4.093557E-04	4.903077E-06
3.459141E+03	4.125740E-04	4.941392E-06
3.469081E+03	4.158057E-04	4.979863E-06
3.479022E+03	4.190504E-04	5.018488E-06
3.488962E+03	4.223081E-04	5.057263E-06
3.498902E+03	4.255785E-04	5.096188E-06
3.508842E+03	4.287480E-04	5.133901E-06
3.518782E+03	4.320429E-04	5.173112E-06
3.528722E+03	4.353501E-04	5.212466E-06
3.538662E+03	4.386692E-04	5.251961E-06
3.548602E+03	4.420003E-04	5.291594E-06
3.558542E+03	4.453430E-04	5.331363E-06
3.568482E+03	4.486971E-04	5.371266E-06
3.578422E+03	4.521802E-04	5.412708E-06
3.588362E+03	4.555572E-04	5.452877E-06
3.598302E+03	4.589450E-04	5.493173E-06
3.608242E+03	4.623434E-04	5.533592E-06
3.618182E+03	4.657522E-04	5.574131E-06
3.628122E+03	4.691711E-04	5.614788E-06
3.638062E+03	4.727208E-04	5.657007E-06
3.648003E+03	4.761596E-04	5.697896E-06
3.657943E+03	4.796079E-04	5.738894E-06
3.667883E+03	4.831880E-04	5.781467E-06
3.677823E+03	4.866546E-04	5.822678E-06
3.687763E+03	4.901298E-04	5.863989E-06
3.697703E+03	4.937377E-04	5.906884E-06
3.707643E+03	4.972296E-04	5.948389E-06
3.717583E+03	5.008548E-04	5.991483E-06
3.727523E+03	5.043623E-04	6.033168E-06
3.737463E+03	5.080034E-04	6.076448E-06
3.747403E+03	5.115252E-04	6.118296E-06
3.757343E+03	5.151811E-04	6.161746E-06
3.767283E+03	5.187158E-04	6.203743E-06
3.777223E+03	5.223850E-04	6.247347E-06
3.787163E+03	5.259313E-04	6.289477E-06
3.797103E+03	5.296124E-04	6.333217E-06
3.807044E+03	5.332994E-04	6.377023E-06
3.816984E+03	5.368605E-04	6.419321E-06
3.826924E+03	5.405571E-04	6.463237E-06
3.836864E+03	5.442582E-04	6.507205E-06
3.846804E+03	5.479634E-04	6.551218E-06
3.856744E+03	5.515392E-04	6.593681E-06
3.866684E+03	5.552509E-04	6.637767E-06
3.876624E+03	5.589656E-04	6.681885E-06
3.886564E+03	5.626827E-04	6.726030E-06
3.896504E+03	5.664017E-04	6.770195E-06
3.906444E+03	5.701224E-04	6.814378E-06
3.916384E+03	5.737077E-04	6.856940E-06
3.926324E+03	5.774295E-04	6.901132E-06
3.936264E+03	5.811516E-04	6.945324E-06
3.946204E+03	5.848734E-04	6.989511E-06
3.956144E+03	5.885943E-04	7.033686E-06
3.966085E+03	5.923141E-04	7.077844E-06
3.976025E+03	5.960321E-04	7.121979E-06
3.985965E+03	5.997478E-04	7.166085E-06
3.995905E+03	6.034608E-04	7.210157E-06
4.005845E+03	6.071704E-04	7.254188E-06
4.015785E+03	6.108764E-04	7.298172E-06
4.025725E+03	6.145781E-04	7.342103E-06
4.035665E+03	6.182749E-04	7.385975E-06
4.045605E+03	6.219664E-04	7.429783E-06
4.055545E+03	6.257956E-04	7.475234E-06
4.065485E+03	6.294754E-04	7.518898E-06
4.075425E+03	6.331483E-04	7.562479E-06
4.085365E+03	6.368136E-04	7.605969E-06
4.095305E+03	6.404710E-04	7.649363E-06
4.105245E+03	6.441199E-04	7.692654E-06
4.115185E+03	6.477598E-04	7.735837E-06
4.125125E+03	6.515370E-04	7.780660E-06
4.135066E+03	6.551576E-04	7.823611E-06
4.145006E+03	6.587676E-04	7.866436E-06
4.154946E+03	6.623665E-04	7.909127E-06
4.164886E+03	6.661023E-04	7.953453E-06
4.174826E+03	6.696777E-04	7.995863E-06
4.184766E+03	6.732404E-04	8.038122E-06
4.194706E+03	6.767898E-04	8.080222E-06
4.204646E+03	6.804758E-04	8.123953E-06
4.214586E+03	6.839973E-04	8.165721E-06
4.224526E+03	6.875048E-04	8.207320E-06
4.234466E+03	6.911483E-04	8.250545E-06
4.244406E+03	6.946243E-04	8.291771E-06
4.254346E+03	6.980846E-04	8.332810E-06
4.264286E+03	7.015279E-04	8.373646E-06
4.274226E+03	7.051072E-04	8.416108E-06
4.284166E+03	7.085156E-04	8.456530E-06
4.294107E+03	7.119063E-04	8.496742E-06
4.304047E+03	7.154324E-04	8.538572E-06
4.313987E+03	7.187855E-04	8.578339E-06
4.323927E+03	7.221196E-04	8.617879E-06
4.333867E+03	7.255883E-04	8.659029E-06
4.343807E+03	7.288820E-04	8.698092E-06
4.353747E+03	7.321546E-04	8.736904E-06
4.363687E+03	7.355633E-04	8.777343E-06
4.373627E+03	7.387935E-04	8.815655E-06
4.383567E+03	7.420019E-04	8.853708E-06
4.393507E+03	7.453450E-04	8.893372E-06
4.403447E+03	7.485083E-04	8.930893E-06
4.413387E+03	7.516484E-04	8.968140E-06
4.423327E+03	7.549225E-04	9.006989E-06
4.433267E+03	7.580141E-04	9.043663E-06
4.443207E+03	7.610811E-04	9.080046E-06
4.453148E+03	7.642822E-04	9.118033E-06
4.463088E+03	7.672987E-04	9.153820E-06
4.473028E+03	7.702892E-04	9.189300E-06
4.482968E+03	7.734138E-04	9.226383E-06
4.492908E+03	7.763510E-04	9.261235E-06
4.502848E+03	7.792623E-04	9.295780E-06
4.512788E+03	7.823056E-04	9.331903E-06
4.522728E+03	7.851616E-04	9.365795E-06
4.532668E+03	7.879888E-04	9.399348E-06
4.542608E+03	7.907874E-04	9.432562E-06
4.552548E+03	7.937187E-04	9.467363E-06
4.562488E+03	7.964599E-04	9.499900E-06
4.572428E+03	7.991710E-04	9.532082E-06
4.582368E+03	8.018521E-04	9.563909E-06
4.592308E+03	8.046644E-04	9.597306E-06
4.602248E+03	8.072847E-04	9.628415E-06
4.612189E+03	8.098742E-04	9.659162E-06
4.622129E+03	8.124323E-04	9.689537E-06
4.632069E+03	8.149583E-04	9.719534E-06
4.642009E+03	8.176149E-04	9.751092E-06
4.651949E+03	8.200766E-04	9.780330E-06
4.661889E+03	8.225055E-04	9.809181E-06
4.671829E+03	8.249010E-04	9.837636E-06
4.681769E+03	8.272636E-04	9.865705E-06
4.691709E+03	8.295921E-04	9.893370E-06
4.701649E+03	8.318857E-04	9.920624E-06
4.711589E+03	8.341458E-04	9.947482E-06
4.721529E+03	8.363704E-04	9.973921E-06
4.731469E+03	8.385595E-04	9.999940E-06
4.741409E+03	8.407130E-04	1.002554E-05
4.751349E+03	8.428303E-04	1.005071E-05
4.761289E+03	8.449113E-04	1.007546E-05
4.771229E+03	8.469548E-04	1.009976E-05
4.781170E+03	8.489614E-04	1.012362E-05
4.791110E+03	8.509303E-04	1.014704E-05
4.801050E+03	8.528603E-04	1.017000E-05
4.810990E+03	8.547520E-04	1.019251E-05
4.820930E+03	8.564406E-04	1.021260E-05
4.830870E+03	8.582531E-04	1.023417E-05
4.840810E+03	8.600258E-04	1.025528E-05
4.850750E+03	8.617576E-04	1.027590E-05
4.860690E+03	8.632842E-04	1.029408E-05
4.870630E+03	8.649332E-04	1.031372E-05
4.880570E+03	8.665398E-04	1.033286E-05
4.890510E+03	8.679392E-04	1.034954E-05
4.900450E+03	8.694597E-04	1.036766E-05
4.910390E+03	8.709358E-04	1.038526E-05
4.920330E+03	8.722039E-04	1.040038E-05
4.930270E+03	8.735904E-04	1.041692E-05
4.940211E+03	8.747676E-04	1.043097E-05
4.950151E+03	8.760617E-04	1.044642E-05
4.960091E+03	8.771460E-04	1.045937E-05
4.970031E+03	8.781823E-04	1.047176E-05
4.979971E+03	8.793335E-04	1.048552E-05
4.989911E+03	8.802721E-04	1.049674E-05
4.999851E+03	8.811614E-04	1.050739E-05
5.009791E+03	8.821636E-04	1.051939E-05
5.019731E+03	8.829517E-04	1.052884E-05
5.029671E+03	8.836885E-04	1.053768E-05
5.039611E+03	8.843726E-04	1.054590E-05
5.049551E+03	8.850034E-04	1.055349E-05
5.059491E+03	8.855809E-04	1.056044E-05
5.069431E+03	8.861043E-04	1.056676E-05
5.079371E+03	8.865723E-04	1.057242E-05
5.089311E+03	8.869843E-04	1.057742E-05
5.099252E+03	8.873394E-04	1.058175E-05
5.109192E+03	8.876379E-04	1.058540E-05
5.119132E+03	8.878781E-04	1.058837E-05
5.129072E+03	8.880596E-04	1.059064E-05
5.139012E+03	8.881822E-04	1.059221E-05
5.148952E+03	8.880846E-04	1.059116E-05
5.158892E+03	8.880861E-04	1.059130E-05
5.168832E+03	8.880268E-04	1.059072E-05
5.178772E+03	8.877465E-04	1.058751E-05
5.188712E+03	8.875634E-04	1.058546E-05
5.198652E+03	8.871586E-04	1.058078E-05
5.208592E+03	8.868482E-04	1.057722E-05
5.218532E+03	8.863169E-04	1.057104E-05
5.228472E+03	8.858786E-04	1.056597E-05
5.238412E+03	8.852180E-04	1.055825E-05
5.248352E+03	8.844931E-04	1.054977E-05
5.258292E+03	8.837025E-04	1.054051E-05
5.268233E+03	8.830022E-04	1.053233E-05
5.278173E+03	8.820803E-04	1.052152E-05
5.288113E+03	8.810920E-04	1.050992E-05
5.298053E+03	8.800373E-04	1.049753E-05
5.307993E+03	8.789170E-04	1.048436E-05
5.317933E+03	8.777296E-04	1.047040E-05
5.327873E+03	8.764752E-04	1.045564E-05
5.337813E+03	8.751551E-04	1.044011E-05
5.347753E+03	8.736161E-04	1.042196E-05
5.357693E+03	8.721639E-04	1.040486E-05
5.367633E+03	8.706447E-04	1.038696E-05
5.377573E+03	8.689100E-04	1.036650E-05
5.387513E+03	8.672601E-04	1.034705E-05
5.397453E+03	8.655459E-04	1.032684E-05
5.407393E+03	8.636176E-04	1.030408E-05
5.417333E+03	8.616263E-04	1.028057E-05
5.427274E+03	8.597198E-04	1.025808E-05
5.437214E+03	8.576040E-04	1.023309E-05
5.447154E+03	8.554266E-04	1.020738E-05
5.457094E+03	8.533346E-04	1.018268E-05
5.467034E+03	8.510361E-04	1.015553E-05
5.476974E+03	8.486780E-04	1.012767E-05
5.486914E+03	8.462611E-04	1.009911E-05
5.496854E+03	8.437861E-04	1.006986E-05
5.506794E+03	8.412528E-04	1.003991E-05
5.516734E+03	8.386635E-04	1.000930E-05
5.526674E+03	8.358751E-04	9.976322E-06
5.536614E+03	8.331735E-04	9.944379E-06
5.546554E+03	8.304165E-04	9.911776E-06
5.556494E+03	8.274659E-04	9.876865E-06
5.566434E+03	8.246028E-04	9.843000E-06
5.576374E+03	8.215482E-04	9.806851E-06
5.586315E+03	8.185818E-04	9.771756E-06
5.596255E+03	8.154279E-04	9.734426E-06
5.606195E+03	8.123622E-04	9.698150E-06
5.616135E+03	8.091133E-04	9.659687E-06
5.626075E+03	8.058184E-04	9.620677E-06
5.636015E+03	8.024798E-04	9.581145E-06
5.645955E+03	7.990974E-04	9.541091E-06
5.655895E+03	7.956732E-04	9.500539E-06
5.665835E+03	7.922086E-04	9.459506E-06
5.675775E+03	7.887043E-04	9.417999E-06
5.685715E+03	7.851624E-04	9.376042E-06
5.695655E+03	7.814543E-04	9.332101E-06
5.705595E+03	7.778412E-04	9.289294E-06
5.715535E+03	7.741945E-04	9.246087E-06
5.725475E+03	7.703871E-04	9.200960E-06
5.735415E+03	7.666775E-04	9.157000E-06
5.745356E+03	7.628119E-04	9.111176E-06
5.755296E+03	7.589196E-04	9.065033E-06
5.765236E+03	7.551258E-04	9.020064E-06
5.775176E+03	7.511828E-04	8.973314E-06
5.785116E+03	7.472173E-04	8.926293E-06
5.795056E+03	7.432305E-04	8.879016E-06
5.804996E+03	7.392232E-04	8.831493E-06
5.814936E+03	7.351974E-04	8.783748E-06
5.824876E+03	7.311544E-04	8.735796E-06
5.834816E+03	7.270950E-04	8.687646E-06
5.844756E+03	7.229023E-04	8.637901E-06
5.854696E+03	7.188155E-04	8.589420E-06
5.864636E+03	7.147164E-04	8.540789E-06
5.874576E+03	7.104900E-04	8.490636E-06
5.884516E+03	7.063703E-04	8.441756E-06
5.894456E+03	7.021275E-04	8.391402E-06
5.904396E+03	6.978792E-04	8.340979E-06
5.914337E+03	6.936254E-04	8.290489E-06
5.924277E+03	6.894803E-04	8.241295E-06
5.934217E+03	6.852196E-04	8.190717E-06
5.944157E+03	6.809573E-04	8.140117E-06
5.954097E+03	6.766945E-04	8.089507E-06
5.964037E+03	6.724320E-04	8.038900E-06
5.973977E+03	6.680629E-04	7.987014E-06
5.983917E+03	6.638050E-04	7.936454E-06
5.993857E+03	6.595504E-04	7.885932E-06
6.003797E+03	6.551943E-04	7.834191E-06
6.013737E+03	6.509497E-04	7.783782E-06
6.023677E+03	6.466068E-04	7.732193E-06
6.033617E+03	6.423758E-04	7.681939E-06
6.043557E+03	6.380495E-04	7.630542E-06
6.053497E+03	6.337330E-04	7.579259E-06
6.063437E+03	6.294272E-04	7.528099E-06
6.073378E+03	6.251326E-04	7.477071E-06
6.083318E+03	6.208500E-04	7.426182E-06
6.093258E+03	6.165801E-04	7.375442E-06
6.103198E+03	6.123235E-04	7.324856E-06
6.113138E+03	6.080808E-04	7.274434E-06
6.123078E+03	6.038526E-04	7.224180E-06
6.133018E+03	5.995436E-04	7.172956E-06
6.142958E+03	5.953468E-04	7.123072E-06
6.152898E+03	5.910717E-04	7.072245E-06
6.162838E+03	5.869085E-04	7.022754E-06
6.172778E+03	5.826694E-04	6.972351E-06
6.182718E+03	5.784493E-04	6.922172E-06
6.192658E+03	5.743404E-04	6.873318E-06
6.202598E+03	5.701590E-04	6.823593E-06
6.212538E+03	5.659979E-04	6.774106E-06
6.222478E+03	5.618575E-04	6.724864E-06
6.232419E+03	5.577380E-04	6.675867E-06
6.242359E+03	5.535518E-04	6.626068E-06
6.252299E+03	5.494761E-04	6.577587E-06
6.262239E+03	5.454223E-04	6.529365E-06
6.272179E+03	5.413048E-04	6.480375E-06
6.282119E+03	5.372965E-04	6.432689E-06
6.292059E+03	5.332263E-04	6.384257E-06
6.301999E+03	5.292645E-04	6.337118E-06
6.311939E+03	5.252425E-04	6.289256E-06
6.321879E+03	5.212454E-04	6.241686E-06
6.331819E+03	5.172731E-04	6.194409E-06
6.341759E+03	5.133259E-04	6.147430E-06
6.351699E+03	5.094041E-04	6.100748E-06
6.361639E+03	5.055076E-04	6.054367E-06
6.371579E+03	5.016368E-04	6.008289E-06
6.381519E+03	4.977915E-04	5.962512E-06
6.391459E+03	4.939721E-04	5.917040E-06
6.401400E+03	4.901009E-04	5.870944E-06
6.411340E+03	4.863339E-04	5.826092E-06
6.421280E+03	4.825165E-04	5.780633E-06
6.431220E+03	4.788023E-04	5.736405E-06
6.441160E+03	4.750390E-04	5.691584E-06
6.451100E+03	4.713031E-04	5.647088E-06
6.461040E+03	4.675946E-04	5.602916E-06
6.470980E+03	4.639136E-04	5.559068E-06
6.480920E+03	4.603328E-04	5.516418E-06
6.490860E+03	4.566339E-04	5.472348E-06
6.500800E+03	4.530352E-04	5.429475E-06
6.510740E+03	4.494639E-04	5.386926E-06
6.520680E+03	4.459200E-04	5.344701E-06
6.530620E+03	4.424035E-04	5.302800E-06
6.540560E+03	4.388450E-04	5.260392E-06
6.550500E+03	4.353836E-04	5.219144E-06
6.560441E+03	4.318814E-04	5.177402E-06
6.570381E+03	4.284073E-04	5.135994E-06
6.580321E+03	4.250287E-04	5.095725E-06
6.590261E+03	4.216104E-04	5.054978E-06
6.600201E+03	4.182203E-04	5.014564E-06
6.610141E+03	4.148581E-04	4.974481E-06
6.620081E+03	4.115239E-04	4.934729E-06
6.630021E+03	4.082174E-04	4.895306E-06
6.639961E+03	4.049386E-04	4.856211E-06
6.649901E+03	4.016874E-04	4.817442E-06
6.659841E+03	3.984008E-04	4.778246E-06
6.669781E+03	3.952049E-04	4.740134E-06
6.679721E+03	3.920363E-04	4.702345E-06
6.689661E+03	3.888334E-04	4.664141E-06
6.699601E+03	3.857195E-04	4.627000E-06
6.709541E+03	3.825720E-04	4.589453E-06
6.719482E+03	3.794523E-04	4.552236E-06
6.729422E+03	3.763601E-04	4.515345E-06
6.739362E+03	3.733544E-04	4.479488E-06
6.749302E+03	3.703166E-04	4.443241E-06
6.759242E+03	3.673058E-04	4.407316E-06
6.769182E+03	3.642645E-04	4.371021E-06
6.779122E+03	3.613082E-04	4.335742E-06
6.789062E+03	3.583785E-04	4.300779E-06
6.799002E+03	3.554754E-04	4.266132E-06
6.808942E+03	3.525430E-04	4.231128E-06
6.818882E+03	3.496929E-04	4.197111E-06
6.828822E+03	3.468690E-04	4.163403E-06
6.838762E+03	3.440165E-04	4.129349E-06
6.848702E+03	3.411907E-04	4.095612E-06
6.858642E+03	3.384449E-04	4.062831E-06
6.868582E+03	3.356714E-04	4.029715E-06
6.878523E+03	3.329240E-04	3.996909E-06
6.888463E+03	3.302024E-04	3.964410E-06
6.898403E+03	3.275067E-04	3.932218E-06
6.908343E+03	3.248366E-04	3.900330E-06
6.918283E+03	3.221918E-04	3.868743E-06
6.928223E+03	3.195722E-04	3.837456E-06
6.938163E+03	3.169777E-04	3.806466E-06
6.948103E+03	3.143581E-04	3.775172E-06
6.958043E+03	3.118136E-04	3.744776E-06
6.967983E+03	3.092935E-04	3.714671E-06
6.977923E+03	3.067490E-04	3.684269E-06
6.987863E+03	3.042293E-04	3.654164E-06
6.997803E+03	3.017824E-04	3.624928E-06
7.007743E+03	2.993117E-04	3.595404E-06
7.017683E+03	2.968653E-04	3.566168E-06
7.027623E+03	2.944899E-04	3.537784E-06
7.037563E+03	2.920912E-04	3.509116E-06
7.047504E+03	2.897163E-04	3.480731E-06
7.057444E+03	2.873649E-04	3.452627E-06
7.067384E+03	2.850370E-04	3.424801E-06
7.077324E+03	2.826870E-04	3.396707E-06
7.087264E+03	2.804056E-04	3.369435E-06
7.097204E+03	2.781470E-04	3.342434E-06
7.107144E+03	2.759111E-04	3.315702E-06
7.117084E+03	2.736538E-04	3.288711E-06
7.127024E+03	2.714628E-04	3.262515E-06
7.136964E+03	2.692508E-04	3.236064E-06
7.146904E+03	2.671042E-04	3.210395E-06
7.156844E+03	2.649368E-04	3.184474E-06
7.166784E+03	2.627915E-04	3.158816E-06
7.176724E+03	2.606681E-04	3.133420E-06
7.186664E+03	2.586081E-04	3.108782E-06
7.196604E+03	2.565277E-04	3.083898E-06
7.206545E+03	2.544687E-04	3.059268E-06
7.216485E+03	2.524310E-04	3.034892E-06
7.226425E+03	2.504142E-04	3.010764E-06
7.236365E+03	2.484183E-04	2.986885E-06
7.246305E+03	2.464031E-04	2.962773E-06
7.256245E+03	2.444485E-04	2.939386E-06
7.266185E+03	2.425141E-04	2.916241E-06
7.276125E+03	2.405609E-04	2.892866E-06
7.286065E+03	2.386667E-04	2.870200E-06
7.296005E+03	2.367923E-04	2.847769E-06
7.305945E+03	2.348992E-04	2.825111E-06
7.315885E+03	2.330261E-04	2.802691E-06
7.325825E+03	2.312101E-04	2.780957E-06
7.335765E+03	2.293759E-04	2.759000E-06
7.345705E+03	2.275609E-04	2.737273E-06
7.355645E+03	2.257650E-04	2.715775E-06
7.365586E+03	2.240246E-04	2.694941E-06
7.375526E+03	2.222662E-04	2.673889E-06
7.385466E+03	2.205264E-04	2.653058E-06
7.395406E+03	2.188049E-04	2.632446E-06
7.405346E+03	2.171017E-04	2.612052E-06
7.415286E+03	2.153812E-04	2.591448E-06
7.425226E+03	2.137141E-04	2.571485E-06
7.435166E+03	2.120647E-04	2.551733E-06
7.445106E+03	2.104327E-04	2.532188E-06
7.455046E+03	2.087838E-04	2.512438E-06
7.464986E+03	2.071865E-04	2.493308E-06
7.474926E+03	2.055725E-04	2.473974E-06
7.484866E+03	2.040092E-04	2.455249E-06
7.494806E+03	2.024292E-04	2.436322E-06
7.504746E+03	2.008993E-04	2.417994E-06
7.514686E+03	1.993527E-04	2.399465E-06
7.524627E+03	1.978226E-04	2.381134E-06
7.534567E+03	1.963414E-04	2.363389E-06
7.544507E+03	1.948438E-04	2.345443E-06
7.554447E+03	1.933621E-04	2.327690E-06
7.564387E+03	1.918964E-04	2.310126E-06
7.574327E+03	1.904464E-04	2.292750E-06
7.584267E+03	1.890119E-04	2.275559E-06
7.594207E+03	1.875928E-04	2.258552E-06
7.604147E+03	1.861889E-04	2.241726E-06
7.614087E+03	1.848000E-04	2.225080E-06
7.624027E+03	1.833954E-04	2.208244E-06
7.633967E+03	1.820364E-04	2.191954E-06
7.643907E+03	1.806919E-04	2.175837E-06
7.653847E+03	1.793618E-04	2.159893E-06
7.663787E+03	1.780162E-04	2.143761E-06
7.673727E+03	1.767146E-04	2.128157E-06
7.683667E+03	1.753975E-04	2.112366E-06
7.693608E+03	1.741239E-04	2.097097E-06
7.703548E+03	1.728348E-04	2.081639E-06
7.713488E+03	1.715596E-04	2.066348E-06
