#wls	flux	fluxerr
1.600000E+03	7.994109E-16	1.033060E-15
1.640000E+03	7.956315E-16	1.025751E-15
1.680000E+03	7.920115E-16	1.018347E-15
1.720000E+03	7.887349E-16	1.011051E-15
1.760000E+03	7.858956E-16	1.003938E-15
1.800000E+03	7.834967E-16	9.969646E-16
1.840000E+03	7.817253E-16	9.903140E-16
1.880000E+03	7.807707E-16	9.841613E-16
1.920000E+03	7.808244E-16	9.786721E-16
1.960000E+03	7.818011E-16	9.736518E-16
2.000000E+03	7.840813E-16	9.694741E-16
2.040000E+03	7.877694E-16	9.661474E-16
2.080000E+03	7.928772E-16	9.635480E-16
2.120000E+03	7.997939E-16	9.619883E-16
2.160000E+03	8.085356E-16	9.612968E-16
2.200000E+03	8.194984E-16	9.617233E-16
2.240000E+03	8.326065E-16	9.629195E-16
2.280000E+03	8.482614E-16	9.650550E-16
2.320000E+03	8.666774E-16	9.680249E-16
2.360000E+03	8.878768E-16	9.714583E-16
2.400000E+03	9.121716E-16	9.752513E-16
2.440000E+03	9.396803E-16	9.790265E-16
2.480000E+03	9.706178E-16	9.824505E-16
2.520000E+03	1.005001E-15	9.849340E-16
2.560000E+03	1.043037E-15	9.860412E-16
2.600000E+03	1.085031E-15	9.853840E-16
2.640000E+03	1.131282E-15	9.825381E-16
2.680000E+03	1.181883E-15	9.769080E-16
2.720000E+03	1.237220E-15	9.682043E-16
2.760000E+03	1.297668E-15	9.562223E-16
2.800000E+03	1.363593E-15	9.409161E-16
2.840000E+03	1.435446E-15	9.225468E-16
2.880000E+03	1.513560E-15	9.016064E-16
2.920000E+03	1.598552E-15	8.790694E-16
2.960000E+03	1.690805E-15	8.559391E-16
3.000000E+03	1.790765E-15	8.330921E-16
3.010000E+03	1.816995E-15	8.274603E-16
3.020000E+03	1.843786E-15	8.218735E-16
3.030000E+03	1.871030E-15	8.162666E-16
3.040000E+03	1.898825E-15	8.106595E-16
3.050000E+03	1.927065E-15	8.049770E-16
3.060000E+03	1.955947E-15	7.992663E-16
3.070000E+03	1.985262E-15	7.933981E-16
3.080000E+03	2.015106E-15	7.873640E-16
3.090000E+03	2.045571E-15	7.811469E-16
3.100000E+03	2.076448E-15	7.746071E-16
3.110000E+03	2.107828E-15	7.677197E-16
3.120000E+03	2.139803E-15	7.604537E-16
3.130000E+03	2.172158E-15	7.526671E-16
3.140000E+03	2.205083E-15	7.443626E-16
3.150000E+03	2.238462E-15	7.354369E-16
3.160000E+03	2.272381E-15	7.258585E-16
3.170000E+03	2.306617E-15	7.155028E-16
3.180000E+03	2.341355E-15	7.043819E-16
3.190000E+03	2.376575E-15	6.924503E-16
3.200000E+03	2.412051E-15	6.796165E-16
3.210000E+03	2.447963E-15	6.659208E-16
3.220000E+03	2.484287E-15	6.513581E-16
3.230000E+03	2.520897E-15	6.359156E-16
3.240000E+03	2.557768E-15	6.196293E-16
3.250000E+03	2.594875E-15	6.025565E-16
3.260000E+03	2.632294E-15	5.847997E-16
3.270000E+03	2.670000E-15	5.664584E-16
3.280000E+03	2.707867E-15	5.476332E-16
3.290000E+03	2.745871E-15	5.284667E-16
3.300000E+03	2.784085E-15	5.091341E-16
3.310000E+03	2.822373E-15	4.897804E-16
3.320000E+03	2.860789E-15	4.705891E-16
3.330000E+03	2.899160E-15	4.517041E-16
3.340000E+03	2.937379E-15	4.332771E-16
3.350000E+03	2.975389E-15	4.154585E-16
3.360000E+03	3.012971E-15	3.983652E-16
3.370000E+03	3.049742E-15	3.820835E-16
3.380000E+03	3.085441E-15	3.667070E-16
3.390000E+03	3.119541E-15	3.522835E-16
3.400000E+03	3.151550E-15	3.388484E-16
3.410000E+03	3.181020E-15	3.264138E-16
3.420000E+03	3.207373E-15	3.149376E-16
3.430000E+03	3.229923E-15	3.043166E-16
3.440000E+03	3.248201E-15	2.944071E-16
3.450000E+03	3.261706E-15	2.849966E-16
3.460000E+03	3.269965E-15	2.758130E-16
3.470000E+03	3.272871E-15	2.665621E-16
3.480000E+03	3.270460E-15	2.569223E-16
3.490000E+03	3.262959E-15	2.465672E-16
3.500000E+03	3.251155E-15	2.352120E-16
3.510000E+03	3.235772E-15	2.225862E-16
3.520000E+03	3.218045E-15	2.085003E-16
3.530000E+03	3.199322E-15	1.928498E-16
3.540000E+03	3.181192E-15	1.756761E-16
3.550000E+03	3.165149E-15	1.572424E-16
3.560000E+03	3.153098E-15	1.382394E-16
3.570000E+03	3.147172E-15	1.200986E-16
3.580000E+03	3.149629E-15	1.054706E-16
3.590000E+03	3.163507E-15	9.832603E-17
3.600000E+03	3.191836E-15	1.017946E-16
3.610000E+03	3.235775E-15	1.142293E-16
3.620000E+03	3.296277E-15	1.316606E-16
3.630000E+03	3.374469E-15	1.510671E-16
3.640000E+03	3.471992E-15	1.708055E-16
3.650000E+03	3.590373E-15	1.900931E-16
3.660000E+03	3.730907E-15	2.085865E-16
3.670000E+03	3.894147E-15	2.261214E-16
3.680000E+03	4.079432E-15	2.425697E-16
3.690000E+03	4.283954E-15	2.577331E-16
3.700000E+03	4.502664E-15	2.713221E-16
3.710000E+03	4.727421E-15	2.829272E-16
3.720000E+03	4.947215E-15	2.920913E-16
3.730000E+03	5.148836E-15	2.983984E-16
3.740000E+03	5.318313E-15	3.015795E-16
3.750000E+03	5.442703E-15	3.016126E-16
3.760000E+03	5.512488E-15	2.987560E-16
3.770000E+03	5.524182E-15	2.935384E-16
3.780000E+03	5.480393E-15	2.866755E-16
3.790000E+03	5.389959E-15	2.789874E-16
3.800000E+03	5.266526E-15	2.712430E-16
3.810000E+03	5.126533E-15	2.640734E-16
3.820000E+03	4.987969E-15	2.579296E-16
3.830000E+03	4.868027E-15	2.530151E-16
3.840000E+03	4.783246E-15	2.494645E-16
3.850000E+03	4.748006E-15	2.473950E-16
3.860000E+03	4.775161E-15	2.469487E-16
3.870000E+03	4.875908E-15	2.482568E-16
3.880000E+03	5.059388E-15	2.513856E-16
3.890000E+03	5.331626E-15	2.562740E-16
3.900000E+03	5.694023E-15	2.627188E-16
3.910000E+03	6.140035E-15	2.703403E-16
3.920000E+03	6.652153E-15	2.786587E-16
3.930000E+03	7.199535E-15	2.872443E-16
3.940000E+03	7.739831E-15	2.957950E-16
3.950000E+03	8.225331E-15	3.041258E-16
3.960000E+03	8.611759E-15	3.122091E-16
3.970000E+03	8.870810E-15	3.199054E-16
3.980000E+03	9.000386E-15	3.266746E-16
3.990000E+03	9.022044E-15	3.319745E-16
4.000000E+03	8.971211E-15	3.356578E-16
4.010000E+03	8.887688E-15	3.379013E-16
4.020000E+03	8.807977E-15	3.391173E-16
4.030000E+03	8.758743E-15	3.396716E-16
4.040000E+03	8.755041E-15	3.396369E-16
4.050000E+03	8.800605E-15	3.389041E-16
4.060000E+03	8.889539E-15	3.374019E-16
4.070000E+03	9.008510E-15	3.352320E-16
4.080000E+03	9.137667E-15	3.326976E-16
4.090000E+03	9.254890E-15	3.301262E-16
4.100000E+03	9.337461E-15	3.275619E-16
4.110000E+03	9.365340E-15	3.249588E-16
4.120000E+03	9.322994E-15	3.221367E-16
4.130000E+03	9.202010E-15	3.186445E-16
4.140000E+03	9.000219E-15	3.140185E-16
4.150000E+03	8.720692E-15	3.078652E-16
4.160000E+03	8.371541E-15	2.997380E-16
4.170000E+03	7.965537E-15	2.893854E-16
4.180000E+03	7.520648E-15	2.769101E-16
4.190000E+03	7.059209E-15	2.626900E-16
4.200000E+03	6.605605E-15	2.474627E-16
4.210000E+03	6.184198E-15	2.323009E-16
4.220000E+03	5.817023E-15	2.183928E-16
4.230000E+03	5.522380E-15	2.069017E-16
4.240000E+03	5.313287E-15	1.987281E-16
4.250000E+03	5.198112E-15	1.943817E-16
4.260000E+03	5.180920E-15	1.940341E-16
4.270000E+03	5.260688E-15	1.974069E-16
4.280000E+03	5.430456E-15	2.036112E-16
4.290000E+03	5.677339E-15	2.113219E-16
4.300000E+03	5.983078E-15	2.190636E-16
4.310000E+03	6.324544E-15	2.253753E-16
4.320000E+03	6.675115E-15	2.289199E-16
4.330000E+03	7.007868E-15	2.284183E-16
4.340000E+03	7.299582E-15	2.226035E-16
4.350000E+03	7.532843E-15	2.106230E-16
4.360000E+03	7.696594E-15	1.927267E-16
4.370000E+03	7.785105E-15	1.713054E-16
4.380000E+03	7.794852E-15	1.525990E-16
4.390000E+03	7.721938E-15	1.462636E-16
4.400000E+03	7.575344E-15	1.518838E-16
4.410000E+03	7.376277E-15	1.602903E-16
4.420000E+03	7.143458E-15	1.663738E-16
4.430000E+03	6.893679E-15	1.685261E-16
4.440000E+03	6.644833E-15	1.672766E-16
4.450000E+03	6.416962E-15	1.642331E-16
4.460000E+03	6.232179E-15	1.612686E-16
4.470000E+03	6.111900E-15	1.604001E-16
4.480000E+03	6.072328E-15	1.630274E-16
4.490000E+03	6.122481E-15	1.691117E-16
4.500000E+03	6.264932E-15	1.778311E-16
4.510000E+03	6.496230E-15	1.882939E-16
4.520000E+03	6.805825E-15	1.994771E-16
4.530000E+03	7.176124E-15	2.103358E-16
4.540000E+03	7.583852E-15	2.200577E-16
4.550000E+03	8.002477E-15	2.282524E-16
4.560000E+03	8.405466E-15	2.351447E-16
4.570000E+03	8.770868E-15	2.411817E-16
4.580000E+03	9.085202E-15	2.464862E-16
4.590000E+03	9.344083E-15	2.511493E-16
4.600000E+03	9.550223E-15	2.551240E-16
4.610000E+03	9.709434E-15	2.577573E-16
4.620000E+03	9.827102E-15	2.584853E-16
4.630000E+03	9.904018E-15	2.572661E-16
4.640000E+03	9.933495E-15	2.543721E-16
4.650000E+03	9.902465E-15	2.505808E-16
4.660000E+03	9.795008E-15	2.464185E-16
4.670000E+03	9.596001E-15	2.412952E-16
4.680000E+03	9.297557E-15	2.346216E-16
4.690000E+03	8.905425E-15	2.264737E-16
4.700000E+03	8.441382E-15	2.173171E-16
4.710000E+03	7.940828E-15	2.084092E-16
4.720000E+03	7.448060E-15	2.013623E-16
4.730000E+03	7.009871E-15	1.972932E-16
4.740000E+03	6.666606E-15	1.970603E-16
4.750000E+03	6.445710E-15	2.011118E-16
4.760000E+03	6.361763E-15	2.090129E-16
4.770000E+03	6.421359E-15	2.199051E-16
4.780000E+03	6.626570E-15	2.330256E-16
4.790000E+03	6.975174E-15	2.477157E-16
4.800000E+03	7.459301E-15	2.633676E-16
4.810000E+03	8.062249E-15	2.793860E-16
4.820000E+03	8.754951E-15	2.952246E-16
4.830000E+03	9.494428E-15	3.105384E-16
4.840000E+03	1.022652E-14	3.249759E-16
4.850000E+03	1.089279E-14	3.378301E-16
4.860000E+03	1.143966E-14	3.483263E-16
4.870000E+03	1.182804E-14	3.557149E-16
4.880000E+03	1.204086E-14	3.591783E-16
4.890000E+03	1.208484E-14	3.585903E-16
4.900000E+03	1.198650E-14	3.547545E-16
4.910000E+03	1.178473E-14	3.488690E-16
4.920000E+03	1.152349E-14	3.424298E-16
4.930000E+03	1.124450E-14	3.365850E-16
4.940000E+03	1.098167E-14	3.314599E-16
4.950000E+03	1.075895E-14	3.268784E-16
4.960000E+03	1.058824E-14	3.229177E-16
4.970000E+03	1.046896E-14	3.198239E-16
4.980000E+03	1.038988E-14	3.180298E-16
4.990000E+03	1.033144E-14	3.175686E-16
5.000000E+03	1.026811E-14	3.174379E-16
5.010000E+03	1.017355E-14	3.162648E-16
5.020000E+03	1.002690E-14	3.130141E-16
5.030000E+03	9.817954E-15	3.071553E-16
5.040000E+03	9.548866E-15	2.989212E-16
5.050000E+03	9.234370E-15	2.891344E-16
5.060000E+03	8.898591E-15	2.787248E-16
5.070000E+03	8.570025E-15	2.687104E-16
5.080000E+03	8.275468E-15	2.598859E-16
5.090000E+03	8.036634E-15	2.524958E-16
5.100000E+03	7.868850E-15	2.465910E-16
5.110000E+03	7.780056E-15	2.422142E-16
5.120000E+03	7.770811E-15	2.393136E-16
5.130000E+03	7.835337E-15	2.379303E-16
5.140000E+03	7.962457E-15	2.381208E-16
5.150000E+03	8.136070E-15	2.397406E-16
5.160000E+03	8.336647E-15	2.427009E-16
5.170000E+03	8.544124E-15	2.468854E-16
5.180000E+03	8.740300E-15	2.517969E-16
5.190000E+03	8.911319E-15	2.569339E-16
5.200000E+03	9.048901E-15	2.618924E-16
5.210000E+03	9.151603E-15	2.661092E-16
5.220000E+03	9.223523E-15	2.692019E-16
5.230000E+03	9.272089E-15	2.710730E-16
5.240000E+03	9.305933E-15	2.716392E-16
5.250000E+03	9.333142E-15	2.710468E-16
5.260000E+03	9.360041E-15	2.696134E-16
5.270000E+03	9.390476E-15	2.675271E-16
5.280000E+03	9.425843E-15	2.651212E-16
5.290000E+03	9.465773E-15	2.628219E-16
5.300000E+03	9.508597E-15	2.608157E-16
5.310000E+03	9.551821E-15	2.593698E-16
5.320000E+03	9.592542E-15	2.587316E-16
5.330000E+03	9.627436E-15	2.586941E-16
5.340000E+03	9.653048E-15	2.590201E-16
5.350000E+03	9.665953E-15	2.595591E-16
5.360000E+03	9.662940E-15	2.599489E-16
5.370000E+03	9.641590E-15	2.600093E-16
5.380000E+03	9.600739E-15	2.597620E-16
5.390000E+03	9.541089E-15	2.590870E-16
5.400000E+03	9.465990E-15	2.580538E-16
5.410000E+03	9.381492E-15	2.568133E-16
5.420000E+03	9.296139E-15	2.551609E-16
5.430000E+03	9.219493E-15	2.528751E-16
5.440000E+03	9.160038E-15	2.497625E-16
5.450000E+03	9.123448E-15	2.453897E-16
5.460000E+03	9.112114E-15	2.396033E-16
5.470000E+03	9.124366E-15	2.329560E-16
5.480000E+03	9.154378E-15	2.268797E-16
5.490000E+03	9.193594E-15	2.241016E-16
5.500000E+03	9.230915E-15	2.264900E-16
5.510000E+03	9.250948E-15	2.314562E-16
5.520000E+03	9.241329E-15	2.363707E-16
5.530000E+03	9.196262E-15	2.398918E-16
5.540000E+03	9.118238E-15	2.414973E-16
5.550000E+03	9.016791E-15	2.414788E-16
5.560000E+03	8.905920E-15	2.405661E-16
5.570000E+03	8.800938E-15	2.392962E-16
5.580000E+03	8.716660E-15	2.382141E-16
5.590000E+03	8.664023E-15	2.377649E-16
5.600000E+03	8.648753E-15	2.379567E-16
5.610000E+03	8.671303E-15	2.387375E-16
5.620000E+03	8.727105E-15	2.400957E-16
5.630000E+03	8.807441E-15	2.418353E-16
5.640000E+03	8.900494E-15	2.438797E-16
5.650000E+03	8.993492E-15	2.461930E-16
5.660000E+03	9.074371E-15	2.484035E-16
5.670000E+03	9.133719E-15	2.502272E-16
5.680000E+03	9.165376E-15	2.515218E-16
5.690000E+03	9.167760E-15	2.519749E-16
5.700000E+03	9.143062E-15	2.514932E-16
5.710000E+03	9.095920E-15	2.502479E-16
5.720000E+03	9.032594E-15	2.483190E-16
5.730000E+03	8.959567E-15	2.459659E-16
5.740000E+03	8.882940E-15	2.435906E-16
5.750000E+03	8.807769E-15	2.413885E-16
5.760000E+03	8.738159E-15	2.396495E-16
5.770000E+03	8.677327E-15	2.386422E-16
5.780000E+03	8.627729E-15	2.382334E-16
5.790000E+03	8.590928E-15	2.383010E-16
5.800000E+03	8.567774E-15	2.387979E-16
5.810000E+03	8.557847E-15	2.394210E-16
5.820000E+03	8.560328E-15	2.400140E-16
5.830000E+03	8.572976E-15	2.405855E-16
5.840000E+03	8.593182E-15	2.410265E-16
5.850000E+03	8.617348E-15	2.413973E-16
5.860000E+03	8.641633E-15	2.418355E-16
5.870000E+03	8.662190E-15	2.421125E-16
5.880000E+03	8.675343E-15	2.420098E-16
5.890000E+03	8.678783E-15	2.414924E-16
5.900000E+03	8.671698E-15	2.404307E-16
5.910000E+03	8.654715E-15	2.388792E-16
5.920000E+03	8.630193E-15	2.370816E-16
5.930000E+03	8.601576E-15	2.351625E-16
5.940000E+03	8.572773E-15	2.333928E-16
5.950000E+03	8.547084E-15	2.320484E-16
5.960000E+03	8.527072E-15	2.310552E-16
5.970000E+03	8.513657E-15	2.303782E-16
5.980000E+03	8.506672E-15	2.300395E-16
5.990000E+03	8.504491E-15	2.297281E-16
6.000000E+03	8.504778E-15	2.292128E-16
6.010000E+03	8.505154E-15	2.284665E-16
6.020000E+03	8.503687E-15	2.273754E-16
6.030000E+03	8.499376E-15	2.260304E-16
6.040000E+03	8.491952E-15	2.246616E-16
6.050000E+03	8.482140E-15	2.233106E-16
6.060000E+03	8.471069E-15	2.221613E-16
6.070000E+03	8.459545E-15	2.214358E-16
6.080000E+03	8.447454E-15	2.209824E-16
6.090000E+03	8.434386E-15	2.206994E-16
6.100000E+03	8.419276E-15	2.204877E-16
6.110000E+03	8.400987E-15	2.198514E-16
6.120000E+03	8.378929E-15	2.184293E-16
6.130000E+03	8.353580E-15	2.162971E-16
6.140000E+03	8.326702E-15	2.137701E-16
6.150000E+03	8.300792E-15	2.115398E-16
6.160000E+03	8.278564E-15	2.101848E-16
6.170000E+03	8.262077E-15	2.095682E-16
6.180000E+03	8.251998E-15	2.094596E-16
6.190000E+03	8.246404E-15	2.097134E-16
6.200000E+03	8.240640E-15	2.099210E-16
6.210000E+03	8.228858E-15	2.099128E-16
6.220000E+03	8.206346E-15	2.097776E-16
6.230000E+03	8.171200E-15	2.093895E-16
6.240000E+03	8.124819E-15	2.087885E-16
6.250000E+03	8.072508E-15	2.081301E-16
6.260000E+03	8.022115E-15	2.071558E-16
6.270000E+03	7.982140E-15	2.056392E-16
6.280000E+03	7.958729E-15	2.036484E-16
6.290000E+03	7.953127E-15	2.013089E-16
6.300000E+03	7.959928E-15	1.989396E-16
6.310000E+03	7.965907E-15	1.967699E-16
6.320000E+03	7.949422E-15	1.945155E-16
6.330000E+03	7.884622E-15	1.918748E-16
6.340000E+03	7.746993E-15	1.884999E-16
6.350000E+03	7.520367E-15	1.836746E-16
6.360000E+03	7.202883E-15	1.770289E-16
6.370000E+03	6.811564E-15	1.688074E-16
6.380000E+03	6.380601E-15	1.595385E-16
6.390000E+03	5.953643E-15	1.502588E-16
6.400000E+03	5.575097E-15	1.422735E-16
6.410000E+03	5.284727E-15	1.367152E-16
6.420000E+03	5.112825E-15	1.346445E-16
6.430000E+03	5.078221E-15	1.367503E-16
6.440000E+03	5.189374E-15	1.428939E-16
6.450000E+03	5.448484E-15	1.524514E-16
6.460000E+03	5.852253E-15	1.644931E-16
6.470000E+03	6.389474E-15	1.774820E-16
6.480000E+03	7.038795E-15	1.893030E-16
6.490000E+03	7.770261E-15	1.976340E-16
6.500000E+03	8.551434E-15	2.007103E-16
6.510000E+03	9.358685E-15	1.991740E-16
6.520000E+03	1.019681E-14	1.987423E-16
6.530000E+03	1.112145E-14	2.122283E-16
6.540000E+03	1.213972E-14	2.466697E-16
6.550000E+03	1.312383E-14	2.919566E-16
6.560000E+03	1.395293E-14	3.364873E-16
6.570000E+03	1.454006E-14	3.719548E-16
6.580000E+03	1.483935E-14	3.939259E-16
6.590000E+03	1.484905E-14	4.011005E-16
6.600000E+03	1.460342E-14	3.951077E-16
6.610000E+03	1.415875E-14	3.795748E-16
6.620000E+03	1.358115E-14	3.587074E-16
6.630000E+03	1.293368E-14	3.366576E-16
6.640000E+03	1.226769E-14	3.162861E-16
6.650000E+03	1.162011E-14	2.984096E-16
6.660000E+03	1.101323E-14	2.830770E-16
6.670000E+03	1.045915E-14	2.700985E-16
6.680000E+03	9.961521E-15	2.587268E-16
6.690000E+03	9.519608E-15	2.485040E-16
6.700000E+03	9.130582E-15	2.393448E-16
6.710000E+03	8.792049E-15	2.310447E-16
6.720000E+03	8.501186E-15	2.236315E-16
6.730000E+03	8.255272E-15	2.172945E-16
6.740000E+03	8.050866E-15	2.119275E-16
6.750000E+03	7.883655E-15	2.075480E-16
6.760000E+03	7.747919E-15	2.042532E-16
6.770000E+03	7.636553E-15	2.018442E-16
6.780000E+03	7.541508E-15	2.002787E-16
6.790000E+03	7.454107E-15	1.996481E-16
6.800000E+03	7.366641E-15	1.997863E-16
6.810000E+03	7.272787E-15	2.006435E-16
6.820000E+03	7.169581E-15	2.022349E-16
6.830000E+03	7.058009E-15	2.041293E-16
6.840000E+03	6.942551E-15	2.058200E-16
6.850000E+03	6.829457E-15	2.069394E-16
6.860000E+03	6.725524E-15	2.070527E-16
6.870000E+03	6.637809E-15	2.059560E-16
6.880000E+03	6.571534E-15	2.038934E-16
6.890000E+03	6.530476E-15	2.015099E-16
6.900000E+03	6.515573E-15	1.996845E-16
6.910000E+03	6.525062E-15	1.990531E-16
6.920000E+03	6.553398E-15	1.995685E-16
6.930000E+03	6.593008E-15	2.008839E-16
6.940000E+03	6.635505E-15	2.026049E-16
6.950000E+03	6.673431E-15	2.042522E-16
6.960000E+03	6.700663E-15	2.054901E-16
6.970000E+03	6.713509E-15	2.061312E-16
6.980000E+03	6.710582E-15	2.058993E-16
6.990000E+03	6.693176E-15	2.046640E-16
7.000000E+03	6.663828E-15	2.024683E-16
7.010000E+03	6.626084E-15	1.993848E-16
7.020000E+03	6.583604E-15	1.957008E-16
7.030000E+03	6.539778E-15	1.918971E-16
7.040000E+03	6.496951E-15	1.884360E-16
7.050000E+03	6.456424E-15	1.858924E-16
7.060000E+03	6.418926E-15	1.846862E-16
7.070000E+03	6.384361E-15	1.846811E-16
7.080000E+03	6.352285E-15	1.855821E-16
7.090000E+03	6.322118E-15	1.870983E-16
7.100000E+03	6.292953E-15	1.887195E-16
7.110000E+03	6.264483E-15	1.900227E-16
7.120000E+03	6.236351E-15	1.908018E-16
7.130000E+03	6.208937E-15	1.909566E-16
7.140000E+03	6.182838E-15	1.906398E-16
7.150000E+03	6.158678E-15	1.902314E-16
7.160000E+03	6.136750E-15	1.901103E-16
7.170000E+03	6.117126E-15	1.906878E-16
7.180000E+03	6.099573E-15	1.921323E-16
7.190000E+03	6.083187E-15	1.940067E-16
7.200000E+03	6.066950E-15	1.956392E-16
7.210000E+03	6.049557E-15	1.964961E-16
7.220000E+03	6.029906E-15	1.962499E-16
7.230000E+03	6.007226E-15	1.949108E-16
7.240000E+03	5.981232E-15	1.928015E-16
7.250000E+03	5.952617E-15	1.904167E-16
7.260000E+03	5.922242E-15	1.883907E-16
7.270000E+03	5.891082E-15	1.872242E-16
7.280000E+03	5.860167E-15	1.869870E-16
7.290000E+03	5.830103E-15	1.875283E-16
7.300000E+03	5.801523E-15	1.885654E-16
7.310000E+03	5.774281E-15	1.895370E-16
7.320000E+03	5.748587E-15	1.899255E-16
7.330000E+03	5.724427E-15	1.894627E-16
7.340000E+03	5.701599E-15	1.880877E-16
7.350000E+03	5.680293E-15	1.859737E-16
7.360000E+03	5.660273E-15	1.833164E-16
7.370000E+03	5.641258E-15	1.801535E-16
7.380000E+03	5.622510E-15	1.765714E-16
7.390000E+03	5.603551E-15	1.728582E-16
7.400000E+03	5.583907E-15	1.694291E-16
7.410000E+03	5.562816E-15	1.668166E-16
7.420000E+03	5.539931E-15	1.652670E-16
7.430000E+03	5.514521E-15	1.643203E-16
7.440000E+03	5.486209E-15	1.632903E-16
7.450000E+03	5.454594E-15	1.616695E-16
7.460000E+03	5.419422E-15	1.591582E-16
7.470000E+03	5.380629E-15	1.558382E-16
7.480000E+03	5.338691E-15	1.521505E-16
7.490000E+03	5.293980E-15	1.487507E-16
7.500000E+03	5.245854E-15	1.466242E-16
7.510000E+03	5.190556E-15	1.466547E-16
7.520000E+03	5.121395E-15	1.491482E-16
7.530000E+03	5.031106E-15	1.541699E-16
7.540000E+03	4.915953E-15	1.614216E-16
7.550000E+03	4.777484E-15	1.696799E-16
7.560000E+03	4.622081E-15	1.772763E-16
7.570000E+03	4.458555E-15	1.828811E-16
7.580000E+03	4.296628E-15	1.857723E-16
7.590000E+03	4.145691E-15	1.857912E-16
7.600000E+03	4.013477E-15	1.831755E-16
7.610000E+03	3.906216E-15	1.784133E-16
7.620000E+03	3.828240E-15	1.720984E-16
7.630000E+03	3.782108E-15	1.648490E-16
7.640000E+03	3.768295E-15	1.572614E-16
7.650000E+03	3.785730E-15	1.499534E-16
7.660000E+03	3.831146E-15	1.435538E-16
7.670000E+03	3.899466E-15	1.387276E-16
7.680000E+03	3.984371E-15	1.361098E-16
7.690000E+03	4.079579E-15	1.359719E-16
7.700000E+03	4.180051E-15	1.379754E-16
7.710000E+03	4.281867E-15	1.414417E-16
7.720000E+03	4.381793E-15	1.456015E-16
7.730000E+03	4.476789E-15	1.495980E-16
7.740000E+03	4.563933E-15	1.527027E-16
7.750000E+03	4.640103E-15	1.545254E-16
7.760000E+03	4.702783E-15	1.550763E-16
