#wls	flux	fluxerr
1.600000E+03	1.236900E-17	1.616872E-17
1.640000E+03	1.261979E-17	1.648523E-17
1.680000E+03	1.288391E-17	1.681719E-17
1.720000E+03	1.316197E-17	1.716507E-17
1.760000E+03	1.345087E-17	1.752446E-17
1.800000E+03	1.375508E-17	1.790074E-17
1.840000E+03	1.407537E-17	1.829444E-17
1.880000E+03	1.441262E-17	1.870610E-17
1.920000E+03	1.476392E-17	1.913129E-17
1.960000E+03	1.513801E-17	1.958054E-17
2.000000E+03	1.552827E-17	2.004440E-17
2.040000E+03	1.594375E-17	2.053351E-17
2.080000E+03	1.637795E-17	2.103827E-17
2.120000E+03	1.684032E-17	2.156940E-17
2.160000E+03	1.732854E-17	2.212230E-17
2.200000E+03	1.784443E-17	2.269738E-17
2.240000E+03	1.839414E-17	2.330023E-17
2.280000E+03	1.897582E-17	2.392592E-17
2.320000E+03	1.959616E-17	2.457988E-17
2.360000E+03	2.025372E-17	2.525680E-17
2.400000E+03	2.096027E-17	2.596725E-17
2.440000E+03	2.171509E-17	2.670552E-17
2.480000E+03	2.252216E-17	2.747089E-17
2.520000E+03	2.338591E-17	2.826233E-17
2.560000E+03	2.431603E-17	2.908391E-17
2.600000E+03	2.531364E-17	2.992808E-17
2.640000E+03	2.639489E-17	3.080352E-17
2.680000E+03	2.756268E-17	3.170130E-17
2.720000E+03	2.883082E-17	3.262292E-17
2.760000E+03	3.020961E-17	3.356311E-17
2.800000E+03	3.171099E-17	3.451521E-17
2.840000E+03	3.335421E-17	3.547680E-17
2.880000E+03	3.515009E-17	3.643178E-17
2.920000E+03	3.713484E-17	3.738501E-17
2.960000E+03	3.931994E-17	3.830897E-17
3.000000E+03	4.174425E-17	3.919572E-17
3.010000E+03	4.239138E-17	3.940883E-17
3.020000E+03	4.305283E-17	3.961475E-17
3.030000E+03	4.373551E-17	3.981886E-17
3.040000E+03	4.444012E-17	4.002065E-17
3.050000E+03	4.516082E-17	4.021376E-17
3.060000E+03	4.589819E-17	4.039766E-17
3.070000E+03	4.665946E-17	4.057758E-17
3.080000E+03	4.744545E-17	4.075288E-17
3.090000E+03	4.825699E-17	4.092288E-17
3.100000E+03	4.908120E-17	4.107535E-17
3.110000E+03	4.993939E-17	4.122683E-17
3.120000E+03	5.081866E-17	4.136503E-17
3.130000E+03	5.172685E-17	4.149482E-17
3.140000E+03	5.265778E-17	4.160963E-17
3.150000E+03	5.361951E-17	4.171420E-17
3.160000E+03	5.461308E-17	4.180748E-17
3.170000E+03	5.563217E-17	4.188280E-17
3.180000E+03	5.668516E-17	4.194462E-17
3.190000E+03	5.777322E-17	4.199170E-17
3.200000E+03	5.888981E-17	4.201723E-17
3.210000E+03	6.004368E-17	4.202537E-17
3.220000E+03	6.123605E-17	4.201462E-17
3.230000E+03	6.246817E-17	4.198341E-17
3.240000E+03	6.373321E-17	4.192473E-17
3.250000E+03	6.504035E-17	4.184222E-17
3.260000E+03	6.639083E-17	4.173397E-17
3.270000E+03	6.778594E-17	4.159800E-17
3.280000E+03	6.921837E-17	4.142709E-17
3.290000E+03	7.070628E-17	4.122926E-17
3.300000E+03	7.223365E-17	4.099203E-17
3.310000E+03	7.381009E-17	4.071803E-17
3.320000E+03	7.542758E-17	4.039985E-17
3.330000E+03	7.710492E-17	4.004451E-17
3.340000E+03	7.883396E-17	3.964432E-17
3.350000E+03	8.060586E-17	3.919178E-17
3.360000E+03	8.243013E-17	3.868867E-17
3.370000E+03	8.431657E-17	3.813637E-17
3.380000E+03	8.624577E-17	3.752297E-17
3.390000E+03	8.822677E-17	3.684992E-17
3.400000E+03	9.025867E-17	3.611431E-17
3.410000E+03	9.234015E-17	3.531338E-17
3.420000E+03	9.446937E-17	3.444463E-17
3.430000E+03	9.665457E-17	3.350963E-17
3.440000E+03	9.887176E-17	3.249935E-17
3.450000E+03	1.011278E-16	3.141684E-17
3.460000E+03	1.034183E-16	3.026238E-17
3.470000E+03	1.057384E-16	2.903770E-17
3.480000E+03	1.080938E-16	2.774935E-17
3.490000E+03	1.104555E-16	2.639749E-17
3.500000E+03	1.128395E-16	2.499733E-17
3.510000E+03	1.152152E-16	2.355761E-17
3.520000E+03	1.175981E-16	2.210339E-17
3.530000E+03	1.199686E-16	2.066009E-17
3.540000E+03	1.223311E-16	1.926786E-17
3.550000E+03	1.246536E-16	1.797355E-17
3.560000E+03	1.269415E-16	1.684408E-17
3.570000E+03	1.292016E-16	1.595812E-17
3.580000E+03	1.314172E-16	1.539531E-17
3.590000E+03	1.335985E-16	1.522663E-17
3.600000E+03	1.357180E-16	1.548466E-17
3.610000E+03	1.377933E-16	1.614978E-17
3.620000E+03	1.398019E-16	1.715580E-17
3.630000E+03	1.417486E-16	1.842272E-17
3.640000E+03	1.436005E-16	1.986600E-17
3.650000E+03	1.453785E-16	2.141787E-17
3.660000E+03	1.470786E-16	2.302029E-17
3.670000E+03	1.486843E-16	2.462518E-17
3.680000E+03	1.501933E-16	2.619655E-17
3.690000E+03	1.516035E-16	2.770664E-17
3.700000E+03	1.529262E-16	2.913674E-17
3.710000E+03	1.541597E-16	3.047106E-17
3.720000E+03	1.552887E-16	3.169516E-17
3.730000E+03	1.563108E-16	3.280036E-17
3.740000E+03	1.572363E-16	3.378353E-17
3.750000E+03	1.580491E-16	3.463824E-17
3.760000E+03	1.587583E-16	3.536554E-17
3.770000E+03	1.593468E-16	3.596232E-17
3.780000E+03	1.598233E-16	3.643254E-17
3.790000E+03	1.601701E-16	3.677543E-17
3.800000E+03	1.603956E-16	3.699696E-17
3.810000E+03	1.604827E-16	3.709803E-17
3.820000E+03	1.604400E-16	3.708599E-17
3.830000E+03	1.602643E-16	3.696576E-17
3.840000E+03	1.599411E-16	3.673994E-17
3.850000E+03	1.594820E-16	3.641717E-17
3.860000E+03	1.588756E-16	3.600090E-17
3.870000E+03	1.581366E-16	3.550040E-17
3.880000E+03	1.572691E-16	3.492245E-17
3.890000E+03	1.562685E-16	3.427171E-17
3.900000E+03	1.551549E-16	3.355826E-17
3.910000E+03	1.539285E-16	3.278755E-17
3.920000E+03	1.526239E-16	3.197238E-17
3.930000E+03	1.512345E-16	3.111662E-17
3.940000E+03	1.497774E-16	3.022915E-17
3.950000E+03	1.482814E-16	2.932113E-17
3.960000E+03	1.467654E-16	2.840159E-17
3.970000E+03	1.452490E-16	2.747965E-17
3.980000E+03	1.437421E-16	2.656262E-17
3.990000E+03	1.422737E-16	2.566127E-17
4.000000E+03	1.408615E-16	2.478406E-17
4.010000E+03	1.395215E-16	2.393887E-17
4.020000E+03	1.382585E-16	2.313133E-17
4.030000E+03	1.370921E-16	2.236916E-17
4.040000E+03	1.360215E-16	2.165611E-17
4.050000E+03	1.350679E-16	2.099895E-17
4.060000E+03	1.342160E-16	2.039798E-17
4.070000E+03	1.334732E-16	1.985651E-17
4.080000E+03	1.328291E-16	1.937441E-17
4.090000E+03	1.322882E-16	1.895302E-17
4.100000E+03	1.318473E-16	1.859152E-17
4.110000E+03	1.315039E-16	1.828814E-17
4.120000E+03	1.312500E-16	1.803909E-17
4.130000E+03	1.310946E-16	1.784165E-17
4.140000E+03	1.310420E-16	1.769096E-17
4.150000E+03	1.310986E-16	1.758116E-17
4.160000E+03	1.312660E-16	1.750449E-17
4.170000E+03	1.315621E-16	1.745437E-17
4.180000E+03	1.319915E-16	1.742167E-17
4.190000E+03	1.325813E-16	1.739963E-17
4.200000E+03	1.333228E-16	1.737644E-17
4.210000E+03	1.342499E-16	1.734554E-17
4.220000E+03	1.353601E-16	1.729542E-17
4.230000E+03	1.366704E-16	1.721688E-17
4.240000E+03	1.381817E-16	1.709846E-17
4.250000E+03	1.399059E-16	1.692984E-17
4.260000E+03	1.418436E-16	1.669924E-17
4.270000E+03	1.439835E-16	1.639356E-17
4.280000E+03	1.463149E-16	1.600035E-17
4.290000E+03	1.488339E-16	1.550907E-17
4.300000E+03	1.514925E-16	1.490662E-17
4.310000E+03	1.542767E-16	1.418724E-17
4.320000E+03	1.571191E-16	1.334607E-17
4.330000E+03	1.599798E-16	1.239044E-17
4.340000E+03	1.627964E-16	1.134070E-17
4.350000E+03	1.654938E-16	1.024015E-17
4.360000E+03	1.680030E-16	9.170176E-18
4.370000E+03	1.702675E-16	8.267681E-18
4.380000E+03	1.722257E-16	7.728505E-18
4.390000E+03	1.738493E-16	7.749529E-18
4.400000E+03	1.751420E-16	8.328501E-18
4.410000E+03	1.761914E-16	9.271907E-18
4.420000E+03	1.770901E-16	1.038829E-17
4.430000E+03	1.779275E-16	1.154605E-17
4.440000E+03	1.788292E-16	1.267093E-17
4.450000E+03	1.798970E-16	1.372451E-17
4.460000E+03	1.812345E-16	1.469133E-17
4.470000E+03	1.829347E-16	1.556871E-17
4.480000E+03	1.850772E-16	1.636069E-17
4.490000E+03	1.877247E-16	1.707411E-17
4.500000E+03	1.909211E-16	1.771615E-17
4.510000E+03	1.946880E-16	1.829295E-17
4.520000E+03	1.990224E-16	1.880890E-17
4.530000E+03	2.038938E-16	1.926653E-17
4.540000E+03	2.092427E-16	1.966694E-17
4.550000E+03	2.149791E-16	2.001051E-17
4.560000E+03	2.209842E-16	2.029790E-17
4.570000E+03	2.271050E-16	2.053023E-17
4.580000E+03	2.331864E-16	2.071221E-17
4.590000E+03	2.390558E-16	2.085009E-17
4.600000E+03	2.445351E-16	2.095135E-17
4.610000E+03	2.494807E-16	2.102609E-17
4.620000E+03	2.537707E-16	2.108350E-17
4.630000E+03	2.573165E-16	2.113083E-17
4.640000E+03	2.600968E-16	2.117509E-17
4.650000E+03	2.621236E-16	2.122034E-17
4.660000E+03	2.634759E-16	2.127152E-17
4.670000E+03	2.642559E-16	2.133271E-17
4.680000E+03	2.646066E-16	2.141029E-17
4.690000E+03	2.647012E-16	2.151340E-17
4.700000E+03	2.647051E-16	2.165147E-17
4.710000E+03	2.647932E-16	2.183555E-17
4.720000E+03	2.651417E-16	2.207681E-17
4.730000E+03	2.658942E-16	2.238262E-17
4.740000E+03	2.671830E-16	2.275699E-17
4.750000E+03	2.691153E-16	2.319838E-17
4.760000E+03	2.717690E-16	2.369894E-17
4.770000E+03	2.751885E-16	2.424447E-17
4.780000E+03	2.793811E-16	2.481516E-17
4.790000E+03	2.843132E-16	2.538693E-17
4.800000E+03	2.899074E-16	2.593330E-17
4.810000E+03	2.960412E-16	2.642762E-17
4.820000E+03	3.025385E-16	2.684466E-17
4.830000E+03	3.092107E-16	2.716636E-17
4.840000E+03	3.158015E-16	2.737835E-17
4.850000E+03	3.220654E-16	2.747713E-17
4.860000E+03	3.277504E-16	2.746738E-17
4.870000E+03	3.326289E-16	2.736197E-17
4.880000E+03	3.365107E-16	2.717927E-17
4.890000E+03	3.392802E-16	2.694192E-17
4.900000E+03	3.409177E-16	2.667442E-17
4.910000E+03	3.414317E-16	2.639485E-17
4.920000E+03	3.409552E-16	2.612104E-17
4.930000E+03	3.396187E-16	2.586080E-17
4.940000E+03	3.375917E-16	2.561655E-17
4.950000E+03	3.350423E-16	2.538439E-17
4.960000E+03	3.320825E-16	2.515240E-17
4.970000E+03	3.287768E-16	2.490387E-17
4.980000E+03	3.251323E-16	2.461906E-17
4.990000E+03	3.210740E-16	2.427583E-17
5.000000E+03	3.164873E-16	2.385501E-17
5.010000E+03	3.112419E-16	2.334381E-17
5.020000E+03	3.052002E-16	2.273699E-17
5.030000E+03	2.982797E-16	2.204066E-17
5.040000E+03	2.904788E-16	2.127170E-17
5.050000E+03	2.819017E-16	2.045600E-17
5.060000E+03	2.727761E-16	1.962562E-17
5.070000E+03	2.634157E-16	1.881305E-17
5.080000E+03	2.542433E-16	1.805153E-17
5.090000E+03	2.457018E-16	1.736965E-17
5.100000E+03	2.382311E-16	1.679205E-17
5.110000E+03	2.322449E-16	1.634044E-17
5.120000E+03	2.280647E-16	1.603080E-17
5.130000E+03	2.259199E-16	1.587413E-17
5.140000E+03	2.259557E-16	1.587681E-17
5.150000E+03	2.281939E-16	1.603722E-17
5.160000E+03	2.325471E-16	1.634612E-17
5.170000E+03	2.388267E-16	1.678682E-17
5.180000E+03	2.467271E-16	1.733411E-17
5.190000E+03	2.558469E-16	1.795627E-17
5.200000E+03	2.656818E-16	1.861523E-17
5.210000E+03	2.757264E-16	1.927433E-17
5.220000E+03	2.854592E-16	1.989755E-17
5.230000E+03	2.944573E-16	2.045726E-17
5.240000E+03	3.023908E-16	2.093335E-17
5.250000E+03	3.090881E-16	2.131742E-17
5.260000E+03	3.145360E-16	2.161222E-17
5.270000E+03	3.188094E-16	2.182628E-17
5.280000E+03	3.220809E-16	2.197380E-17
5.290000E+03	3.245482E-16	2.206877E-17
5.300000E+03	3.263981E-16	2.212184E-17
5.310000E+03	3.278078E-16	2.214001E-17
5.320000E+03	3.289072E-16	2.212425E-17
5.330000E+03	3.298191E-16	2.207253E-17
5.340000E+03	3.306068E-16	2.197697E-17
5.350000E+03	3.313633E-16	2.183027E-17
5.360000E+03	3.321350E-16	2.162103E-17
5.370000E+03	3.329748E-16	2.133712E-17
5.380000E+03	3.339325E-16	2.096462E-17
5.390000E+03	3.350362E-16	2.048578E-17
5.400000E+03	3.362890E-16	1.987812E-17
5.410000E+03	3.376909E-16	1.911530E-17
5.420000E+03	3.392138E-16	1.816644E-17
5.430000E+03	3.408395E-16	1.700103E-17
5.440000E+03	3.425417E-16	1.559387E-17
5.450000E+03	3.443243E-16	1.393881E-17
5.460000E+03	3.461967E-16	1.207251E-17
5.470000E+03	3.481937E-16	1.013325E-17
5.480000E+03	3.503695E-16	8.493034E-18
5.490000E+03	3.527743E-16	7.915666E-18
5.500000E+03	3.553440E-16	8.927075E-18
5.510000E+03	3.577633E-16	1.083992E-17
5.520000E+03	3.596318E-16	1.296302E-17
5.530000E+03	3.606268E-16	1.495922E-17
5.540000E+03	3.604835E-16	1.668359E-17
5.550000E+03	3.590698E-16	1.808232E-17
5.560000E+03	3.563822E-16	1.914934E-17
5.570000E+03	3.525718E-16	1.990894E-17
5.580000E+03	3.479171E-16	2.040467E-17
5.590000E+03	3.427904E-16	2.069145E-17
5.600000E+03	3.375846E-16	2.082675E-17
5.610000E+03	3.326825E-16	2.086554E-17
5.620000E+03	3.284040E-16	2.085499E-17
5.630000E+03	3.249803E-16	2.083186E-17
5.640000E+03	3.225092E-16	2.081949E-17
5.650000E+03	3.209951E-16	2.083088E-17
5.660000E+03	3.203091E-16	2.086705E-17
5.670000E+03	3.202361E-16	2.092129E-17
5.680000E+03	3.204651E-16	2.097961E-17
5.690000E+03	3.206570E-16	2.102594E-17
5.700000E+03	3.204611E-16	2.104338E-17
5.710000E+03	3.195368E-16	2.101560E-17
5.720000E+03	3.176440E-16	2.093249E-17
5.730000E+03	3.146447E-16	2.079007E-17
5.740000E+03	3.105617E-16	2.059396E-17
5.750000E+03	3.056197E-16	2.036150E-17
5.760000E+03	3.002097E-16	2.011828E-17
5.770000E+03	2.948800E-16	1.989675E-17
5.780000E+03	2.903039E-16	1.973379E-17
5.790000E+03	2.871791E-16	1.966467E-17
5.800000E+03	2.862174E-16	1.972369E-17
5.810000E+03	2.880570E-16	1.993981E-17
5.820000E+03	2.932704E-16	2.033849E-17
5.830000E+03	3.023101E-16	2.093894E-17
5.840000E+03	3.154637E-16	2.175181E-17
5.850000E+03	3.327732E-16	2.277453E-17
5.860000E+03	3.539202E-16	2.398526E-17
5.870000E+03	3.780967E-16	2.533630E-17
5.880000E+03	4.039406E-16	2.675204E-17
5.890000E+03	4.295389E-16	2.812959E-17
5.900000E+03	4.526209E-16	2.934867E-17
5.910000E+03	4.709168E-16	3.028865E-17
5.920000E+03	4.825987E-16	3.084975E-17
5.930000E+03	4.867005E-16	3.097557E-17
5.940000E+03	4.832663E-16	3.066343E-17
5.950000E+03	4.733068E-16	2.996653E-17
5.960000E+03	4.584302E-16	2.897580E-17
5.970000E+03	4.405135E-16	2.780199E-17
5.980000E+03	4.213148E-16	2.655152E-17
5.990000E+03	4.022887E-16	2.531407E-17
6.000000E+03	3.844794E-16	2.415523E-17
6.010000E+03	3.685440E-16	2.311783E-17
6.020000E+03	3.548505E-16	2.222797E-17
6.030000E+03	3.435479E-16	2.149917E-17
6.040000E+03	3.346494E-16	2.093680E-17
6.050000E+03	3.281102E-16	2.054190E-17
6.060000E+03	3.238412E-16	2.031095E-17
6.070000E+03	3.217222E-16	2.023569E-17
6.080000E+03	3.216176E-16	2.030373E-17
6.090000E+03	3.233431E-16	2.049687E-17
6.100000E+03	3.266787E-16	2.079302E-17
6.110000E+03	3.313400E-16	2.116562E-17
6.120000E+03	3.370057E-16	2.158634E-17
6.130000E+03	3.433180E-16	2.202574E-17
6.140000E+03	3.499138E-16	2.245579E-17
6.150000E+03	3.564859E-16	2.285438E-17
6.160000E+03	3.628099E-16	2.320762E-17
6.170000E+03	3.687788E-16	2.351260E-17
6.180000E+03	3.744377E-16	2.377960E-17
6.190000E+03	3.799440E-16	2.402888E-17
6.200000E+03	3.855530E-16	2.428828E-17
6.210000E+03	3.915356E-16	2.458630E-17
6.220000E+03	3.981094E-16	2.494594E-17
6.230000E+03	4.053985E-16	2.538105E-17
6.240000E+03	4.133618E-16	2.589136E-17
6.250000E+03	4.218091E-16	2.646345E-17
6.260000E+03	4.303468E-16	2.706750E-17
6.270000E+03	4.384901E-16	2.766437E-17
6.280000E+03	4.456286E-16	2.820397E-17
6.290000E+03	4.511537E-16	2.863447E-17
6.300000E+03	4.544993E-16	2.890709E-17
6.310000E+03	4.552193E-16	2.898394E-17
6.320000E+03	4.530359E-16	2.884385E-17
6.330000E+03	4.479021E-16	2.848785E-17
6.340000E+03	4.399882E-16	2.793775E-17
6.350000E+03	4.296678E-16	2.723259E-17
6.360000E+03	4.175127E-16	2.642399E-17
6.370000E+03	4.041860E-16	2.556479E-17
6.380000E+03	3.904389E-16	2.470494E-17
6.390000E+03	3.770240E-16	2.388363E-17
6.400000E+03	3.646591E-16	2.312599E-17
6.410000E+03	3.539978E-16	2.244151E-17
6.420000E+03	3.456179E-16	2.182437E-17
6.430000E+03	3.400261E-16	2.125469E-17
6.440000E+03	3.376765E-16	2.069989E-17
6.450000E+03	3.389977E-16	2.011517E-17
6.460000E+03	3.444235E-16	1.944274E-17
6.470000E+03	3.544207E-16	1.861029E-17
6.480000E+03	3.695087E-16	1.753059E-17
6.490000E+03	3.902692E-16	1.610855E-17
6.500000E+03	4.172950E-16	1.427272E-17
6.510000E+03	4.511795E-16	1.210057E-17
6.520000E+03	4.923605E-16	1.024525E-17
6.530000E+03	5.409935E-16	1.073243E-17
6.540000E+03	5.962265E-16	1.486079E-17
6.550000E+03	6.555405E-16	2.122501E-17
6.560000E+03	7.151698E-16	2.861457E-17
6.570000E+03	7.704124E-16	3.623816E-17
6.580000E+03	8.162202E-16	4.340647E-17
6.590000E+03	8.479998E-16	4.948104E-17
6.600000E+03	8.625279E-16	5.394490E-17
6.610000E+03	8.585768E-16	5.648834E-17
6.620000E+03	8.370574E-16	5.705461E-17
6.630000E+03	8.007154E-16	5.582847E-17
6.640000E+03	7.535120E-16	5.317514E-17
6.650000E+03	6.998601E-16	4.955113E-17
6.660000E+03	6.438455E-16	4.540997E-17
6.670000E+03	5.889096E-16	4.114818E-17
6.680000E+03	5.375020E-16	3.706181E-17
6.690000E+03	4.911694E-16	3.334625E-17
6.700000E+03	4.506839E-16	3.010712E-17
6.710000E+03	4.161831E-16	2.737671E-17
6.720000E+03	3.874295E-16	2.513979E-17
6.730000E+03	3.639314E-16	2.334973E-17
6.740000E+03	3.451017E-16	2.194619E-17
6.750000E+03	3.302918E-16	2.086325E-17
6.760000E+03	3.188872E-16	2.003978E-17
6.770000E+03	3.103074E-16	1.942186E-17
6.780000E+03	3.040233E-16	1.896467E-17
6.790000E+03	2.995597E-16	1.863218E-17
6.800000E+03	2.964941E-16	1.839588E-17
6.810000E+03	2.944558E-16	1.823312E-17
6.820000E+03	2.931250E-16	1.812542E-17
6.830000E+03	2.922352E-16	1.805721E-17
6.840000E+03	2.915763E-16	1.801503E-17
6.850000E+03	2.909970E-16	1.798732E-17
6.860000E+03	2.904106E-16	1.796507E-17
6.870000E+03	2.897685E-16	1.794117E-17
6.880000E+03	2.890900E-16	1.791348E-17
6.890000E+03	2.884076E-16	1.788220E-17
6.900000E+03	2.877985E-16	1.785207E-17
6.910000E+03	2.873351E-16	1.782893E-17
6.920000E+03	2.871029E-16	1.782011E-17
6.930000E+03	2.871666E-16	1.783159E-17
6.940000E+03	2.876033E-16	1.786948E-17
6.950000E+03	2.884609E-16	1.793688E-17
6.960000E+03	2.897831E-16	1.803528E-17
6.970000E+03	2.915849E-16	1.816303E-17
6.980000E+03	2.938670E-16	1.831674E-17
6.990000E+03	2.966144E-16	1.849203E-17
7.000000E+03	2.997784E-16	1.868351E-17
7.010000E+03	3.032928E-16	1.888670E-17
7.020000E+03	3.070761E-16	1.909844E-17
7.030000E+03	3.110155E-16	1.931568E-17
7.040000E+03	3.149951E-16	1.953646E-17
7.050000E+03	3.188783E-16	1.975776E-17
7.060000E+03	3.225347E-16	1.997631E-17
7.070000E+03	3.258551E-16	2.018857E-17
7.080000E+03	3.287550E-16	2.039058E-17
7.090000E+03	3.311942E-16	2.057914E-17
7.100000E+03	3.332153E-16	2.075467E-17
7.110000E+03	3.349323E-16	2.092155E-17
7.120000E+03	3.365660E-16	2.109143E-17
7.130000E+03	3.384175E-16	2.128244E-17
7.140000E+03	3.408861E-16	2.152065E-17
7.150000E+03	3.444315E-16	2.183724E-17
7.160000E+03	3.495486E-16	2.226606E-17
7.170000E+03	3.567494E-16	2.284124E-17
7.180000E+03	3.665342E-16	2.359428E-17
7.190000E+03	3.793064E-16	2.454758E-17
7.200000E+03	3.953658E-16	2.571383E-17
7.210000E+03	4.148535E-16	2.709279E-17
7.220000E+03	4.376366E-16	2.866496E-17
7.230000E+03	4.632871E-16	3.039190E-17
7.240000E+03	4.910179E-16	3.221444E-17
7.250000E+03	5.196382E-16	3.405214E-17
7.260000E+03	5.475920E-16	3.580758E-17
7.270000E+03	5.730544E-16	3.737252E-17
7.280000E+03	5.941563E-16	3.863988E-17
7.290000E+03	6.092023E-16	3.951299E-17
7.300000E+03	6.169393E-16	3.991860E-17
7.310000E+03	6.167442E-16	3.981725E-17
7.320000E+03	6.087503E-16	3.921379E-17
7.330000E+03	5.937631E-16	3.815619E-17
7.340000E+03	5.731021E-16	3.672881E-17
7.350000E+03	5.484170E-16	3.504096E-17
7.360000E+03	5.214210E-16	3.320766E-17
7.370000E+03	4.937104E-16	3.133559E-17
7.380000E+03	4.666234E-16	2.951249E-17
7.390000E+03	4.412019E-16	2.780507E-17
7.400000E+03	4.181458E-16	2.625734E-17
7.410000E+03	3.978449E-16	2.489422E-17
7.420000E+03	3.804209E-16	2.372481E-17
7.430000E+03	3.657662E-16	2.274444E-17
7.440000E+03	3.536145E-16	2.193773E-17
7.450000E+03	3.435566E-16	2.127859E-17
7.460000E+03	3.350889E-16	2.073291E-17
7.470000E+03	3.276532E-16	2.026228E-17
7.480000E+03	3.206746E-16	1.982819E-17
7.490000E+03	3.136334E-16	1.939808E-17
7.500000E+03	3.060983E-16	1.894800E-17
7.510000E+03	2.977862E-16	1.846573E-17
7.520000E+03	2.885960E-16	1.795145E-17
7.530000E+03	2.786506E-16	1.741862E-17
7.540000E+03	2.682385E-16	1.688872E-17
7.550000E+03	2.578128E-16	1.638999E-17
7.560000E+03	2.479013E-16	1.595138E-17
7.570000E+03	2.390451E-16	1.559909E-17
7.580000E+03	2.317379E-16	1.535396E-17
7.590000E+03	2.264128E-16	1.523243E-17
7.600000E+03	2.233924E-16	1.524485E-17
7.610000E+03	2.229251E-16	1.539880E-17
7.620000E+03	2.251688E-16	1.569804E-17
7.630000E+03	2.301954E-16	1.614229E-17
7.640000E+03	2.379794E-16	1.672570E-17
7.650000E+03	2.483686E-16	1.743431E-17
7.660000E+03	2.610685E-16	1.824505E-17
7.670000E+03	2.756013E-16	1.912369E-17
7.680000E+03	2.912712E-16	2.002398E-17
7.690000E+03	3.072165E-16	2.089308E-17
7.700000E+03	3.224387E-16	2.167498E-17
7.710000E+03	3.359411E-16	2.231996E-17
7.720000E+03	3.468109E-16	2.278805E-17
7.730000E+03	3.544113E-16	2.305773E-17
7.740000E+03	3.584139E-16	2.312309E-17
7.750000E+03	3.588847E-16	2.299589E-17
7.760000E+03	3.562095E-16	2.270009E-17
