#wls	flux	fluxerr
1.600000E+03	5.900445E-18	7.727517E-18
1.640000E+03	5.970147E-18	7.815197E-18
1.680000E+03	6.044666E-18	7.908580E-18
1.720000E+03	6.121754E-18	8.004626E-18
1.760000E+03	6.201623E-18	8.103504E-18
1.800000E+03	6.287009E-18	8.208659E-18
1.840000E+03	6.375687E-18	8.317032E-18
1.880000E+03	6.467928E-18	8.428811E-18
1.920000E+03	6.566584E-18	8.547512E-18
1.960000E+03	6.669460E-18	8.670040E-18
2.000000E+03	6.776907E-18	8.796592E-18
2.040000E+03	6.891923E-18	8.930751E-18
2.080000E+03	7.012353E-18	9.069360E-18
2.120000E+03	7.141316E-18	9.216041E-18
2.160000E+03	7.276694E-18	9.367573E-18
2.200000E+03	7.421749E-18	9.527600E-18
2.240000E+03	7.574405E-18	9.692808E-18
2.280000E+03	7.735304E-18	9.863284E-18
2.320000E+03	7.907964E-18	1.004266E-17
2.360000E+03	8.090391E-18	1.022738E-17
2.400000E+03	8.286313E-18	1.042102E-17
2.440000E+03	8.493802E-18	1.061979E-17
2.480000E+03	8.713826E-18	1.082339E-17
2.520000E+03	8.950489E-18	1.103511E-17
2.560000E+03	9.205087E-18	1.125445E-17
2.600000E+03	9.475857E-18	1.147680E-17
2.640000E+03	9.767373E-18	1.170493E-17
2.680000E+03	1.007466E-17	1.192968E-17
2.720000E+03	1.040919E-17	1.216098E-17
2.760000E+03	1.076618E-17	1.238882E-17
2.800000E+03	1.114743E-17	1.261039E-17
2.840000E+03	1.155852E-17	1.282637E-17
2.880000E+03	1.200185E-17	1.303274E-17
2.920000E+03	1.247612E-17	1.322056E-17
2.960000E+03	1.298381E-17	1.338403E-17
3.000000E+03	1.353170E-17	1.352046E-17
3.010000E+03	1.367366E-17	1.354777E-17
3.020000E+03	1.382228E-17	1.357662E-17
3.030000E+03	1.396930E-17	1.359865E-17
3.040000E+03	1.411890E-17	1.361784E-17
3.050000E+03	1.427543E-17	1.363811E-17
3.060000E+03	1.443041E-17	1.365113E-17
3.070000E+03	1.459250E-17	1.366492E-17
3.080000E+03	1.475308E-17	1.367115E-17
3.090000E+03	1.492096E-17	1.367780E-17
3.100000E+03	1.509184E-17	1.368061E-17
3.110000E+03	1.526129E-17	1.367537E-17
3.120000E+03	1.543835E-17	1.366998E-17
3.130000E+03	1.561861E-17	1.366020E-17
3.140000E+03	1.579752E-17	1.364184E-17
3.150000E+03	1.598438E-17	1.362272E-17
3.160000E+03	1.617466E-17	1.359861E-17
3.170000E+03	1.636845E-17	1.356931E-17
3.180000E+03	1.656103E-17	1.353069E-17
3.190000E+03	1.676203E-17	1.349041E-17
3.200000E+03	1.696680E-17	1.344430E-17
3.210000E+03	1.717543E-17	1.339215E-17
3.220000E+03	1.738799E-17	1.333373E-17
3.230000E+03	1.760461E-17	1.326882E-17
3.240000E+03	1.782537E-17	1.319721E-17
3.250000E+03	1.805039E-17	1.311868E-17
3.260000E+03	1.827977E-17	1.303300E-17
3.270000E+03	1.851887E-17	1.294364E-17
3.280000E+03	1.875738E-17	1.284301E-17
3.290000E+03	1.900061E-17	1.273463E-17
3.300000E+03	1.924870E-17	1.261830E-17
3.310000E+03	1.950177E-17	1.249385E-17
3.320000E+03	1.976549E-17	1.236460E-17
3.330000E+03	2.002902E-17	1.222343E-17
3.340000E+03	2.029798E-17	1.207375E-17
3.350000E+03	2.057823E-17	1.191880E-17
3.360000E+03	2.085858E-17	1.175187E-17
3.370000E+03	2.114485E-17	1.157637E-17
3.380000E+03	2.144314E-17	1.139549E-17
3.390000E+03	2.174188E-17	1.120308E-17
3.400000E+03	2.205315E-17	1.100559E-17
3.410000E+03	2.237127E-17	1.080023E-17
3.420000E+03	2.269025E-17	1.058461E-17
3.430000E+03	2.302264E-17	1.036521E-17
3.440000E+03	2.335622E-17	1.013717E-17
3.450000E+03	2.370385E-17	9.907122E-18
3.460000E+03	2.405953E-17	9.673599E-18
3.470000E+03	2.441697E-17	9.435727E-18
3.480000E+03	2.478954E-17	9.200709E-18
3.490000E+03	2.517104E-17	8.968440E-18
3.500000E+03	2.556182E-17	8.741939E-18
3.510000E+03	2.596221E-17	8.524804E-18
3.520000E+03	2.637260E-17	8.321263E-18
3.530000E+03	2.678626E-17	8.134038E-18
3.540000E+03	2.721770E-17	7.972993E-18
3.550000E+03	2.766035E-17	7.841947E-18
3.560000E+03	2.811464E-17	7.747260E-18
3.570000E+03	2.858105E-17	7.695320E-18
3.580000E+03	2.906002E-17	7.692142E-18
3.590000E+03	2.955206E-17	7.742908E-18
3.600000E+03	3.006542E-17	7.853359E-18
3.610000E+03	3.058497E-17	8.020079E-18
3.620000E+03	3.111871E-17	8.243477E-18
3.630000E+03	3.166695E-17	8.520533E-18
3.640000E+03	3.222998E-17	8.847198E-18
3.650000E+03	3.280811E-17	9.218796E-18
3.660000E+03	3.341017E-17	9.632854E-18
3.670000E+03	3.401951E-17	1.007962E-17
3.680000E+03	3.464483E-17	1.055675E-17
3.690000E+03	3.529542E-17	1.106265E-17
3.700000E+03	3.595379E-17	1.158781E-17
3.710000E+03	3.662909E-17	1.213128E-17
3.720000E+03	3.733104E-17	1.269298E-17
3.730000E+03	3.804131E-17	1.326373E-17
3.740000E+03	3.877919E-17	1.384747E-17
3.750000E+03	3.952571E-17	1.443504E-17
3.760000E+03	4.030081E-17	1.503142E-17
3.770000E+03	4.108486E-17	1.562738E-17
3.780000E+03	4.189843E-17	1.622884E-17
3.790000E+03	4.272121E-17	1.682632E-17
3.800000E+03	4.357442E-17	1.742660E-17
3.810000E+03	4.443701E-17	1.801991E-17
3.820000E+03	4.533089E-17	1.861378E-17
3.830000E+03	4.624553E-17	1.920278E-17
3.840000E+03	4.716959E-17	1.978103E-17
3.850000E+03	4.812604E-17	2.035709E-17
3.860000E+03	4.910369E-17	2.092530E-17
3.870000E+03	5.010258E-17	2.148477E-17
3.880000E+03	5.111039E-17	2.202931E-17
3.890000E+03	5.215156E-17	2.256860E-17
3.900000E+03	5.321386E-17	2.309662E-17
3.910000E+03	5.429714E-17	2.361252E-17
3.920000E+03	5.540118E-17	2.411546E-17
3.930000E+03	5.652571E-17	2.460459E-17
3.940000E+03	5.765666E-17	2.507305E-17
3.950000E+03	5.882083E-17	2.553176E-17
3.960000E+03	6.000428E-17	2.597389E-17
3.970000E+03	6.120648E-17	2.639839E-17
3.980000E+03	6.242687E-17	2.680419E-17
3.990000E+03	6.366485E-17	2.719011E-17
4.000000E+03	6.491980E-17	2.755492E-17
4.010000E+03	6.619110E-17	2.789728E-17
4.020000E+03	6.747813E-17	2.821580E-17
4.030000E+03	6.878033E-17	2.850896E-17
4.040000E+03	7.009718E-17	2.877519E-17
4.050000E+03	7.142828E-17	2.901282E-17
4.060000E+03	7.277334E-17	2.922008E-17
4.070000E+03	7.413221E-17	2.939514E-17
4.080000E+03	7.552227E-17	2.954284E-17
4.090000E+03	7.690937E-17	2.964761E-17
4.100000E+03	7.831102E-17	2.971411E-17
4.110000E+03	7.972791E-17	2.974014E-17
4.120000E+03	8.116093E-17	2.972336E-17
4.130000E+03	8.261122E-17	2.966133E-17
4.140000E+03	8.408007E-17	2.955144E-17
4.150000E+03	8.558821E-17	2.939755E-17
4.160000E+03	8.709888E-17	2.918333E-17
4.170000E+03	8.863260E-17	2.891227E-17
4.180000E+03	9.019080E-17	2.858087E-17
4.190000E+03	9.179524E-17	2.819166E-17
4.200000E+03	9.340619E-17	2.772785E-17
4.210000E+03	9.504440E-17	2.719145E-17
4.220000E+03	9.670989E-17	2.657778E-17
4.230000E+03	9.842384E-17	2.588760E-17
4.240000E+03	1.001418E-16	2.510410E-17
4.250000E+03	1.018832E-16	2.422786E-17
4.260000E+03	1.036681E-16	2.325869E-17
4.270000E+03	1.054479E-16	2.218099E-17
4.280000E+03	1.072410E-16	2.099531E-17
4.290000E+03	1.090429E-16	1.969760E-17
4.300000E+03	1.108730E-16	1.828885E-17
4.310000E+03	1.126789E-16	1.675949E-17
4.320000E+03	1.144799E-16	1.511525E-17
4.330000E+03	1.162976E-16	1.336492E-17
4.340000E+03	1.180794E-16	1.151638E-17
4.350000E+03	1.198485E-16	9.603471E-18
4.360000E+03	1.216308E-16	7.696674E-18
4.370000E+03	1.233756E-16	5.960404E-18
4.380000E+03	1.251113E-16	4.811362E-18
4.390000E+03	1.268681E-16	4.912266E-18
4.400000E+03	1.285946E-16	6.289681E-18
4.410000E+03	1.303177E-16	8.340523E-18
4.420000E+03	1.320662E-16	1.068105E-17
4.430000E+03	1.337863E-16	1.314546E-17
4.440000E+03	1.355081E-16	1.566518E-17
4.450000E+03	1.372635E-16	1.820939E-17
4.460000E+03	1.389989E-16	2.075199E-17
4.470000E+03	1.407467E-16	2.328496E-17
4.480000E+03	1.425402E-16	2.580666E-17
4.490000E+03	1.443238E-16	2.830234E-17
4.500000E+03	1.461294E-16	3.077387E-17
4.510000E+03	1.479891E-16	3.322607E-17
4.520000E+03	1.498423E-16	3.564411E-17
4.530000E+03	1.517178E-16	3.803295E-17
4.540000E+03	1.536445E-16	4.039940E-17
4.550000E+03	1.555554E-16	4.272565E-17
4.560000E+03	1.574760E-16	4.501751E-17
4.570000E+03	1.593999E-16	4.727264E-17
4.580000E+03	1.613522E-16	4.949840E-17
4.590000E+03	1.632598E-16	5.167216E-17
4.600000E+03	1.651472E-16	5.380046E-17
4.610000E+03	1.670065E-16	5.588014E-17
4.620000E+03	1.688647E-16	5.791984E-17
4.630000E+03	1.706477E-16	5.989378E-17
4.640000E+03	1.723841E-16	6.181080E-17
4.650000E+03	1.740700E-16	6.366889E-17
4.660000E+03	1.757029E-16	6.546656E-17
4.670000E+03	1.773169E-16	6.721625E-17
4.680000E+03	1.788416E-16	6.889110E-17
4.690000E+03	1.803131E-16	7.050426E-17
4.700000E+03	1.817333E-16	7.205621E-17
4.710000E+03	1.831046E-16	7.354776E-17
4.720000E+03	1.844296E-16	7.497986E-17
4.730000E+03	1.857107E-16	7.635354E-17
4.740000E+03	1.869502E-16	7.766971E-17
4.750000E+03	1.881496E-16	7.892909E-17
4.760000E+03	1.893095E-16	8.013206E-17
4.770000E+03	1.904299E-16	8.127861E-17
4.780000E+03	1.915093E-16	8.236830E-17
4.790000E+03	1.925455E-16	8.340020E-17
4.800000E+03	1.935351E-16	8.437292E-17
4.810000E+03	1.944740E-16	8.528469E-17
4.820000E+03	1.953571E-16	8.613340E-17
4.830000E+03	1.961792E-16	8.691669E-17
4.840000E+03	1.969347E-16	8.763213E-17
4.850000E+03	1.975803E-16	8.826039E-17
4.860000E+03	1.981866E-16	8.883297E-17
4.870000E+03	1.987115E-16	8.933112E-17
4.880000E+03	1.991516E-16	8.975335E-17
4.890000E+03	1.994669E-16	9.008163E-17
4.900000E+03	1.997326E-16	9.034989E-17
4.910000E+03	1.999117E-16	9.054154E-17
4.920000E+03	1.999691E-16	9.064068E-17
4.930000E+03	1.999847E-16	9.068363E-17
4.940000E+03	1.999269E-16	9.065609E-17
4.950000E+03	1.997659E-16	9.054464E-17
4.960000E+03	1.995862E-16	9.038762E-17
4.970000E+03	1.993238E-16	9.015599E-17
4.980000E+03	1.990653E-16	8.988897E-17
4.990000E+03	1.987493E-16	8.955874E-17
5.000000E+03	1.984271E-16	8.918826E-17
5.010000E+03	1.981499E-16	8.880024E-17
5.020000E+03	1.978589E-16	8.836784E-17
5.030000E+03	1.976058E-16	8.791374E-17
5.040000E+03	1.974417E-16	8.745985E-17
5.050000E+03	1.973080E-16	8.697913E-17
5.060000E+03	1.972546E-16	8.649256E-17
5.070000E+03	1.972941E-16	8.600413E-17
5.080000E+03	1.974376E-16	8.551694E-17
5.090000E+03	1.976949E-16	8.503308E-17
5.100000E+03	1.980739E-16	8.455350E-17
5.110000E+03	1.985806E-16	8.407793E-17
5.120000E+03	1.992186E-16	8.360478E-17
5.130000E+03	1.999894E-16	8.313114E-17
5.140000E+03	2.008920E-16	8.265272E-17
5.150000E+03	2.019230E-16	8.216390E-17
5.160000E+03	2.030765E-16	8.165780E-17
5.170000E+03	2.043444E-16	8.112635E-17
5.180000E+03	2.056795E-16	8.054597E-17
5.190000E+03	2.071434E-16	7.993577E-17
5.200000E+03	2.086856E-16	7.927050E-17
5.210000E+03	2.102536E-16	7.852494E-17
5.220000E+03	2.119068E-16	7.771598E-17
5.230000E+03	2.135534E-16	7.680428E-17
5.240000E+03	2.152533E-16	7.580615E-17
5.250000E+03	2.169140E-16	7.468351E-17
5.260000E+03	2.185973E-16	7.345277E-17
5.270000E+03	2.202117E-16	7.207791E-17
5.280000E+03	2.217825E-16	7.056330E-17
5.290000E+03	2.232979E-16	6.890086E-17
5.300000E+03	2.247872E-16	6.709525E-17
5.310000E+03	2.261623E-16	6.511615E-17
5.320000E+03	2.274551E-16	6.297036E-17
5.330000E+03	2.286592E-16	6.065339E-17
5.340000E+03	2.297695E-16	5.816165E-17
5.350000E+03	2.307816E-16	5.549238E-17
5.360000E+03	2.316923E-16	5.264370E-17
5.370000E+03	2.324989E-16	4.961457E-17
5.380000E+03	2.331582E-16	4.639678E-17
5.390000E+03	2.337493E-16	4.300789E-17
5.400000E+03	2.342297E-16	3.944115E-17
5.410000E+03	2.345563E-16	3.569354E-17
5.420000E+03	2.348079E-16	3.178292E-17
5.430000E+03	2.349410E-16	2.770954E-17
5.440000E+03	2.349119E-16	2.348011E-17
5.450000E+03	2.347576E-16	1.911808E-17
5.460000E+03	2.345146E-16	1.466105E-17
5.470000E+03	2.340982E-16	1.019252E-17
5.480000E+03	2.335452E-16	6.057819E-18
5.490000E+03	2.328919E-16	4.151699E-18
5.500000E+03	2.320568E-16	6.845765E-18
5.510000E+03	2.310823E-16	1.100639E-17
5.520000E+03	2.299721E-16	1.530588E-17
5.530000E+03	2.287310E-16	1.950370E-17
5.540000E+03	2.273647E-16	2.353246E-17
5.550000E+03	2.258800E-16	2.736600E-17
5.560000E+03	2.242468E-16	3.098713E-17
5.570000E+03	2.225501E-16	3.440036E-17
5.580000E+03	2.207615E-16	3.759942E-17
5.590000E+03	2.188544E-16	4.057850E-17
5.600000E+03	2.169148E-16	4.335404E-17
5.610000E+03	2.148812E-16	4.591683E-17
5.620000E+03	2.128392E-16	4.828842E-17
5.630000E+03	2.107304E-16	5.046075E-17
5.640000E+03	2.086397E-16	5.245936E-17
5.650000E+03	2.065110E-16	5.427692E-17
5.660000E+03	2.043944E-16	5.593273E-17
5.670000E+03	2.023048E-16	5.743832E-17
5.680000E+03	2.002574E-16	5.880581E-17
5.690000E+03	1.982677E-16	6.004780E-17
5.700000E+03	1.963511E-16	6.117723E-17
5.710000E+03	1.945232E-16	6.220731E-17
5.720000E+03	1.927997E-16	6.315136E-17
5.730000E+03	1.911641E-16	6.401204E-17
5.740000E+03	1.896951E-16	6.482367E-17
5.750000E+03	1.883748E-16	6.558857E-17
5.760000E+03	1.871854E-16	6.630811E-17
5.770000E+03	1.862011E-16	6.701581E-17
5.780000E+03	1.853703E-16	6.770041E-17
5.790000E+03	1.847322E-16	6.838263E-17
5.800000E+03	1.843230E-16	6.908238E-17
5.810000E+03	1.840851E-16	6.978407E-17
5.820000E+03	1.840494E-16	7.050455E-17
5.830000E+03	1.842135E-16	7.124779E-17
5.840000E+03	1.845719E-16	7.201605E-17
5.850000E+03	1.851162E-16	7.280998E-17
5.860000E+03	1.858352E-16	7.362861E-17
5.870000E+03	1.867157E-16	7.446957E-17
5.880000E+03	1.877115E-16	7.531688E-17
5.890000E+03	1.888672E-16	7.619043E-17
5.900000E+03	1.901350E-16	7.707268E-17
5.910000E+03	1.914661E-16	7.794517E-17
5.920000E+03	1.929064E-16	7.882745E-17
5.930000E+03	1.943779E-16	7.968842E-17
5.940000E+03	1.958987E-16	8.053586E-17
5.950000E+03	1.974579E-16	8.136560E-17
5.960000E+03	1.990802E-16	8.218785E-17
5.970000E+03	2.006962E-16	8.297392E-17
5.980000E+03	2.023365E-16	8.373609E-17
5.990000E+03	2.040023E-16	8.447447E-17
6.000000E+03	2.056974E-16	8.519013E-17
6.010000E+03	2.073945E-16	8.587099E-17
6.020000E+03	2.091683E-16	8.654719E-17
6.030000E+03	2.109948E-16	8.720768E-17
6.040000E+03	2.128495E-16	8.784110E-17
6.050000E+03	2.148108E-16	8.847841E-17
6.060000E+03	2.168193E-16	8.909346E-17
6.070000E+03	2.189536E-16	8.971660E-17
6.080000E+03	2.211513E-16	9.032001E-17
6.090000E+03	2.234538E-16	9.091816E-17
6.100000E+03	2.258657E-16	9.151021E-17
6.110000E+03	2.283901E-16	9.209429E-17
6.120000E+03	2.310285E-16	9.266747E-17
6.130000E+03	2.337802E-16	9.322578E-17
6.140000E+03	2.366431E-16	9.376420E-17
6.150000E+03	2.396132E-16	9.427670E-17
6.160000E+03	2.426848E-16	9.475626E-17
6.170000E+03	2.458116E-16	9.517972E-17
6.180000E+03	2.490632E-16	9.556873E-17
6.190000E+03	2.523505E-16	9.588315E-17
6.200000E+03	2.557426E-16	9.614331E-17
6.210000E+03	2.591462E-16	9.630754E-17
6.220000E+03	2.625886E-16	9.637972E-17
6.230000E+03	2.660985E-16	9.636329E-17
6.240000E+03	2.695775E-16	9.621526E-17
6.250000E+03	2.730532E-16	9.593864E-17
6.260000E+03	2.765115E-16	9.552106E-17
6.270000E+03	2.799391E-16	9.495032E-17
6.280000E+03	2.832782E-16	9.419954E-17
6.290000E+03	2.866074E-16	9.328747E-17
6.300000E+03	2.898728E-16	9.218823E-17
6.310000E+03	2.930205E-16	9.087730E-17
6.320000E+03	2.961383E-16	8.937456E-17
6.330000E+03	2.991301E-16	8.764294E-17
6.340000E+03	3.020907E-16	8.570288E-17
6.350000E+03	3.049272E-16	8.351984E-17
6.360000E+03	3.076921E-16	8.110130E-17
6.370000E+03	3.103920E-16	7.844117E-17
6.380000E+03	3.130346E-16	7.553352E-17
6.390000E+03	3.156282E-16	7.237239E-17
6.400000E+03	3.181808E-16	6.895167E-17
6.410000E+03	3.206987E-16	6.526496E-17
6.420000E+03	3.231860E-16	6.130560E-17
6.430000E+03	3.256433E-16	5.706687E-17
6.440000E+03	3.280151E-16	5.253391E-17
6.450000E+03	3.303955E-16	4.771843E-17
6.460000E+03	3.326652E-16	4.260079E-17
6.470000E+03	3.349076E-16	3.719499E-17
6.480000E+03	3.369885E-16	3.149491E-17
6.490000E+03	3.389258E-16	2.552799E-17
6.500000E+03	3.406792E-16	1.935031E-17
6.510000E+03	3.422039E-16	1.313573E-17
6.520000E+03	3.435066E-16	7.655991E-18
6.530000E+03	3.443764E-16	6.667000E-18
6.540000E+03	3.449302E-16	1.156357E-17
6.550000E+03	3.450724E-16	1.784040E-17
6.560000E+03	3.447670E-16	2.423521E-17
6.570000E+03	3.439844E-16	3.047633E-17
6.580000E+03	3.426488E-16	3.645830E-17
6.590000E+03	3.408558E-16	4.213811E-17
6.600000E+03	3.384943E-16	4.746789E-17
6.610000E+03	3.356252E-16	5.242822E-17
6.620000E+03	3.323179E-16	5.701071E-17
6.630000E+03	3.284937E-16	6.118754E-17
6.640000E+03	3.242414E-16	6.496314E-17
6.650000E+03	3.196048E-16	6.833998E-17
6.660000E+03	3.146338E-16	7.132646E-17
6.670000E+03	3.093835E-16	7.393637E-17
6.680000E+03	3.039117E-16	7.618816E-17
6.690000E+03	2.982773E-16	7.810411E-17
6.700000E+03	2.924923E-16	7.969687E-17
6.710000E+03	2.867063E-16	8.101867E-17
6.720000E+03	2.809247E-16	8.208556E-17
6.730000E+03	2.751524E-16	8.291317E-17
6.740000E+03	2.695202E-16	8.355591E-17
6.750000E+03	2.639796E-16	8.401486E-17
6.760000E+03	2.586057E-16	8.432905E-17
6.770000E+03	2.534246E-16	8.452263E-17
6.780000E+03	2.484964E-16	8.463108E-17
6.790000E+03	2.437574E-16	8.464766E-17
6.800000E+03	2.392590E-16	8.460358E-17
6.810000E+03	2.349713E-16	8.450122E-17
6.820000E+03	2.309731E-16	8.438113E-17
6.830000E+03	2.272278E-16	8.424182E-17
6.840000E+03	2.237339E-16	8.409354E-17
6.850000E+03	2.204535E-16	8.393169E-17
6.860000E+03	2.174521E-16	8.379019E-17
6.870000E+03	2.146884E-16	8.366185E-17
6.880000E+03	2.121222E-16	8.353851E-17
6.890000E+03	2.097805E-16	8.343753E-17
6.900000E+03	2.076882E-16	8.337540E-17
6.910000E+03	2.057712E-16	8.332826E-17
6.920000E+03	2.040540E-16	8.331124E-17
6.930000E+03	2.025284E-16	8.332570E-17
6.940000E+03	2.011856E-16	8.337249E-17
6.950000E+03	2.000171E-16	8.345205E-17
6.960000E+03	1.990144E-16	8.356442E-17
6.970000E+03	1.981691E-16	8.370934E-17
6.980000E+03	1.974728E-16	8.388624E-17
6.990000E+03	1.968862E-16	8.408099E-17
7.000000E+03	1.964640E-16	8.431934E-17
7.010000E+03	1.961673E-16	8.458687E-17
7.020000E+03	1.959577E-16	8.486891E-17
7.030000E+03	1.958593E-16	8.517766E-17
7.040000E+03	1.958970E-16	8.552547E-17
7.050000E+03	1.960021E-16	8.588393E-17
7.060000E+03	1.962000E-16	8.626536E-17
7.070000E+03	1.965165E-16	8.668233E-17
7.080000E+03	1.968840E-16	8.710602E-17
7.090000E+03	1.973284E-16	8.754882E-17
7.100000E+03	1.978446E-16	8.800927E-17
7.110000E+03	1.984271E-16	8.848565E-17
7.120000E+03	1.990383E-16	8.896171E-17
7.130000E+03	1.997348E-16	8.946332E-17
7.140000E+03	2.004771E-16	8.997330E-17
7.150000E+03	2.012562E-16	9.048789E-17
7.160000E+03	2.020288E-16	9.098795E-17
7.170000E+03	2.028470E-16	9.149705E-17
7.180000E+03	2.036312E-16	9.197950E-17
7.190000E+03	2.044300E-16	9.245721E-17
7.200000E+03	2.051590E-16	9.289213E-17
7.210000E+03	2.058304E-16	9.328963E-17
7.220000E+03	2.064218E-16	9.363957E-17
7.230000E+03	2.069433E-16	9.394637E-17
7.240000E+03	2.073043E-16	9.416889E-17
7.250000E+03	2.075143E-16	9.431129E-17
7.260000E+03	2.075505E-16	9.436311E-17
7.270000E+03	2.073918E-16	9.431474E-17
7.280000E+03	2.070197E-16	9.415779E-17
7.290000E+03	2.063859E-16	9.387037E-17
7.300000E+03	2.055465E-16	9.347802E-17
7.310000E+03	2.044618E-16	9.296298E-17
7.320000E+03	2.030980E-16	9.231010E-17
7.330000E+03	2.015254E-16	9.155162E-17
7.340000E+03	1.997203E-16	9.067720E-17
7.350000E+03	1.976651E-16	8.967926E-17
7.360000E+03	1.954115E-16	8.858170E-17
7.370000E+03	1.930136E-16	8.740955E-17
7.380000E+03	1.904342E-16	8.614643E-17
7.390000E+03	1.877331E-16	8.481992E-17
7.400000E+03	1.849399E-16	8.344385E-17
7.410000E+03	1.821146E-16	8.204559E-17
7.420000E+03	1.792274E-16	8.061211E-17
7.430000E+03	1.763378E-16	7.917045E-17
7.440000E+03	1.734739E-16	7.773340E-17
7.450000E+03	1.706622E-16	7.631289E-17
7.460000E+03	1.678997E-16	7.490759E-17
7.470000E+03	1.652643E-16	7.355208E-17
7.480000E+03	1.627484E-16	7.224260E-17
7.490000E+03	1.603701E-16	7.098678E-17
7.500000E+03	1.581195E-16	6.977966E-17
7.510000E+03	1.560629E-16	6.864979E-17
7.520000E+03	1.541608E-16	6.757883E-17
7.530000E+03	1.524745E-16	6.659263E-17
7.540000E+03	1.509622E-16	6.567164E-17
7.550000E+03	1.496809E-16	6.483924E-17
7.560000E+03	1.485864E-16	6.407469E-17
7.570000E+03	1.477077E-16	6.338869E-17
7.580000E+03	1.470716E-16	6.279066E-17
7.590000E+03	1.466303E-16	6.225798E-17
7.600000E+03	1.464079E-16	6.179851E-17
7.610000E+03	1.464025E-16	6.140883E-17
7.620000E+03	1.466110E-16	6.108469E-17
7.630000E+03	1.470286E-16	6.082108E-17
7.640000E+03	1.476495E-16	6.061223E-17
7.650000E+03	1.484666E-16	6.045164E-17
7.660000E+03	1.494714E-16	6.033220E-17
7.670000E+03	1.506299E-16	6.023616E-17
7.680000E+03	1.519820E-16	6.017544E-17
7.690000E+03	1.534925E-16	6.013146E-17
7.700000E+03	1.551507E-16	6.009538E-17
7.710000E+03	1.569197E-16	6.004816E-17
7.720000E+03	1.588417E-16	6.000089E-17
7.730000E+03	1.608537E-16	5.992441E-17
7.740000E+03	1.630006E-16	5.982994E-17
7.750000E+03	1.652198E-16	5.968856E-17
7.760000E+03	1.675315E-16	5.950170E-17
