#wls	flux	fluxerr
1.600000E+03	6.313855E-17	6.231818E-17
1.640000E+03	6.331862E-17	6.205860E-17
1.680000E+03	6.344163E-17	6.173604E-17
1.720000E+03	6.352959E-17	6.137595E-17
1.760000E+03	6.357338E-17	6.097333E-17
1.800000E+03	6.357709E-17	6.053595E-17
1.840000E+03	6.354722E-17	6.007350E-17
1.880000E+03	6.349276E-17	5.959739E-17
1.920000E+03	6.343582E-17	5.913049E-17
1.960000E+03	6.338990E-17	5.868647E-17
2.000000E+03	6.337048E-17	5.827975E-17
2.040000E+03	6.340502E-17	5.793458E-17
2.080000E+03	6.349067E-17	5.764632E-17
2.120000E+03	6.366664E-17	5.744772E-17
2.160000E+03	6.395090E-17	5.735103E-17
2.200000E+03	6.436052E-17	5.736690E-17
2.240000E+03	6.491100E-17	5.750388E-17
2.280000E+03	6.561580E-17	5.776809E-17
2.320000E+03	6.650616E-17	5.818070E-17
2.360000E+03	6.758006E-17	5.873296E-17
2.400000E+03	6.884273E-17	5.942188E-17
2.440000E+03	7.030674E-17	6.024997E-17
2.480000E+03	7.197174E-17	6.120719E-17
2.520000E+03	7.383484E-17	6.227971E-17
2.560000E+03	7.591243E-17	6.346748E-17
2.600000E+03	7.818784E-17	6.473941E-17
2.640000E+03	8.067574E-17	6.608659E-17
2.680000E+03	8.334694E-17	6.745912E-17
2.720000E+03	8.622737E-17	6.884660E-17
2.760000E+03	8.929918E-17	7.019652E-17
2.800000E+03	9.257900E-17	7.147675E-17
2.840000E+03	9.606109E-17	7.262959E-17
2.880000E+03	9.973910E-17	7.358911E-17
2.920000E+03	1.036173E-16	7.428923E-17
2.960000E+03	1.077107E-16	7.466227E-17
3.000000E+03	1.120068E-16	7.461225E-17
3.010000E+03	1.131114E-16	7.452193E-17
3.020000E+03	1.142289E-16	7.439783E-17
3.030000E+03	1.153589E-16	7.423814E-17
3.040000E+03	1.165013E-16	7.404102E-17
3.050000E+03	1.176555E-16	7.380456E-17
3.060000E+03	1.188213E-16	7.352686E-17
3.070000E+03	1.199982E-16	7.320598E-17
3.080000E+03	1.211858E-16	7.283994E-17
3.090000E+03	1.223838E-16	7.242675E-17
3.100000E+03	1.235916E-16	7.196440E-17
3.110000E+03	1.248089E-16	7.145089E-17
3.120000E+03	1.260352E-16	7.088416E-17
3.130000E+03	1.272831E-16	7.026938E-17
3.140000E+03	1.285261E-16	6.959002E-17
3.150000E+03	1.297899E-16	6.885829E-17
3.160000E+03	1.310611E-16	6.806498E-17
3.170000E+03	1.323391E-16	6.720807E-17
3.180000E+03	1.336237E-16	6.628558E-17
3.190000E+03	1.349277E-16	6.530193E-17
3.200000E+03	1.362376E-16	6.424851E-17
3.210000E+03	1.375530E-16	6.312343E-17
3.220000E+03	1.388739E-16	6.192487E-17
3.230000E+03	1.402132E-16	6.065678E-17
3.240000E+03	1.415576E-16	5.931137E-17
3.250000E+03	1.429070E-16	5.788703E-17
3.260000E+03	1.442748E-16	5.638744E-17
3.270000E+03	1.456477E-16	5.480561E-17
3.280000E+03	1.470258E-16	5.314028E-17
3.290000E+03	1.484228E-16	5.139500E-17
3.300000E+03	1.498256E-16	4.956386E-17
3.310000E+03	1.512480E-16	4.765052E-17
3.320000E+03	1.526771E-16	4.565013E-17
3.330000E+03	1.541269E-16	4.356674E-17
3.340000E+03	1.555847E-16	4.139705E-17
3.350000E+03	1.570646E-16	3.914625E-17
3.360000E+03	1.585540E-16	3.681361E-17
3.370000E+03	1.600672E-16	3.440689E-17
3.380000E+03	1.616052E-16	3.193290E-17
3.390000E+03	1.631556E-16	2.939989E-17
3.400000E+03	1.647330E-16	2.682743E-17
3.410000E+03	1.663250E-16	2.423961E-17
3.420000E+03	1.679464E-16	2.168002E-17
3.430000E+03	1.695985E-16	1.921452E-17
3.440000E+03	1.712826E-16	1.694890E-17
3.450000E+03	1.729869E-16	1.504778E-17
3.460000E+03	1.747263E-16	1.374871E-17
3.470000E+03	1.765027E-16	1.331437E-17
3.480000E+03	1.783178E-16	1.389764E-17
3.490000E+03	1.801592E-16	1.541322E-17
3.500000E+03	1.820414E-16	1.763656E-17
3.510000E+03	1.839793E-16	2.034543E-17
3.520000E+03	1.859467E-16	2.337218E-17
3.530000E+03	1.879587E-16	2.660948E-17
3.540000E+03	1.900165E-16	2.998767E-17
3.550000E+03	1.921080E-16	3.345922E-17
3.560000E+03	1.942619E-16	3.699869E-17
3.570000E+03	1.964660E-16	4.058348E-17
3.580000E+03	1.987219E-16	4.419921E-17
3.590000E+03	2.010312E-16	4.783552E-17
3.600000E+03	2.033956E-16	5.148472E-17
3.610000E+03	2.058165E-16	5.514102E-17
3.620000E+03	2.082959E-16	5.879992E-17
3.630000E+03	2.108354E-16	6.245786E-17
3.640000E+03	2.134369E-16	6.611198E-17
3.650000E+03	2.161023E-16	6.975988E-17
3.660000E+03	2.188474E-16	7.340425E-17
3.670000E+03	2.216463E-16	7.703416E-17
3.680000E+03	2.245292E-16	8.065758E-17
3.690000E+03	2.274840E-16	8.426840E-17
3.700000E+03	2.305131E-16	8.786528E-17
3.710000E+03	2.336327E-16	9.145245E-17
3.720000E+03	2.368168E-16	9.501768E-17
3.730000E+03	2.400961E-16	9.857090E-17
3.740000E+03	2.434588E-16	1.021052E-16
3.750000E+03	2.469071E-16	1.056190E-16
3.760000E+03	2.504434E-16	1.091110E-16
3.770000E+03	2.540844E-16	1.125856E-16
3.780000E+03	2.578181E-16	1.160351E-16
3.790000E+03	2.616467E-16	1.194572E-16
3.800000E+03	2.655870E-16	1.228567E-16
3.810000E+03	2.696120E-16	1.262175E-16
3.820000E+03	2.737530E-16	1.295507E-16
3.830000E+03	2.780122E-16	1.328536E-16
3.840000E+03	2.823618E-16	1.361087E-16
3.850000E+03	2.868333E-16	1.393269E-16
3.860000E+03	2.914134E-16	1.424970E-16
3.870000E+03	2.961035E-16	1.456147E-16
3.880000E+03	3.009049E-16	1.486754E-16
3.890000E+03	3.058340E-16	1.516816E-16
3.900000E+03	3.108610E-16	1.546127E-16
3.910000E+03	3.160175E-16	1.574781E-16
3.920000E+03	3.212886E-16	1.602638E-16
3.930000E+03	3.266902E-16	1.629709E-16
3.940000E+03	3.321911E-16	1.655766E-16
3.950000E+03	3.378067E-16	1.680808E-16
3.960000E+03	3.435526E-16	1.704835E-16
3.970000E+03	3.494124E-16	1.727680E-16
3.980000E+03	3.553689E-16	1.749174E-16
3.990000E+03	3.614533E-16	1.769381E-16
4.000000E+03	3.676318E-16	1.788040E-16
4.010000E+03	3.739354E-16	1.805207E-16
4.020000E+03	3.803295E-16	1.820615E-16
4.030000E+03	3.868283E-16	1.834230E-16
4.040000E+03	3.934296E-16	1.845935E-16
4.050000E+03	4.001308E-16	1.855611E-16
4.060000E+03	4.069294E-16	1.863132E-16
4.070000E+03	4.138050E-16	1.868295E-16
4.080000E+03	4.207544E-16	1.870971E-16
4.090000E+03	4.278086E-16	1.871181E-16
4.100000E+03	4.349295E-16	1.868637E-16
4.110000E+03	4.421130E-16	1.863204E-16
4.120000E+03	4.493728E-16	1.854819E-16
4.130000E+03	4.566869E-16	1.843269E-16
4.140000E+03	4.640507E-16	1.828419E-16
4.150000E+03	4.714778E-16	1.810199E-16
4.160000E+03	4.789271E-16	1.788333E-16
4.170000E+03	4.864299E-16	1.762825E-16
4.180000E+03	4.939630E-16	1.733472E-16
4.190000E+03	5.015024E-16	1.700082E-16
4.200000E+03	5.090796E-16	1.662660E-16
4.210000E+03	5.166518E-16	1.620965E-16
4.220000E+03	5.242316E-16	1.574950E-16
4.230000E+03	5.318133E-16	1.524521E-16
4.240000E+03	5.393717E-16	1.469542E-16
4.250000E+03	5.469198E-16	1.410011E-16
4.260000E+03	5.544326E-16	1.345849E-16
4.270000E+03	5.619041E-16	1.277069E-16
4.280000E+03	5.693290E-16	1.203739E-16
4.290000E+03	5.767220E-16	1.126042E-16
4.300000E+03	5.840602E-16	1.044192E-16
4.310000E+03	5.913220E-16	9.585849E-17
4.320000E+03	5.985462E-16	8.699772E-17
4.330000E+03	6.056958E-16	7.794273E-17
4.340000E+03	6.127958E-16	6.888024E-17
4.350000E+03	6.198356E-16	6.011574E-17
4.360000E+03	6.268480E-16	5.217213E-17
4.370000E+03	6.338512E-16	4.590172E-17
4.380000E+03	6.408285E-16	4.250191E-17
4.390000E+03	6.478466E-16	4.308123E-17
4.400000E+03	6.548857E-16	4.774990E-17
4.410000E+03	6.619198E-16	5.559854E-17
4.420000E+03	6.689246E-16	6.555276E-17
4.430000E+03	6.758797E-16	7.682062E-17
4.440000E+03	6.827679E-16	8.890195E-17
4.450000E+03	6.895754E-16	1.014887E-16
4.460000E+03	6.962712E-16	1.143828E-16
4.470000E+03	7.028475E-16	1.274546E-16
4.480000E+03	7.093192E-16	1.406186E-16
4.490000E+03	7.156831E-16	1.538109E-16
4.500000E+03	7.219168E-16	1.669791E-16
4.510000E+03	7.280200E-16	1.800851E-16
4.520000E+03	7.339930E-16	1.930985E-16
4.530000E+03	7.398372E-16	2.059942E-16
4.540000E+03	7.455747E-16	2.187573E-16
4.550000E+03	7.511665E-16	2.313580E-16
4.560000E+03	7.566355E-16	2.437861E-16
4.570000E+03	7.619839E-16	2.560280E-16
4.580000E+03	7.672143E-16	2.680714E-16
4.590000E+03	7.723292E-16	2.799050E-16
4.600000E+03	7.773102E-16	2.915111E-16
4.610000E+03	7.821805E-16	3.028879E-16
4.620000E+03	7.869216E-16	3.140188E-16
4.630000E+03	7.915565E-16	3.249037E-16
4.640000E+03	7.960874E-16	3.355358E-16
4.650000E+03	8.004956E-16	3.458996E-16
4.660000E+03	8.047832E-16	3.559884E-16
4.670000E+03	8.089726E-16	3.658053E-16
4.680000E+03	8.130451E-16	3.753357E-16
4.690000E+03	8.170024E-16	3.845742E-16
4.700000E+03	8.208668E-16	3.935257E-16
4.710000E+03	8.246190E-16	4.021759E-16
4.720000E+03	8.282606E-16	4.105204E-16
4.730000E+03	8.317928E-16	4.185552E-16
4.740000E+03	8.352373E-16	4.262868E-16
4.750000E+03	8.385746E-16	4.337012E-16
4.760000E+03	8.418056E-16	4.407950E-16
4.770000E+03	8.449310E-16	4.475648E-16
4.780000E+03	8.479720E-16	4.540184E-16
4.790000E+03	8.508878E-16	4.601307E-16
4.800000E+03	8.537200E-16	4.659209E-16
4.810000E+03	8.564480E-16	4.713750E-16
4.820000E+03	8.590718E-16	4.764901E-16
4.830000E+03	8.616116E-16	4.812748E-16
4.840000E+03	8.640263E-16	4.857036E-16
4.850000E+03	8.663561E-16	4.897965E-16
4.860000E+03	8.685799E-16	4.935396E-16
4.870000E+03	8.706970E-16	4.969300E-16
4.880000E+03	8.727268E-16	4.999768E-16
4.890000E+03	8.746274E-16	5.026540E-16
4.900000E+03	8.764385E-16	5.049824E-16
4.910000E+03	8.781586E-16	5.069594E-16
4.920000E+03	8.797460E-16	5.085592E-16
4.930000E+03	8.812397E-16	5.098026E-16
4.940000E+03	8.826182E-16	5.106757E-16
4.950000E+03	8.839000E-16	5.111877E-16
4.960000E+03	8.850637E-16	5.113248E-16
4.970000E+03	8.861079E-16	5.110850E-16
4.980000E+03	8.870512E-16	5.104779E-16
4.990000E+03	8.878925E-16	5.095015E-16
5.000000E+03	8.885905E-16	5.081313E-16
5.010000E+03	8.892041E-16	5.064002E-16
5.020000E+03	8.896727E-16	5.042727E-16
5.030000E+03	8.900552E-16	5.017818E-16
5.040000E+03	8.902914E-16	4.988930E-16
5.050000E+03	8.904407E-16	4.956391E-16
5.060000E+03	8.904632E-16	4.919976E-16
5.070000E+03	8.903789E-16	4.879795E-16
5.080000E+03	8.901686E-16	4.835741E-16
5.090000E+03	8.898526E-16	4.787929E-16
5.100000E+03	8.894124E-16	4.736261E-16
5.110000E+03	8.888883E-16	4.680956E-16
5.120000E+03	8.882429E-16	4.621821E-16
5.130000E+03	8.874977E-16	4.558975E-16
5.140000E+03	8.866355E-16	4.492340E-16
5.150000E+03	8.856785E-16	4.422039E-16
5.160000E+03	8.846487E-16	4.348190E-16
5.170000E+03	8.834919E-16	4.270539E-16
5.180000E+03	8.822693E-16	4.189398E-16
5.190000E+03	8.809657E-16	4.104707E-16
5.200000E+03	8.795666E-16	4.016414E-16
5.210000E+03	8.780958E-16	3.924647E-16
5.220000E+03	8.765585E-16	3.829448E-16
5.230000E+03	8.749600E-16	3.730859E-16
5.240000E+03	8.733065E-16	3.628924E-16
5.250000E+03	8.716040E-16	3.523690E-16
5.260000E+03	8.698407E-16	3.415135E-16
5.270000E+03	8.680610E-16	3.303457E-16
5.280000E+03	8.662535E-16	3.188636E-16
5.290000E+03	8.644078E-16	3.070662E-16
5.300000E+03	8.625507E-16	2.949668E-16
5.310000E+03	8.607091E-16	2.825779E-16
5.320000E+03	8.588556E-16	2.698943E-16
5.330000E+03	8.570181E-16	2.569302E-16
5.340000E+03	8.552068E-16	2.436949E-16
5.350000E+03	8.534502E-16	2.302037E-16
5.360000E+03	8.517234E-16	2.164598E-16
5.370000E+03	8.500561E-16	2.024844E-16
5.380000E+03	8.484786E-16	1.883025E-16
5.390000E+03	8.469681E-16	1.739339E-16
5.400000E+03	8.455564E-16	1.594217E-16
5.410000E+03	8.442760E-16	1.448241E-16
5.420000E+03	8.431069E-16	1.302161E-16
5.430000E+03	8.421016E-16	1.157271E-16
5.440000E+03	8.412603E-16	1.015495E-16
5.450000E+03	8.405853E-16	8.799945E-17
5.460000E+03	8.401335E-16	7.561269E-17
5.470000E+03	8.399108E-16	6.526763E-17
5.480000E+03	8.399611E-16	5.829175E-17
5.490000E+03	8.402779E-16	5.616763E-17
5.500000E+03	8.409137E-16	5.952484E-17
5.510000E+03	8.418287E-16	6.744462E-17
5.520000E+03	8.429957E-16	7.842149E-17
5.530000E+03	8.443902E-16	9.122804E-17
5.540000E+03	8.460077E-16	1.050771E-16
5.550000E+03	8.478100E-16	1.194931E-16
5.560000E+03	8.497780E-16	1.341906E-16
5.570000E+03	8.519120E-16	1.489960E-16
5.580000E+03	8.541773E-16	1.637932E-16
5.590000E+03	8.565582E-16	1.785065E-16
5.600000E+03	8.590572E-16	1.930875E-16
5.610000E+03	8.616417E-16	2.074951E-16
5.620000E+03	8.643154E-16	2.217059E-16
5.630000E+03	8.670460E-16	2.356940E-16
5.640000E+03	8.698380E-16	2.494467E-16
5.650000E+03	8.726776E-16	2.629501E-16
5.660000E+03	8.755329E-16	2.761857E-16
5.670000E+03	8.783902E-16	2.891417E-16
5.680000E+03	8.812545E-16	3.018129E-16
5.690000E+03	8.841122E-16	3.141893E-16
5.700000E+03	8.869500E-16	3.262607E-16
5.710000E+03	8.897356E-16	3.380104E-16
5.720000E+03	8.924742E-16	3.494348E-16
5.730000E+03	8.951524E-16	3.605242E-16
5.740000E+03	8.977568E-16	3.712682E-16
5.750000E+03	9.002551E-16	3.816487E-16
5.760000E+03	9.026531E-16	3.916630E-16
5.770000E+03	9.049567E-16	4.013093E-16
5.780000E+03	9.071149E-16	4.105603E-16
5.790000E+03	9.091342E-16	4.194143E-16
5.800000E+03	9.110023E-16	4.278608E-16
5.810000E+03	9.127071E-16	4.358899E-16
5.820000E+03	9.142370E-16	4.434917E-16
5.830000E+03	9.155811E-16	4.506568E-16
5.840000E+03	9.167287E-16	4.573760E-16
5.850000E+03	9.176698E-16	4.636407E-16
5.860000E+03	9.183952E-16	4.694427E-16
5.870000E+03	9.188963E-16	4.747745E-16
5.880000E+03	9.191653E-16	4.796292E-16
5.890000E+03	9.192147E-16	4.840111E-16
5.900000E+03	9.190191E-16	4.879048E-16
5.910000E+03	9.185536E-16	4.912952E-16
5.920000E+03	9.178533E-16	4.941999E-16
5.930000E+03	9.169150E-16	4.966164E-16
5.940000E+03	9.156975E-16	4.985220E-16
5.950000E+03	9.142389E-16	4.999374E-16
5.960000E+03	9.125001E-16	5.008420E-16
5.970000E+03	9.105409E-16	5.012693E-16
5.980000E+03	9.083047E-16	5.011899E-16
5.990000E+03	9.058145E-16	5.006182E-16
6.000000E+03	9.030940E-16	4.995698E-16
6.010000E+03	9.001485E-16	4.980504E-16
6.020000E+03	8.969455E-16	4.960453E-16
6.030000E+03	8.935310E-16	4.935834E-16
6.040000E+03	8.898939E-16	4.906628E-16
6.050000E+03	8.860433E-16	4.872928E-16
6.060000E+03	8.820082E-16	4.834939E-16
6.070000E+03	8.777801E-16	4.792666E-16
6.080000E+03	8.733703E-16	4.746221E-16
6.090000E+03	8.688097E-16	4.695829E-16
6.100000E+03	8.640918E-16	4.641509E-16
6.110000E+03	8.592484E-16	4.583489E-16
6.120000E+03	8.542556E-16	4.521701E-16
6.130000E+03	8.491828E-16	4.456573E-16
6.140000E+03	8.439886E-16	4.387945E-16
6.150000E+03	8.387241E-16	4.316143E-16
6.160000E+03	8.334037E-16	4.241299E-16
6.170000E+03	8.280054E-16	4.163358E-16
6.180000E+03	8.225802E-16	4.082634E-16
6.190000E+03	8.171427E-16	3.999252E-16
6.200000E+03	8.116893E-16	3.913243E-16
6.210000E+03	8.062522E-16	3.824812E-16
6.220000E+03	8.008104E-16	3.733905E-16
6.230000E+03	7.954309E-16	3.640876E-16
6.240000E+03	7.900923E-16	3.545662E-16
6.250000E+03	7.848083E-16	3.448359E-16
6.260000E+03	7.796097E-16	3.349131E-16
6.270000E+03	7.744921E-16	3.247982E-16
6.280000E+03	7.694856E-16	3.145055E-16
6.290000E+03	7.645852E-16	3.040343E-16
6.300000E+03	7.598200E-16	2.933969E-16
6.310000E+03	7.552015E-16	2.825975E-16
6.320000E+03	7.507239E-16	2.716335E-16
6.330000E+03	7.464147E-16	2.605138E-16
6.340000E+03	7.422675E-16	2.492347E-16
6.350000E+03	7.383088E-16	2.378029E-16
6.360000E+03	7.345310E-16	2.262137E-16
6.370000E+03	7.309595E-16	2.144722E-16
6.380000E+03	7.276023E-16	2.025776E-16
6.390000E+03	7.244668E-16	1.905288E-16
6.400000E+03	7.215432E-16	1.783210E-16
6.410000E+03	7.188537E-16	1.659588E-16
6.420000E+03	7.164035E-16	1.534437E-16
6.430000E+03	7.141963E-16	1.407804E-16
6.440000E+03	7.122187E-16	1.279757E-16
6.450000E+03	7.105046E-16	1.150542E-16
6.460000E+03	7.090211E-16	1.020442E-16
6.470000E+03	7.077822E-16	8.900897E-17
6.480000E+03	7.067830E-16	7.605920E-17
6.490000E+03	7.060158E-16	6.340514E-17
6.500000E+03	7.054525E-16	5.146870E-17
6.510000E+03	7.051095E-16	4.114792E-17
6.520000E+03	7.049484E-16	3.425838E-17
6.530000E+03	7.049417E-16	3.332113E-17
6.540000E+03	7.050792E-16	3.883746E-17
6.550000E+03	7.053795E-16	4.850568E-17
6.560000E+03	7.058575E-16	6.021319E-17
6.570000E+03	7.065220E-16	7.285691E-17
6.580000E+03	7.073773E-16	8.591629E-17
6.590000E+03	7.084402E-16	9.913768E-17
6.600000E+03	7.096915E-16	1.123852E-16
6.610000E+03	7.111259E-16	1.255843E-16
6.620000E+03	7.127362E-16	1.386920E-16
6.630000E+03	7.145306E-16	1.516861E-16
6.640000E+03	7.164824E-16	1.645482E-16
6.650000E+03	7.185810E-16	1.772682E-16
6.660000E+03	7.208316E-16	1.898442E-16
6.670000E+03	7.232054E-16	2.022679E-16
6.680000E+03	7.257070E-16	2.145407E-16
6.690000E+03	7.282893E-16	2.266498E-16
6.700000E+03	7.309910E-16	2.386083E-16
6.710000E+03	7.337647E-16	2.504028E-16
6.720000E+03	7.365973E-16	2.620300E-16
6.730000E+03	7.394932E-16	2.734926E-16
6.740000E+03	7.424221E-16	2.847804E-16
6.750000E+03	7.453890E-16	2.958961E-16
6.760000E+03	7.483815E-16	3.068355E-16
6.770000E+03	7.513695E-16	3.175867E-16
6.780000E+03	7.543592E-16	3.281520E-16
6.790000E+03	7.573209E-16	3.385182E-16
6.800000E+03	7.602798E-16	3.486963E-16
6.810000E+03	7.631703E-16	3.586557E-16
6.820000E+03	7.660369E-16	3.684161E-16
6.830000E+03	7.688328E-16	3.779545E-16
6.840000E+03	7.715483E-16	3.872647E-16
6.850000E+03	7.742114E-16	3.963597E-16
6.860000E+03	7.767762E-16	4.052150E-16
6.870000E+03	7.792530E-16	4.138348E-16
6.880000E+03	7.816152E-16	4.222036E-16
6.890000E+03	7.838741E-16	4.303262E-16
6.900000E+03	7.860230E-16	4.381978E-16
6.910000E+03	7.880554E-16	4.458140E-16
6.920000E+03	7.899461E-16	4.531592E-16
6.930000E+03	7.917087E-16	4.602403E-16
6.940000E+03	7.933382E-16	4.670535E-16
6.950000E+03	7.948300E-16	4.735954E-16
6.960000E+03	7.961603E-16	4.798511E-16
6.970000E+03	7.973448E-16	4.858296E-16
6.980000E+03	7.983608E-16	4.915162E-16
6.990000E+03	7.992249E-16	4.969209E-16
7.000000E+03	7.999347E-16	5.020421E-16
7.010000E+03	8.004885E-16	5.068787E-16
7.020000E+03	8.008648E-16	5.114172E-16
7.030000E+03	8.010824E-16	5.156696E-16
7.040000E+03	8.011209E-16	5.196231E-16
7.050000E+03	8.009999E-16	5.232908E-16
7.060000E+03	8.007196E-16	5.266735E-16
7.070000E+03	8.002609E-16	5.297593E-16
7.080000E+03	7.996247E-16	5.325494E-16
7.090000E+03	7.988326E-16	5.350591E-16
7.100000E+03	7.978863E-16	5.372906E-16
7.110000E+03	7.967682E-16	5.392334E-16
7.120000E+03	7.955008E-16	5.409037E-16
7.130000E+03	7.940674E-16	5.422915E-16
7.140000E+03	7.924711E-16	5.434005E-16
7.150000E+03	7.907356E-16	5.442481E-16
7.160000E+03	7.888450E-16	5.448250E-16
7.170000E+03	7.868037E-16	5.451359E-16
7.180000E+03	7.846358E-16	5.451993E-16
7.190000E+03	7.823266E-16	5.450064E-16
7.200000E+03	7.798810E-16	5.445627E-16
7.210000E+03	7.773044E-16	5.438735E-16
7.220000E+03	7.746218E-16	5.429582E-16
7.230000E+03	7.718192E-16	5.418090E-16
7.240000E+03	7.689024E-16	5.404317E-16
7.250000E+03	7.658580E-16	5.388187E-16
7.260000E+03	7.627307E-16	5.370034E-16
7.270000E+03	7.595072E-16	5.349784E-16
7.280000E+03	7.562129E-16	5.327631E-16
7.290000E+03	7.528154E-16	5.303369E-16
7.300000E+03	7.493212E-16	5.277059E-16
7.310000E+03	7.457745E-16	5.249031E-16
7.320000E+03	7.421624E-16	5.219211E-16
7.330000E+03	7.384910E-16	5.187658E-16
7.340000E+03	7.347475E-16	5.154299E-16
7.350000E+03	7.309567E-16	5.119324E-16
7.360000E+03	7.271245E-16	5.082788E-16
7.370000E+03	7.232566E-16	5.044746E-16
7.380000E+03	7.193585E-16	5.005248E-16
7.390000E+03	7.154173E-16	4.964219E-16
7.400000E+03	7.114569E-16	4.921836E-16
7.410000E+03	7.074641E-16	4.878019E-16
7.420000E+03	7.034622E-16	4.832939E-16
7.430000E+03	6.994561E-16	4.786638E-16
7.440000E+03	6.954324E-16	4.739034E-16
7.450000E+03	6.914135E-16	4.690286E-16
7.460000E+03	6.873860E-16	4.640311E-16
7.470000E+03	6.833718E-16	4.589261E-16
7.480000E+03	6.793748E-16	4.537167E-16
7.490000E+03	6.753636E-16	4.483822E-16
7.500000E+03	6.713770E-16	4.429490E-16
7.510000E+03	6.674183E-16	4.374191E-16
7.520000E+03	6.634734E-16	4.317833E-16
7.530000E+03	6.595626E-16	4.260549E-16
7.540000E+03	6.556546E-16	4.202136E-16
7.550000E+03	6.517865E-16	4.142829E-16
7.560000E+03	6.479608E-16	4.082640E-16
7.570000E+03	6.441630E-16	4.021474E-16
7.580000E+03	6.403955E-16	3.959340E-16
7.590000E+03	6.366607E-16	3.896248E-16
7.600000E+03	6.329774E-16	3.832306E-16
7.610000E+03	6.293146E-16	3.767319E-16
7.620000E+03	6.257239E-16	3.701587E-16
7.630000E+03	6.221576E-16	3.634816E-16
7.640000E+03	6.186344E-16	3.567107E-16
7.650000E+03	6.151723E-16	3.498554E-16
7.660000E+03	6.117569E-16	3.429059E-16
7.670000E+03	6.083902E-16	3.358620E-16
7.680000E+03	6.050899E-16	3.287323E-16
7.690000E+03	6.018260E-16	3.214986E-16
7.700000E+03	5.986325E-16	3.141778E-16
7.710000E+03	5.954795E-16	3.067524E-16
7.720000E+03	5.924008E-16	2.992383E-16
7.730000E+03	5.893827E-16	2.916262E-16
7.740000E+03	5.864276E-16	2.839155E-16
7.750000E+03	5.835378E-16	2.761051E-16
7.760000E+03	5.807157E-16	2.681940E-16
